3996.57260	0.98834
3994.51569	0.98865
3992.45878	0.98935
3990.40188	0.99039
3988.34497	0.99091
3986.28806	0.99059
3984.23115	0.98994
3982.17424	0.98989
3980.11733	0.99021
3978.06043	0.98990
3976.00352	0.98952
3973.94661	0.98935
3971.88970	0.98895
3969.83279	0.98888
3967.77589	0.98926
3965.71898	0.98943
3963.66207	0.98953
3961.60516	0.98999
3959.54825	0.99023
3957.49134	0.99018
3955.43444	0.99062
3953.37753	0.99116
3951.32062	0.99107
3949.26371	0.99090
3947.20680	0.99120
3945.14990	0.99129
3943.09299	0.99098
3941.03608	0.99099
3938.97917	0.99114
3936.92226	0.99074
3934.86535	0.99019
3932.80845	0.99004
3930.75154	0.98968
3928.69463	0.98943
3926.63772	0.98987
3924.58081	0.98999
3922.52391	0.98940
3920.46700	0.98903
3918.41009	0.98936
3916.35318	0.98986
3914.29627	0.98987
3912.23936	0.99008
3910.18246	0.99060
3908.12555	0.99023
3906.06864	0.98936
3904.01173	0.98942
3901.95482	0.99017
3899.89792	0.99060
3897.84101	0.99080
3895.78410	0.99115
3893.72719	0.99141
3891.67028	0.99136
3889.61337	0.99115
3887.55647	0.99085
3885.49956	0.99070
3883.44265	0.99081
3881.38574	0.99113
3879.32883	0.99111
3877.27193	0.99008
3875.21502	0.98884
3873.15811	0.98862
3871.10120	0.98949
3869.04429	0.99035
3866.98738	0.99096
3864.93048	0.99138
3862.87357	0.99125
3860.81666	0.99077
3858.75975	0.99011
3856.70284	0.98943
3854.64594	0.98919
3852.58903	0.98952
3850.53212	0.99013
3848.47521	0.99096
3846.41830	0.99102
3844.36139	0.98999
3842.30449	0.98970
3840.24758	0.99099
3838.19067	0.99165
3836.13376	0.99055
3834.07685	0.98980
3832.01995	0.99037
3829.96304	0.99134
3827.90613	0.99180
3825.84922	0.99114
3823.79231	0.98982
3821.73540	0.98939
3819.67850	0.99003
3817.62159	0.99028
3815.56468	0.99028
3813.50777	0.99041
3811.45086	0.99067
3809.39396	0.99092
3807.33705	0.99068
3805.28014	0.99024
3803.22323	0.98992
3801.16632	0.98940
3799.10941	0.98918
3797.05251	0.98917
3794.99560	0.98892
3792.93869	0.98915
3790.88178	0.99009
3788.82487	0.99081
3786.76796	0.99093
3784.71106	0.99039
3782.65415	0.98947
3780.59724	0.98885
3778.54033	0.98862
3776.48342	0.98927
3774.42652	0.99074
3772.36961	0.99191
3770.31270	0.99238
3768.25579	0.99254
3766.19888	0.99224
3764.14197	0.99131
3762.08507	0.99038
3760.02816	0.98958
3757.97125	0.98904
3755.91434	0.98979
3753.85743	0.99149
3751.80053	0.99255
3749.74362	0.99208
3747.68671	0.99153
3745.62980	0.99098
3743.57289	0.98980
3741.51598	0.98959
3739.45908	0.99041
3737.40217	0.99097
3735.34526	0.99081
3733.28835	0.99104
3731.23144	0.99142
3729.17454	0.99079
3727.11763	0.98961
3725.06072	0.98855
3723.00381	0.98805
3720.94690	0.98848
3718.88999	0.98929
3716.83309	0.98966
3714.77618	0.98959
3712.71927	0.98994
3710.66236	0.99077
3708.60545	0.99027
3706.54855	0.98953
3704.49164	0.98989
3702.43473	0.98999
3700.37782	0.98940
3698.32091	0.98915
3696.26400	0.98915
3694.20710	0.98948
3692.15019	0.98980
3690.09328	0.98919
3688.03637	0.98798
3685.97946	0.98750
3683.92256	0.98787
3681.86565	0.98871
3679.80874	0.98946
3677.75183	0.98993
3675.69492	0.98994
3673.63801	0.98986
3671.58111	0.99040
3669.52420	0.99012
3667.46729	0.98866
3665.41038	0.98816
3663.35347	0.98906
3661.29657	0.99014
3659.23966	0.99057
3657.18275	0.99047
3655.12584	0.98937
3653.06893	0.98763
3651.01202	0.98682
3648.95512	0.98751
3646.89821	0.98828
3644.84130	0.98888
3642.78439	0.98906
3640.72748	0.98840
3638.67058	0.98765
3636.61367	0.98745
3634.55676	0.98756
3632.49985	0.98735
3630.44294	0.98653
3628.38603	0.98641
3626.32913	0.98731
3624.27222	0.98727
3622.21531	0.98650
3620.15840	0.98570
3618.10149	0.98504
3616.04459	0.98478
3613.98768	0.98502
3611.93077	0.98538
3609.87386	0.98538
3607.81695	0.98474
3605.76004	0.98418
3603.70314	0.98447
3601.64623	0.98473
3599.58932	0.98362
3597.53241	0.98230
3595.47550	0.98230
3593.41860	0.98235
3591.36169	0.98208
3589.30478	0.98202
3587.24787	0.98183
3585.19096	0.98156
3583.13405	0.98107
3581.07715	0.98045
3579.02024	0.98046
3576.96333	0.98072
3574.90642	0.98016
3572.84951	0.97870
3570.79261	0.97704
3568.73570	0.97593
3566.67879	0.97517
3564.62188	0.97442
3562.56497	0.97374
3560.50806	0.97317
3558.45116	0.97296
3556.39425	0.97268
3554.33734	0.97189
3552.28043	0.97119
3550.22352	0.97114
3548.16662	0.97083
3546.10971	0.96951
3544.05280	0.96803
3541.99589	0.96734
3539.93898	0.96698
3537.88207	0.96652
3535.82517	0.96612
3533.76826	0.96590
3531.71135	0.96552
3529.65444	0.96421
3527.59753	0.96215
3525.54063	0.96045
3523.48372	0.95952
3521.42681	0.95896
3519.36990	0.95834
3517.31299	0.95774
3515.25608	0.95754
3513.19918	0.95717
3511.14227	0.95612
3509.08536	0.95503
3507.02845	0.95440
3504.97154	0.95417
3502.91464	0.95389
3500.85773	0.95320
3498.80082	0.95218
3496.74391	0.95081
3494.68700	0.94979
3492.63009	0.94946
3490.57319	0.94904
3488.51628	0.94867
3486.45937	0.94880
3484.40246	0.94866
3482.34555	0.94813
3480.28865	0.94775
3478.23174	0.94746
3476.17483	0.94710
3474.11792	0.94670
3472.06101	0.94622
3470.00410	0.94591
3467.94720	0.94597
3465.89029	0.94621
3463.83338	0.94608
3461.77647	0.94557
3459.71956	0.94581
3457.66266	0.94660
3455.60575	0.94677
3453.54884	0.94645
3451.49193	0.94662
3449.43502	0.94756
3447.37811	0.94794
3445.32121	0.94716
3443.26430	0.94666
3441.20739	0.94685
3439.15048	0.94746
3437.09357	0.94837
3435.03667	0.94895
3432.97976	0.94920
3430.92285	0.94979
3428.86594	0.95085
3426.80903	0.95189
3424.75212	0.95235
3422.69522	0.95251
3420.63831	0.95261
3418.58140	0.95236
3416.52449	0.95217
3414.46758	0.95256
3412.41068	0.95310
3410.35377	0.95338
3408.29686	0.95360
3406.23995	0.95414
3404.18304	0.95505
3402.12613	0.95587
3400.06923	0.95625
3398.01232	0.95666
3395.95541	0.95718
3393.89850	0.95711
3391.84159	0.95670
3389.78469	0.95672
3387.72778	0.95715
3385.67087	0.95721
3383.61396	0.95695
3381.55705	0.95721
3379.50014	0.95768
3377.44324	0.95809
3375.38633	0.95881
3373.32942	0.95938
3371.27251	0.95974
3369.21560	0.96038
3367.15870	0.96071
3365.10179	0.96042
3363.04488	0.96007
3360.98797	0.96012
3358.93106	0.96037
3356.87415	0.96050
3354.81725	0.96085
3352.76034	0.96128
3350.70343	0.96110
3348.64652	0.96075
3346.58961	0.96112
3344.53271	0.96197
3342.47580	0.96235
3340.41889	0.96243
3338.36198	0.96296
3336.30507	0.96360
3334.24816	0.96375
3332.19126	0.96359
3330.13435	0.96353
3328.07744	0.96354
3326.02053	0.96397
3323.96362	0.96470
3321.90672	0.96481
3319.84981	0.96459
3317.79290	0.96450
3315.73599	0.96476
3313.67908	0.96519
3311.62217	0.96560
3309.56527	0.96651
3307.50836	0.96762
3305.45145	0.96791
3303.39454	0.96741
3301.33763	0.96704
3299.28073	0.96716
3297.22382	0.96772
3295.16691	0.96836
3293.11000	0.96830
3291.05309	0.96754
3288.99618	0.96710
3286.93928	0.96757
3284.88237	0.96860
3282.82546	0.96917
3280.76855	0.96911
3278.71164	0.96935
3276.65474	0.96969
3274.59783	0.96974
3272.54092	0.96983
3270.48401	0.96989
3268.42710	0.97047
3266.37019	0.97165
3264.31329	0.97224
3262.25638	0.97199
3260.19947	0.97168
3258.14256	0.97154
3256.08565	0.97184
3254.02875	0.97251
3251.97184	0.97285
3249.91493	0.97286
3247.85802	0.97280
3245.80111	0.97266
3243.74420	0.97270
3241.68730	0.97303
3239.63039	0.97325
3237.57348	0.97355
3235.51657	0.97398
3233.45966	0.97402
3231.40276	0.97388
3229.34585	0.97430
3227.28894	0.97484
3225.23203	0.97481
3223.17512	0.97499
3221.11821	0.97536
3219.06131	0.97551
3217.00440	0.97561
3214.94749	0.97540
3212.89058	0.97524
3210.83367	0.97558
3208.77677	0.97601
3206.71986	0.97617
3204.66295	0.97609
3202.60604	0.97599
3200.54913	0.97607
3198.49222	0.97684
3196.43532	0.97793
3194.37841	0.97803
3192.32150	0.97723
3190.26459	0.97647
3188.20768	0.97580
3186.15078	0.97552
3184.09387	0.97625
3182.03696	0.97722
3179.98005	0.97796
3177.92314	0.97882
3175.86623	0.97938
3173.80933	0.97959
3171.75242	0.97976
3169.69551	0.97955
3167.63860	0.97932
3165.58169	0.97968
3163.52479	0.97988
3161.46788	0.97963
3159.41097	0.97982
3157.35406	0.98035
3155.29715	0.98047
3153.24024	0.98040
3151.18334	0.98056
3149.12643	0.98112
3147.06952	0.98175
3145.01261	0.98189
3142.95570	0.98169
3140.89880	0.98145
3138.84189	0.98130
3136.78498	0.98131
3134.72807	0.98138
3132.67116	0.98130
3130.61425	0.98104
3128.55735	0.98087
3126.50044	0.98102
3124.44353	0.98180
3122.38662	0.98264
3120.32971	0.98261
3118.27281	0.98224
3116.21590	0.98236
3114.15899	0.98258
3112.10208	0.98239
3110.04517	0.98214
3107.98826	0.98242
3105.93136	0.98309
3103.87445	0.98359
3101.81754	0.98368
3099.76063	0.98311
3097.70372	0.98222
3095.64682	0.98224
3093.58991	0.98322
3091.53300	0.98394
3089.47609	0.98390
3087.41918	0.98373
3085.36227	0.98379
3083.30537	0.98395
3081.24846	0.98405
3079.19155	0.98392
3077.13464	0.98357
3075.07773	0.98318
3073.02083	0.98304
3070.96392	0.98356
3068.90701	0.98448
3066.85010	0.98482
3064.79319	0.98442
3062.73628	0.98399
3060.67938	0.98383
3058.62247	0.98387
3056.56556	0.98400
3054.50865	0.98399
3052.45174	0.98388
3050.39484	0.98396
3048.33793	0.98429
3046.28102	0.98442
3044.22411	0.98397
3042.16720	0.98373
3040.11029	0.98438
3038.05339	0.98494
3035.99648	0.98451
3033.93957	0.98360
3031.88266	0.98314
3029.82575	0.98337
3027.76885	0.98392
3025.71194	0.98435
3023.65503	0.98429
3021.59812	0.98393
3019.54121	0.98364
3017.48430	0.98311
3015.42740	0.98218
3013.37049	0.98124
3011.31358	0.98096
3009.25667	0.98123
3007.19976	0.98137
3005.14286	0.98127
3003.08595	0.98039
3001.02904	0.97843
2998.97213	0.97661
2996.91522	0.97571
2994.85831	0.97506
2992.80141	0.97380
2990.74450	0.97172
2988.68759	0.96882
2986.63068	0.96497
2984.57377	0.96073
2982.51687	0.95677
2980.45996	0.95264
2978.40305	0.94774
2976.34614	0.94242
2974.28923	0.93739
2972.23232	0.93310
2970.17542	0.92929
2968.11851	0.92609
2966.06160	0.92450
2964.00469	0.92463
2961.94778	0.92598
2959.89088	0.92873
2957.83397	0.93263
2955.77706	0.93642
2953.72015	0.93907
2951.66324	0.94054
2949.60633	0.94129
2947.54943	0.94161
2945.49252	0.94120
2943.43561	0.93980
2941.37870	0.93815
2939.32179	0.93704
2937.26489	0.93676
2935.20798	0.93740
2933.15107	0.93858
2931.09416	0.93960
2929.03725	0.94083
2926.98034	0.94307
2924.92344	0.94569
2922.86653	0.94749
2920.80962	0.94847
2918.75271	0.94931
2916.69580	0.95010
2914.63890	0.95044
2912.58199	0.95057
2910.52508	0.95110
2908.46817	0.95153
2906.41126	0.95162
2904.35435	0.95195
2902.29745	0.95262
2900.24054	0.95336
2898.18363	0.95382
2896.12672	0.95364
2894.06981	0.95296
2892.01291	0.95191
2889.95600	0.95046
2887.89909	0.94846
2885.84218	0.94588
2883.78527	0.94313
2881.72836	0.94056
2879.67146	0.93851
2877.61455	0.93748
2875.55764	0.93795
2873.50073	0.94036
2871.44382	0.94427
2869.38692	0.94855
2867.33001	0.95265
2865.27310	0.95624
2863.21619	0.95896
2861.15928	0.96127
2859.10237	0.96361
2857.04547	0.96571
2854.98856	0.96734
2852.93165	0.96891
2850.87474	0.97056
2848.81783	0.97192
2846.76093	0.97288
2844.70402	0.97350
2842.64711	0.97407
2840.59020	0.97489
2838.53329	0.97547
2836.47638	0.97566
2834.41948	0.97610
2832.36257	0.97671
2830.30566	0.97704
2828.24875	0.97723
2826.19184	0.97735
2824.13494	0.97743
2822.07803	0.97797
2820.02112	0.97874
2817.96421	0.97906
2815.90730	0.97906
2813.85039	0.97909
2811.79349	0.97917
2809.73658	0.97905
2807.67967	0.97897
2805.62276	0.97948
2803.56585	0.98019
2801.50895	0.98037
2799.45204	0.98023
2797.39513	0.98035
2795.33822	0.98063
2793.28131	0.98073
2791.22440	0.98079
2789.16750	0.98100
2787.11059	0.98143
2785.05368	0.98203
2782.99677	0.98236
2780.93986	0.98221
2778.88296	0.98194
2776.82605	0.98172
2774.76914	0.98178
2772.71223	0.98227
2770.65532	0.98249
2768.59841	0.98211
2766.54151	0.98198
2764.48460	0.98242
2762.42769	0.98293
2760.37078	0.98319
2758.31387	0.98316
2756.25697	0.98295
2754.20006	0.98268
2752.14315	0.98256
2750.08624	0.98285
2748.02933	0.98326
2745.97242	0.98343
2743.91552	0.98336
2741.85861	0.98291
2739.80170	0.98230
2737.74479	0.98232
2735.68788	0.98284
2733.63098	0.98296
2731.57407	0.98283
2729.51716	0.98296
2727.46025	0.98319
2725.40334	0.98319
2723.34643	0.98303
2721.28953	0.98295
2719.23262	0.98305
2717.17571	0.98313
2715.11880	0.98316
2713.06189	0.98361
2711.00499	0.98442
2708.94808	0.98480
2706.89117	0.98449
2704.83426	0.98408
2702.77735	0.98405
2700.72044	0.98417
2698.66354	0.98405
2696.60663	0.98386
2694.54972	0.98396
2692.49281	0.98413
2690.43590	0.98436
2688.37900	0.98466
2686.32209	0.98477
2684.26518	0.98469
2682.20827	0.98446
2680.15136	0.98415
2678.09445	0.98389
2676.03755	0.98382
2673.98064	0.98366
2671.92373	0.98356
2669.86682	0.98395
2667.80991	0.98432
2665.75301	0.98437
2663.69610	0.98440
2661.63919	0.98442
2659.58228	0.98429
2657.52537	0.98410
2655.46846	0.98399
2653.41156	0.98400
2651.35465	0.98420
2649.29774	0.98445
2647.24083	0.98454
2645.18392	0.98442
2643.12702	0.98443
2641.07011	0.98466
2639.01320	0.98434
2636.95629	0.98370
2634.89938	0.98389
2632.84247	0.98452
2630.78557	0.98465
2628.72866	0.98463
2626.67175	0.98486
2624.61484	0.98493
2622.55793	0.98462
2620.50103	0.98458
2618.44412	0.98539
2616.38721	0.98613
2614.33030	0.98614
2612.27339	0.98617
2610.21648	0.98640
2608.15958	0.98648
2606.10267	0.98664
2604.04576	0.98662
2601.98885	0.98611
2599.93194	0.98575
2597.87504	0.98566
2595.81813	0.98546
2593.76122	0.98548
2591.70431	0.98609
2589.64740	0.98683
2587.59049	0.98710
2585.53359	0.98701
2583.47668	0.98686
2581.41977	0.98628
2579.36286	0.98545
2577.30595	0.98507
2575.24905	0.98550
2573.19214	0.98644
2571.13523	0.98708
2569.07832	0.98701
2567.02141	0.98636
2564.96450	0.98595
2562.90760	0.98618
2560.85069	0.98630
2558.79378	0.98612
2556.73687	0.98586
2554.67996	0.98555
2552.62306	0.98538
2550.56615	0.98555
2548.50924	0.98618
2546.45233	0.98702
2544.39542	0.98739
2542.33851	0.98685
2540.28161	0.98596
2538.22470	0.98594
2536.16779	0.98673
2534.11088	0.98712
2532.05397	0.98692
2529.99707	0.98704
2527.94016	0.98760
2525.88325	0.98771
2523.82634	0.98774
2521.76943	0.98811
2519.71252	0.98780
2517.65562	0.98730
2515.59871	0.98725
2513.54180	0.98701
2511.48489	0.98697
2509.42798	0.98738
2507.37108	0.98759
2505.31417	0.98775
2503.25726	0.98789
2501.20035	0.98767
2499.14344	0.98759
2497.08653	0.98803
2495.02963	0.98834
2492.97272	0.98793
2490.91581	0.98753
2488.85890	0.98787
2486.80199	0.98803
2484.74509	0.98734
2482.68818	0.98693
2480.63127	0.98756
2478.57436	0.98828
2476.51745	0.98891
2474.46054	0.98946
2472.40364	0.98908
2470.34673	0.98797
2468.28982	0.98719
2466.23291	0.98685
2464.17600	0.98681
2462.11910	0.98677
2460.06219	0.98639
2458.00528	0.98638
2455.94837	0.98694
2453.89146	0.98733
2451.83455	0.98738
2449.77765	0.98723
2447.72074	0.98718
2445.66383	0.98735
2443.60692	0.98753
2441.55001	0.98768
2439.49311	0.98782
2437.43620	0.98802
2435.37929	0.98840
2433.32238	0.98854
2431.26547	0.98810
2429.20856	0.98770
2427.15166	0.98788
2425.09475	0.98780
2423.03784	0.98716
2420.98093	0.98679
2418.92402	0.98661
2416.86712	0.98679
2414.81021	0.98760
2412.75330	0.98841
2410.69639	0.98873
2408.63948	0.98826
2406.58257	0.98771
2404.52567	0.98793
2402.46876	0.98810
2400.41185	0.98796
2398.35494	0.98832
2396.29803	0.98876
2394.24113	0.98866
2392.18422	0.98847
2390.12731	0.98838
2388.07040	0.98830
2386.01349	0.98841
2383.95658	0.98834
2381.89968	0.98779
2379.84277	0.98771
2377.78586	0.98855
2375.72895	0.98917
2373.67204	0.98866
2371.61514	0.98766
2369.55823	0.98744
2367.50132	0.98792
2365.44441	0.98859
2363.38750	0.98953
2361.33059	0.98964
2359.27369	0.98867
2357.21678	0.98793
2355.15987	0.98760
2353.10296	0.98753
2351.04605	0.98726
2348.98915	0.98699
2346.93224	0.98740
2344.87533	0.98835
2342.81842	0.98914
2340.76151	0.98944
2338.70460	0.98908
2336.64770	0.98834
2334.59079	0.98813
2332.53388	0.98824
2330.47697	0.98824
2328.42006	0.98815
2326.36316	0.98700
2324.30625	0.98569
2322.24934	0.98567
2320.19243	0.98593
2318.13552	0.98591
2316.07861	0.98606
2314.02171	0.98642
2311.96480	0.98654
2309.90789	0.98642
2307.85098	0.98672
2305.79407	0.98722
2303.73717	0.98710
2301.68026	0.98659
2299.62335	0.98670
2297.56644	0.98726
2295.50953	0.98737
2293.45262	0.98737
2291.39572	0.98758
2289.33881	0.98740
2287.28190	0.98662
2285.22499	0.98539
2283.16808	0.98480
2281.11117	0.98517
2279.05427	0.98570
2276.99736	0.98632
2274.94045	0.98686
2272.88354	0.98671
2270.82663	0.98612
2268.76973	0.98661
2266.71282	0.98856
2264.65591	0.98976
2262.59900	0.98920
2260.54209	0.98840
2258.48518	0.98778
2256.42828	0.98722
2254.37137	0.98695
2252.31446	0.98609
2250.25755	0.98538
2248.20064	0.98673
2246.14374	0.98888
2244.08683	0.98951
2242.02992	0.98852
2239.97301	0.98723
2237.91610	0.98711
2235.85919	0.98755
2233.80229	0.98729
2231.74538	0.98734
2229.68847	0.98741
2227.63156	0.98673
2225.57465	0.98641
2223.51775	0.98666
2221.46084	0.98655
2219.40393	0.98626
2217.34702	0.98677
2215.29011	0.98767
2213.23320	0.98795
2211.17630	0.98808
2209.11939	0.98804
2207.06248	0.98782
2205.00557	0.98759
2202.94866	0.98660
2200.89176	0.98589
2198.83485	0.98598
2196.77794	0.98589
2194.72103	0.98610
2192.66412	0.98657
2190.60721	0.98655
2188.55031	0.98658
2186.49340	0.98686
2184.43649	0.98743
2182.37958	0.98874
2180.32267	0.98903
2178.26577	0.98763
2176.20886	0.98704
2174.15195	0.98796
2172.09504	0.98768
2170.03813	0.98671
2167.98122	0.98701
2165.92432	0.98585
2163.86741	0.98439
2161.81050	0.98716
2159.75359	0.99210
2157.69668	0.99417
2155.63978	0.99342
2153.58287	0.99231
2151.52596	0.99226
2149.46905	0.99304
2147.41214	0.99223
2145.35523	0.98995
2143.29833	0.98818
2141.24142	0.98764
2139.18451	0.98862
2137.12760	0.99030
2135.07069	0.99188
2133.01379	0.99322
2130.95688	0.99325
2128.89997	0.99204
2126.84306	0.99094
2124.78615	0.99034
2122.72924	0.99047
2120.67234	0.99014
2118.61543	0.98898
2116.55852	0.98889
2114.50161	0.98918
2112.44470	0.98834
2110.38780	0.98730
2108.33089	0.98730
2106.27398	0.98792
2104.21707	0.98780
2102.16016	0.98689
2100.10325	0.98652
2098.04635	0.98707
2095.98944	0.98748
2093.93253	0.98740
2091.87562	0.98729
2089.81871	0.98673
2087.76181	0.98587
2085.70490	0.98621
2083.64799	0.98758
2081.59108	0.98837
2079.53417	0.98808
2077.47726	0.98662
2075.42036	0.98553
2073.36345	0.98624
2071.30654	0.98685
2069.24963	0.98593
2067.19272	0.98517
2065.13582	0.98648
2063.07891	0.98899
2061.02200	0.99011
2058.96509	0.98891
2056.90818	0.98721
2054.85127	0.98683
2052.79437	0.98715
2050.73746	0.98665
2048.68055	0.98561
2046.62364	0.98507
2044.56673	0.98515
2042.50983	0.98565
2040.45292	0.98653
2038.39601	0.98783
2036.33910	0.98827
2034.28219	0.98862
2032.22528	0.99142
2030.16838	0.99410
2028.11147	0.99382
2026.05456	0.99250
2023.99765	0.99180
2021.94074	0.99153
2019.88384	0.99103
2017.82693	0.99046
2015.77002	0.99127
2013.71311	0.99235
2011.65620	0.99138
2009.59929	0.98883
2007.54239	0.98697
2005.48548	0.98720
2003.42857	0.98957
2001.37166	0.99235
1999.31475	0.99246
1997.25785	0.98994
1995.20094	0.98807
1993.14403	0.98894
1991.08712	0.99122
1989.03021	0.99140
1986.97330	0.98913
1984.91640	0.98754
1982.85949	0.98795
1980.80258	0.98897
1978.74567	0.98942
1976.68876	0.98932
1974.63186	0.98927
1972.57495	0.98930
1970.51804	0.98898
1968.46113	0.98944
1966.40422	0.99144
1964.34731	0.99314
1962.29041	0.99339
1960.23350	0.99232
1958.17659	0.99050
1956.11968	0.98935
1954.06277	0.98902
1952.00587	0.98879
1949.94896	0.98908
1947.89205	0.98968
1945.83514	0.98928
1943.77823	0.98861
1941.72132	0.98890
1939.66442	0.98893
1937.60751	0.98870
1935.55060	0.98925
1933.49369	0.98942
1931.43678	0.98934
1929.37988	0.99021
1927.32297	0.99112
1925.26606	0.99104
1923.20915	0.99004
1921.15224	0.98950
1919.09533	0.98959
1917.03843	0.98949
1914.98152	0.98989
1912.92461	0.99030
1910.86770	0.99022
1908.81079	0.99040
1906.75389	0.99060
1904.69698	0.99059
1902.64007	0.99059
1900.58316	0.99012
1898.52625	0.98927
1896.46934	0.98844
1894.41244	0.98797
1892.35553	0.98807
1890.29862	0.98864
1888.24171	0.98951
1886.18480	0.99024
1884.12790	0.99076
1882.07099	0.99082
1880.01408	0.99037
1877.95717	0.99006
1875.90026	0.98989
1873.84335	0.98955
1871.78645	0.98924
1869.72954	0.98870
1867.67263	0.98816
1865.61572	0.98853
1863.55881	0.98920
1861.50191	0.98953
1859.44500	0.98933
1857.38809	0.98884
1855.33118	0.98898
1853.27427	0.98986
1851.21736	0.99021
1849.16046	0.98997
1847.10355	0.98999
1845.04664	0.99019
1842.98973	0.99010
1840.93282	0.98978
1838.87592	0.98965
1836.81901	0.98966
1834.76210	0.98952
1832.70519	0.98908
1830.64828	0.98877
1828.59137	0.98910
1826.53447	0.98953
1824.47756	0.98930
1822.42065	0.98878
1820.36374	0.98833
1818.30683	0.98781
1816.24993	0.98750
1814.19302	0.98735
1812.13611	0.98710
1810.07920	0.98668
1808.02229	0.98633
1805.96538	0.98618
1803.90848	0.98570
1801.85157	0.98445
1799.79466	0.98348
1797.73775	0.98345
1795.68084	0.98349
1793.62394	0.98327
1791.56703	0.98285
1789.51012	0.98228
1787.45321	0.98169
1785.39630	0.98115
1783.33939	0.98052
1781.28249	0.97994
1779.22558	0.97905
1777.16867	0.97760
1775.11176	0.97587
1773.05485	0.97283
1770.99795	0.96723
1768.94104	0.95988
1766.88413	0.95046
1764.82722	0.93954
1762.77031	0.92596
1760.71340	0.90901
1758.65650	0.89308
1756.59959	0.87756
1754.54268	0.86371
1752.48577	0.85218
1750.42886	0.83866
1748.37196	0.82364
1746.31505	0.81129
1744.25814	0.80111
1742.20123	0.79226
1740.14432	0.78455
1738.08741	0.77993
1736.03051	0.77937
1733.97360	0.77929
1731.91669	0.78033
1729.85978	0.78472
1727.80287	0.79105
1725.74597	0.79826
1723.68906	0.80666
1721.63215	0.81588
1719.57524	0.82599
1717.51833	0.83832
1715.46142	0.85184
1713.40452	0.86391
1711.34761	0.87456
1709.29070	0.88415
1707.23379	0.89289
1705.17688	0.90094
1703.11998	0.90714
1701.06307	0.91163
1699.00616	0.91458
1696.94925	0.91584
1694.89234	0.91655
1692.83543	0.91805
1690.77853	0.92046
1688.72162	0.92352
1686.66471	0.92702
1684.60780	0.93163
1682.55089	0.93663
1680.49399	0.94082
1678.43708	0.94482
1676.38017	0.94899
1674.32326	0.95322
1672.26635	0.95639
1670.20944	0.95907
1668.15254	0.96147
1666.09563	0.96281
1664.03872	0.96362
1661.98181	0.96437
1659.92490	0.96496
1657.86800	0.96527
1655.81109	0.96571
1653.75418	0.96633
1651.69727	0.96660
1649.64036	0.96695
1647.58345	0.96722
1645.52655	0.96711
1643.46964	0.96731
1641.41273	0.96780
1639.35582	0.96801
1637.29891	0.96768
1635.24201	0.96712
1633.18510	0.96738
1631.12819	0.96825
1629.07128	0.96910
1627.01437	0.96951
1624.95746	0.96952
1622.90056	0.96934
1620.84365	0.96932
1618.78674	0.96969
1616.72983	0.97029
1614.67292	0.97065
1612.61602	0.97065
1610.55911	0.97038
1608.50220	0.97027
1606.44529	0.97066
1604.38838	0.97115
1602.33147	0.97140
1600.27457	0.97153
1598.21766	0.97166
1596.16075	0.97191
1594.10384	0.97220
1592.04693	0.97241
1589.99003	0.97270
1587.93312	0.97305
1585.87621	0.97337
1583.81930	0.97372
1581.76239	0.97413
1579.70548	0.97471
1577.64858	0.97551
1575.59167	0.97620
1573.53476	0.97672
1571.47785	0.97712
1569.42094	0.97720
1567.36404	0.97736
1565.30713	0.97794
1563.25022	0.97861
1561.19331	0.97898
1559.13640	0.97873
1557.07949	0.97842
1555.02259	0.97870
1552.96568	0.97893
1550.90877	0.97906
1548.85186	0.97922
1546.79495	0.97945
1544.73805	0.97986
1542.68114	0.98033
1540.62423	0.98049
1538.56732	0.97999
1536.51041	0.97938
1534.45350	0.97908
1532.39660	0.97907
1530.33969	0.97909
1528.28278	0.97921
1526.22587	0.97966
1524.16896	0.98032
1522.11206	0.98077
1520.05515	0.98083
1517.99824	0.98065
1515.94133	0.98022
1513.88442	0.97990
1511.82751	0.98008
1509.77061	0.98096
1507.71370	0.98188
1505.65679	0.98071
1503.59988	0.97928
1501.54297	0.97894
1499.48607	0.97892
1497.42916	0.97851
1495.37225	0.97805
1493.31534	0.97806
1491.25843	0.97795
1489.20152	0.97732
1487.14462	0.97639
1485.08771	0.97538
1483.03080	0.97423
1480.97389	0.97268
1478.91698	0.97075
1476.86008	0.96811
1474.80317	0.96360
1472.74626	0.95510
1470.68935	0.94506
1468.63244	0.93836
1466.57553	0.93371
1464.51863	0.92932
1462.46172	0.92600
1460.40481	0.92474
1458.34790	0.92465
1456.29099	0.92531
1454.23409	0.92743
1452.17718	0.93031
1450.12027	0.93330
1448.06336	0.93602
1446.00645	0.93783
1443.94954	0.93876
1441.89264	0.93940
1439.83573	0.94000
1437.77882	0.94026
1435.72191	0.93990
1433.66500	0.93971
1431.60810	0.93940
1429.55119	0.93823
1427.49428	0.93650
1425.43737	0.93401
1423.38046	0.93032
1421.32355	0.92646
1419.26665	0.92263
1417.20974	0.92007
1415.15283	0.92044
1413.09592	0.92263
1411.03901	0.92591
1408.98211	0.92947
1406.92520	0.93242
1404.86829	0.93471
1402.81138	0.93637
1400.75447	0.93701
1398.69756	0.93643
1396.64066	0.93462
1394.58375	0.93060
1392.52684	0.92497
1390.46993	0.91946
1388.41302	0.91297
1386.35612	0.90525
1384.29921	0.89932
1382.24230	0.89620
1380.18539	0.89536
1378.12848	0.89599
1376.07157	0.89656
1374.01467	0.89619
1371.95776	0.89546
1369.90085	0.89520
1367.84394	0.89545
1365.78703	0.89599
1363.73013	0.89642
1361.67322	0.89699
1359.61631	0.89813
1357.55940	0.89950
1355.50249	0.90101
1353.44558	0.90274
1351.38868	0.90431
1349.33177	0.90560
1347.27486	0.90691
1345.21795	0.90863
1343.16104	0.91089
1341.10414	0.91343
1339.04723	0.91584
1336.99032	0.91753
1334.93341	0.91864
1332.87650	0.91927
1330.81959	0.91939
1328.76269	0.91925
1326.70578	0.91879
1324.64887	0.91771
1322.59196	0.91615
1320.53505	0.91411
1318.47815	0.91127
1316.42124	0.90769
1314.36433	0.90357
1312.30742	0.89898
1310.25051	0.89451
1308.19360	0.89094
1306.13670	0.88902
1304.07979	0.88946
1302.02288	0.89218
1299.96597	0.89600
1297.90906	0.89954
1295.85216	0.90177
1293.79525	0.90209
1291.73834	0.90089
1289.68143	0.89908
1287.62452	0.89727
1285.56761	0.89595
1283.51071	0.89572
1281.45380	0.89658
1279.39689	0.89758
1277.33998	0.89769
1275.28307	0.89685
1273.22617	0.89524
1271.16926	0.89286
1269.11235	0.88986
1267.05544	0.88649
1264.99853	0.88281
1262.94162	0.87886
1260.88472	0.87486
1258.82781	0.87094
1256.77090	0.86708
1254.71399	0.86343
1252.65708	0.86074
1250.60018	0.85971
1248.54327	0.86074
1246.48636	0.86406
1244.42945	0.86919
1242.37254	0.87510
1240.31563	0.88091
1238.25873	0.88620
1236.20182	0.89087
1234.14491	0.89477
1232.08800	0.89808
1230.03109	0.90145
1227.97419	0.90506
1225.91728	0.90836
1223.86037	0.91068
1221.80346	0.91190
1219.74655	0.91226
1217.68964	0.91102
1215.63274	0.90729
1213.57583	0.90178
1211.51892	0.89541
1209.46201	0.88809
1207.40510	0.87956
1205.34820	0.87037
1203.29129	0.86129
1201.23438	0.85218
1199.17747	0.84245
1197.12056	0.83228
1195.06365	0.82238
1193.00675	0.81267
1190.94984	0.80303
1188.89293	0.79407
1186.83602	0.78622
1184.77911	0.77925
1182.72221	0.77282
1180.66530	0.76701
1178.60839	0.76182
1176.55148	0.75688
1174.49457	0.75201
1172.43766	0.74762
1170.38076	0.74371
1168.32385	0.74002
1166.26694	0.73665
1164.21003	0.73390
1162.15312	0.73233
1160.09622	0.73224
1158.03931	0.73393
1155.98240	0.73805
1153.92549	0.74453
1151.86858	0.75296
1149.81167	0.76327
1147.75477	0.77470
1145.69786	0.78619
1143.64095	0.79730
1141.58404	0.80720
1139.52713	0.81499
1137.47023	0.82062
1135.41332	0.82424
1133.35641	0.82563
1131.29950	0.82533
1129.24259	0.82425
1127.18568	0.82275
1125.12878	0.82129
1123.07187	0.81999
1121.01496	0.81779
1118.95805	0.81406
1116.90114	0.80935
1114.84424	0.80417
1112.78733	0.79860
1110.73042	0.79253
1108.67351	0.78614
1106.61660	0.78035
1104.55969	0.77569
1102.50279	0.77178
1100.44588	0.76843
1098.38897	0.76560
1096.33206	0.76277
1094.27515	0.75969
1092.21825	0.75642
1090.16134	0.75274
1088.10443	0.74867
1086.04752	0.74404
1083.99061	0.73833
1081.93370	0.73160
1079.87680	0.72446
1077.81989	0.71778
1075.76298	0.71206
1073.70607	0.70737
1071.64916	0.70381
1069.59226	0.70096
1067.53535	0.69832
1065.47844	0.69585
1063.42153	0.69340
1061.36462	0.69096
1059.30771	0.68866
1057.25081	0.68663
1055.19390	0.68484
1053.13699	0.68305
1051.08008	0.68121
1049.02317	0.67967
1046.96627	0.67843
1044.90936	0.67757
1042.85245	0.67739
1040.79554	0.67729
1038.73863	0.67706
1036.68172	0.67731
1034.62482	0.67776
1032.56791	0.67777
1030.51100	0.67765
1028.45409	0.67799
1026.39718	0.67844
1024.34028	0.67881
1022.28337	0.67952
1020.22646	0.68073
1018.16955	0.68248
1016.11264	0.68460
1014.05573	0.68681
1011.99883	0.68944
1009.94192	0.69284
1007.88501	0.69663
1005.82810	0.70018
1003.77119	0.70335
1001.71429	0.70618
999.65738	0.70870
997.60047	0.71108
995.54356	0.71359
993.48665	0.71655
991.42974	0.72021
989.37284	0.72491
987.31593	0.73115
985.25902	0.73961
983.20211	0.75017
981.14520	0.76157
979.08830	0.77283
977.03139	0.78371
974.97448	0.79366
972.91757	0.80256
970.86066	0.81111
968.80375	0.81950
966.74685	0.82729
964.68994	0.83457
962.63303	0.84149
960.57612	0.84776
958.51921	0.85328
956.46231	0.85816
954.40540	0.86225
952.34849	0.86560
950.29158	0.86840
948.23467	0.87030
946.17776	0.87138
944.12086	0.87217
942.06395	0.87259
940.00704	0.87239
937.95013	0.87139
935.89322	0.86967
933.83632	0.86779
931.77941	0.86586
929.72250	0.86383
927.66559	0.86201
925.60868	0.86061
923.55177	0.85973
921.49487	0.85933
919.43796	0.85946
917.38105	0.86070
915.32414	0.86328
913.26723	0.86678
911.21033	0.87060
909.15342	0.87395
907.09651	0.87648
905.03960	0.87837
902.98269	0.87977
900.92578	0.88097
898.86888	0.88209
896.81197	0.88274
894.75506	0.88319
892.69815	0.88422
890.64124	0.88583
888.58434	0.88791
886.52743	0.89045
884.47052	0.89279
882.41361	0.89428
880.35670	0.89491
878.29979	0.89519
876.24289	0.89565
874.18598	0.89646
872.12907	0.89763
870.07216	0.89883
868.01525	0.90015
865.95835	0.90232
863.90144	0.90577
861.84453	0.91051
859.78762	0.91565
857.73071	0.91970
855.67380	0.92232
853.61690	0.92468
851.55999	0.92738
849.50308	0.92962
847.44617	0.93113
845.38926	0.93232
843.33236	0.93317
841.27545	0.93353
839.21854	0.93352
837.16163	0.93371
835.10472	0.93440
833.04781	0.93511
830.99091	0.93548
828.93400	0.93599
826.87709	0.93718
824.82018	0.93830
822.76327	0.93834
820.70637	0.93819
818.64946	0.93881
816.59255	0.93901
814.53564	0.93766
812.47873	0.93548
810.42182	0.93301
808.36492	0.92975
806.30801	0.92571
804.25110	0.92173
802.19419	0.91841
800.13728	0.91614
798.08038	0.91464
796.02347	0.91352
793.96656	0.91367
791.90965	0.91564
789.85274	0.91872
787.79583	0.92235
785.73893	0.92616
783.68202	0.92942
781.62511	0.93164
779.56820	0.93337
777.51129	0.93498
775.45439	0.93584
773.39748	0.93561
771.34057	0.93452
769.28366	0.93289
767.22675	0.93136
765.16984	0.93021
763.11294	0.92838
761.05603	0.92498
758.99912	0.92037
756.94221	0.91514
754.88530	0.90992
752.82839	0.90589
750.77149	0.90423
748.71458	0.90497
746.65767	0.90767
744.60076	0.91179
742.54385	0.91623
740.48695	0.92008
738.43004	0.92299
736.37313	0.92494
734.31622	0.92552
732.25931	0.92493
730.20240	0.92382
728.14550	0.92199
726.08859	0.92010
724.03168	0.91917
721.97477	0.91884
719.91786	0.91829
717.86096	0.91728
715.80405	0.91632
713.74714	0.91623
711.69023	0.91673
709.63332	0.91683
707.57641	0.91661
705.51951	0.91694
703.46260	0.91741
701.40569	0.91716
699.34878	0.91681
697.29187	0.91681
695.23497	0.91652
693.17806	0.91613
691.12115	0.91589
689.06424	0.91487
687.00733	0.91274
684.95042	0.91033
682.89352	0.90784
680.83661	0.90537
678.77970	0.90274
676.72279	0.89957
674.66588	0.89652
672.60898	0.89388
670.55207	0.89172
668.49516	0.89007
666.43825	0.88832
664.38134	0.88700
662.32443	0.88689
660.26753	0.88692
658.21062	0.88572
656.15371	0.88500
654.09680	0.88506
652.03989	0.88452
649.98299	0.88365
647.92608	0.88309
645.86917	0.88320
643.81226	0.88313
641.75535	0.88177
639.69844	0.87995
637.64154	0.87863
635.58463	0.87754
633.52772	0.87681
631.47081	0.87595
629.41390	0.87413
627.35700	0.87226
625.30009	0.87025
623.24318	0.86743
621.18627	0.86496
619.12936	0.86346
617.07245	0.86253
615.01555	0.86168
612.95864	0.86017
610.90173	0.85749
608.84482	0.85440
606.78791	0.85269
604.73101	0.85188
602.67410	0.85024
600.61719	0.84828
598.56028	0.84744
596.50337	0.84792
594.44646	0.84818
592.38956	0.84710
590.33265	0.84603
588.27574	0.84599
586.21883	0.84521
584.16192	0.84260
582.10502	0.84014
580.04811	0.83914
577.99120	0.83847
575.93429	0.83804
573.87738	0.83882
571.82047	0.83960
569.76357	0.83899
567.70666	0.83790
565.64975	0.83709
563.59284	0.83765
561.53593	0.83996
559.47903	0.84127
557.42212	0.84142
555.36521	0.84232
553.30830	0.84273
551.25139	0.84208
549.19448	0.84204
547.13758	0.84293
545.08067	0.84341
543.02376	0.84332
540.96685	0.84356
538.90994	0.84383
536.85304	0.84377
534.79613	0.84383
532.73922	0.84342
530.68231	0.84233
528.62540	0.84144
526.56849	0.84034
524.51159	0.83915
522.45468	0.83886
520.39777	0.83885
518.34086	0.83759
516.28395	0.83577
514.22705	0.83586
512.17014	0.83694
510.11323	0.83708
508.05632	0.83652
505.99941	0.83537
503.94250	0.83360
501.88560	0.83210
499.82869	0.83132
497.77178	0.83139
495.71487	0.83241
493.65796	0.83325
491.60106	0.83266
489.54415	0.83097
487.48724	0.82958
485.43033	0.82883
483.37342	0.82868
481.31651	0.83007
479.25961	0.83110
477.20270	0.82974
475.14579	0.82802
473.08888	0.82754
471.03197	0.82742
468.97507	0.82577
466.91816	0.82281
464.86125	0.82154
462.80434	0.82197
460.74743	0.82193
458.69052	0.82088
456.63362	0.81872
454.57671	0.81684
452.51980	0.81638
450.46289	0.81653
448.40598	0.81640
446.34908	0.81863
444.29217	0.82328
442.23526	0.82399
440.17835	0.82145
438.12144	0.82119
436.06453	0.82337
434.00763	0.82481
431.95072	0.82339
429.89381	0.82272
427.83690	0.82439
425.77999	0.82378
423.72309	0.82139
421.66618	0.82347
419.60927	0.82742
417.55236	0.82407
415.49545	0.82121
413.43854	0.82318
411.38164	0.82633
409.32473	0.82728
407.26782	0.82273
405.21091	0.81714
403.15400	0.81658
401.09710	0.81946
399.04019	0.82315
