3996.57260	0.99372
3994.51569	0.99291
3992.45878	0.99228
3990.40188	0.99253
3988.34497	0.99251
3986.28806	0.99241
3984.23115	0.99284
3982.17424	0.99308
3980.11733	0.99304
3978.06043	0.99334
3976.00352	0.99391
3973.94661	0.99401
3971.88970	0.99350
3969.83279	0.99313
3967.77589	0.99314
3965.71898	0.99299
3963.66207	0.99297
3961.60516	0.99380
3959.54825	0.99440
3957.49134	0.99397
3955.43444	0.99368
3953.37753	0.99410
3951.32062	0.99424
3949.26371	0.99372
3947.20680	0.99343
3945.14990	0.99336
3943.09299	0.99347
3941.03608	0.99419
3938.97917	0.99439
3936.92226	0.99343
3934.86535	0.99255
3932.80845	0.99255
3930.75154	0.99330
3928.69463	0.99402
3926.63772	0.99402
3924.58081	0.99332
3922.52391	0.99250
3920.46700	0.99229
3918.41009	0.99240
3916.35318	0.99268
3914.29627	0.99320
3912.23936	0.99350
3910.18246	0.99332
3908.12555	0.99286
3906.06864	0.99270
3904.01173	0.99256
3901.95482	0.99240
3899.89792	0.99334
3897.84101	0.99416
3895.78410	0.99398
3893.72719	0.99348
3891.67028	0.99304
3889.61337	0.99316
3887.55647	0.99343
3885.49956	0.99341
3883.44265	0.99365
3881.38574	0.99386
3879.32883	0.99380
3877.27193	0.99391
3875.21502	0.99404
3873.15811	0.99417
3871.10120	0.99450
3869.04429	0.99479
3866.98738	0.99497
3864.93048	0.99500
3862.87357	0.99485
3860.81666	0.99470
3858.75975	0.99458
3856.70284	0.99437
3854.64594	0.99361
3852.58903	0.99281
3850.53212	0.99286
3848.47521	0.99331
3846.41830	0.99403
3844.36139	0.99504
3842.30449	0.99610
3840.24758	0.99596
3838.19067	0.99419
3836.13376	0.99300
3834.07685	0.99327
3832.01995	0.99368
3829.96304	0.99400
3827.90613	0.99445
3825.84922	0.99469
3823.79231	0.99461
3821.73540	0.99385
3819.67850	0.99298
3817.62159	0.99349
3815.56468	0.99472
3813.50777	0.99518
3811.45086	0.99489
3809.39396	0.99452
3807.33705	0.99407
3805.28014	0.99383
3803.22323	0.99426
3801.16632	0.99421
3799.10941	0.99334
3797.05251	0.99304
3794.99560	0.99316
3792.93869	0.99327
3790.88178	0.99365
3788.82487	0.99427
3786.76796	0.99464
3784.71106	0.99440
3782.65415	0.99406
3780.59724	0.99392
3778.54033	0.99335
3776.48342	0.99291
3774.42652	0.99333
3772.36961	0.99414
3770.31270	0.99473
3768.25579	0.99504
3766.19888	0.99502
3764.14197	0.99464
3762.08507	0.99431
3760.02816	0.99430
3757.97125	0.99469
3755.91434	0.99473
3753.85743	0.99410
3751.80053	0.99304
3749.74362	0.99224
3747.68671	0.99232
3745.62980	0.99193
3743.57289	0.99103
3741.51598	0.99137
3739.45908	0.99249
3737.40217	0.99322
3735.34526	0.99259
3733.28835	0.99177
3731.23144	0.99180
3729.17454	0.99179
3727.11763	0.99186
3725.06072	0.99216
3723.00381	0.99257
3720.94690	0.99305
3718.88999	0.99331
3716.83309	0.99346
3714.77618	0.99339
3712.71927	0.99326
3710.66236	0.99335
3708.60545	0.99351
3706.54855	0.99376
3704.49164	0.99360
3702.43473	0.99320
3700.37782	0.99351
3698.32091	0.99433
3696.26400	0.99473
3694.20710	0.99423
3692.15019	0.99327
3690.09328	0.99259
3688.03637	0.99265
3685.97946	0.99259
3683.92256	0.99210
3681.86565	0.99228
3679.80874	0.99365
3677.75183	0.99541
3675.69492	0.99588
3673.63801	0.99444
3671.58111	0.99308
3669.52420	0.99159
3667.46729	0.99032
3665.41038	0.99050
3663.35347	0.99178
3661.29657	0.99298
3659.23966	0.99324
3657.18275	0.99260
3655.12584	0.99141
3653.06893	0.99053
3651.01202	0.98986
3648.95512	0.98942
3646.89821	0.98935
3644.84130	0.98909
3642.78439	0.98890
3640.72748	0.98904
3638.67058	0.98928
3636.61367	0.98910
3634.55676	0.98905
3632.49985	0.98974
3630.44294	0.98969
3628.38603	0.98795
3626.32913	0.98718
3624.27222	0.98743
3622.21531	0.98751
3620.15840	0.98749
3618.10149	0.98777
3616.04459	0.98754
3613.98768	0.98669
3611.93077	0.98662
3609.87386	0.98713
3607.81695	0.98716
3605.76004	0.98693
3603.70314	0.98688
3601.64623	0.98677
3599.58932	0.98619
3597.53241	0.98529
3595.47550	0.98451
3593.41860	0.98423
3591.36169	0.98442
3589.30478	0.98434
3587.24787	0.98379
3585.19096	0.98362
3583.13405	0.98389
3581.07715	0.98393
3579.02024	0.98338
3576.96333	0.98281
3574.90642	0.98263
3572.84951	0.98241
3570.79261	0.98253
3568.73570	0.98308
3566.67879	0.98222
3564.62188	0.98041
3562.56497	0.98010
3560.50806	0.98084
3558.45116	0.98087
3556.39425	0.97961
3554.33734	0.97860
3552.28043	0.97826
3550.22352	0.97787
3548.16662	0.97736
3546.10971	0.97633
3544.05280	0.97554
3541.99589	0.97592
3539.93898	0.97610
3537.88207	0.97508
3535.82517	0.97378
3533.76826	0.97312
3531.71135	0.97293
3529.65444	0.97266
3527.59753	0.97204
3525.54063	0.97179
3523.48372	0.97196
3521.42681	0.97147
3519.36990	0.97065
3517.31299	0.97045
3515.25608	0.96995
3513.19918	0.96870
3511.14227	0.96761
3509.08536	0.96718
3507.02845	0.96736
3504.97154	0.96714
3502.91464	0.96597
3500.85773	0.96508
3498.80082	0.96509
3496.74391	0.96516
3494.68700	0.96471
3492.63009	0.96420
3490.57319	0.96371
3488.51628	0.96322
3486.45937	0.96344
3484.40246	0.96418
3482.34555	0.96417
3480.28865	0.96351
3478.23174	0.96349
3476.17483	0.96393
3474.11792	0.96395
3472.06101	0.96347
3470.00410	0.96303
3467.94720	0.96291
3465.89029	0.96304
3463.83338	0.96340
3461.77647	0.96339
3459.71956	0.96305
3457.66266	0.96335
3455.60575	0.96379
3453.54884	0.96341
3451.49193	0.96282
3449.43502	0.96269
3447.37811	0.96305
3445.32121	0.96379
3443.26430	0.96451
3441.20739	0.96511
3439.15048	0.96547
3437.09357	0.96514
3435.03667	0.96480
3432.97976	0.96510
3430.92285	0.96549
3428.86594	0.96561
3426.80903	0.96550
3424.75212	0.96562
3422.69522	0.96623
3420.63831	0.96646
3418.58140	0.96621
3416.52449	0.96640
3414.46758	0.96673
3412.41068	0.96668
3410.35377	0.96665
3408.29686	0.96682
3406.23995	0.96719
3404.18304	0.96777
3402.12613	0.96820
3400.06923	0.96816
3398.01232	0.96780
3395.95541	0.96787
3393.89850	0.96872
3391.84159	0.96942
3389.78469	0.96939
3387.72778	0.96934
3385.67087	0.96965
3383.61396	0.97004
3381.55705	0.97016
3379.50014	0.96965
3377.44324	0.96922
3375.38633	0.96980
3373.32942	0.97062
3371.27251	0.97063
3369.21560	0.97013
3367.15870	0.96989
3365.10179	0.97019
3363.04488	0.97076
3360.98797	0.97125
3358.93106	0.97164
3356.87415	0.97210
3354.81725	0.97247
3352.76034	0.97263
3350.70343	0.97271
3348.64652	0.97282
3346.58961	0.97311
3344.53271	0.97335
3342.47580	0.97339
3340.41889	0.97327
3338.36198	0.97301
3336.30507	0.97304
3334.24816	0.97369
3332.19126	0.97463
3330.13435	0.97509
3328.07744	0.97471
3326.02053	0.97421
3323.96362	0.97449
3321.90672	0.97523
3319.84981	0.97538
3317.79290	0.97507
3315.73599	0.97547
3313.67908	0.97652
3311.62217	0.97719
3309.56527	0.97714
3307.50836	0.97647
3305.45145	0.97581
3303.39454	0.97583
3301.33763	0.97628
3299.28073	0.97676
3297.22382	0.97754
3295.16691	0.97846
3293.11000	0.97882
3291.05309	0.97878
3288.99618	0.97881
3286.93928	0.97880
3284.88237	0.97868
3282.82546	0.97822
3280.76855	0.97752
3278.71164	0.97755
3276.65474	0.97821
3274.59783	0.97861
3272.54092	0.97893
3270.48401	0.97917
3268.42710	0.97904
3266.37019	0.97924
3264.31329	0.97990
3262.25638	0.98023
3260.19947	0.98020
3258.14256	0.98022
3256.08565	0.98054
3254.02875	0.98089
3251.97184	0.98029
3249.91493	0.97956
3247.85802	0.98009
3245.80111	0.98134
3243.74420	0.98218
3241.68730	0.98190
3239.63039	0.98150
3237.57348	0.98197
3235.51657	0.98223
3233.45966	0.98193
3231.40276	0.98182
3229.34585	0.98210
3227.28894	0.98254
3225.23203	0.98294
3223.17512	0.98318
3221.11821	0.98306
3219.06131	0.98292
3217.00440	0.98326
3214.94749	0.98398
3212.89058	0.98453
3210.83367	0.98473
3208.77677	0.98460
3206.71986	0.98414
3204.66295	0.98394
3202.60604	0.98401
3200.54913	0.98404
3198.49222	0.98435
3196.43532	0.98460
3194.37841	0.98414
3192.32150	0.98394
3190.26459	0.98480
3188.20768	0.98582
3186.15078	0.98624
3184.09387	0.98604
3182.03696	0.98593
3179.98005	0.98665
3177.92314	0.98740
3175.86623	0.98731
3173.80933	0.98690
3171.75242	0.98614
3169.69551	0.98523
3167.63860	0.98506
3165.58169	0.98549
3163.52479	0.98603
3161.46788	0.98663
3159.41097	0.98739
3157.35406	0.98787
3155.29715	0.98778
3153.24024	0.98772
3151.18334	0.98780
3149.12643	0.98762
3147.06952	0.98728
3145.01261	0.98725
3142.95570	0.98779
3140.89880	0.98853
3138.84189	0.98855
3136.78498	0.98797
3134.72807	0.98811
3132.67116	0.98882
3130.61425	0.98885
3128.55735	0.98863
3126.50044	0.98890
3124.44353	0.98894
3122.38662	0.98841
3120.32971	0.98805
3118.27281	0.98829
3116.21590	0.98885
3114.15899	0.98902
3112.10208	0.98871
3110.04517	0.98864
3107.98826	0.98912
3105.93136	0.98980
3103.87445	0.99020
3101.81754	0.99005
3099.76063	0.98937
3097.70372	0.98861
3095.64682	0.98872
3093.58991	0.98984
3091.53300	0.99069
3089.47609	0.99065
3087.41918	0.99003
3085.36227	0.98955
3083.30537	0.98978
3081.24846	0.99049
3079.19155	0.99095
3077.13464	0.99047
3075.07773	0.98964
3073.02083	0.98975
3070.96392	0.99041
3068.90701	0.99050
3066.85010	0.99034
3064.79319	0.99042
3062.73628	0.99037
3060.67938	0.99028
3058.62247	0.99035
3056.56556	0.99018
3054.50865	0.98996
3052.45174	0.98996
3050.39484	0.99001
3048.33793	0.99017
3046.28102	0.99037
3044.22411	0.99037
3042.16720	0.99026
3040.11029	0.99037
3038.05339	0.99061
3035.99648	0.99056
3033.93957	0.99047
3031.88266	0.99054
3029.82575	0.99059
3027.76885	0.99060
3025.71194	0.99032
3023.65503	0.98983
3021.59812	0.98966
3019.54121	0.98981
3017.48430	0.98995
3015.42740	0.99002
3013.37049	0.99001
3011.31358	0.98971
3009.25667	0.98913
3007.19976	0.98843
3005.14286	0.98771
3003.08595	0.98722
3001.02904	0.98696
2998.97213	0.98674
2996.91522	0.98637
2994.85831	0.98559
2992.80141	0.98440
2990.74450	0.98346
2988.68759	0.98281
2986.63068	0.98165
2984.57377	0.98019
2982.51687	0.97888
2980.45996	0.97724
2978.40305	0.97509
2976.34614	0.97242
2974.28923	0.96903
2972.23232	0.96539
2970.17542	0.96150
2968.11851	0.95669
2966.06160	0.95138
2964.00469	0.94656
2961.94778	0.94280
2959.89088	0.94025
2957.83397	0.93866
2955.77706	0.93791
2953.72015	0.93838
2951.66324	0.94005
2949.60633	0.94192
2947.54943	0.94309
2945.49252	0.94336
2943.43561	0.94290
2941.37870	0.94150
2939.32179	0.93858
2937.26489	0.93485
2935.20798	0.93142
2933.15107	0.92827
2931.09416	0.92554
2929.03725	0.92364
2926.98034	0.92246
2924.92344	0.92167
2922.86653	0.92154
2920.80962	0.92216
2918.75271	0.92343
2916.69580	0.92580
2914.63890	0.92961
2912.58199	0.93424
2910.52508	0.93836
2908.46817	0.94133
2906.41126	0.94355
2904.35435	0.94557
2902.29745	0.94729
2900.24054	0.94866
2898.18363	0.95006
2896.12672	0.95146
2894.06981	0.95283
2892.01291	0.95435
2889.95600	0.95575
2887.89909	0.95673
2885.84218	0.95726
2883.78527	0.95702
2881.72836	0.95569
2879.67146	0.95380
2877.61455	0.95170
2875.55764	0.94930
2873.50073	0.94719
2871.44382	0.94601
2869.38692	0.94590
2867.33001	0.94639
2865.27310	0.94670
2863.21619	0.94648
2861.15928	0.94576
2859.10237	0.94502
2857.04547	0.94455
2854.98856	0.94443
2852.93165	0.94503
2850.87474	0.94664
2848.81783	0.94999
2846.76093	0.95570
2844.70402	0.96229
2842.64711	0.96786
2840.59020	0.97200
2838.53329	0.97483
2836.47638	0.97677
2834.41948	0.97841
2832.36257	0.97972
2830.30566	0.98048
2828.24875	0.98125
2826.19184	0.98246
2824.13494	0.98341
2822.07803	0.98367
2820.02112	0.98386
2817.96421	0.98444
2815.90730	0.98491
2813.85039	0.98527
2811.79349	0.98595
2809.73658	0.98645
2807.67967	0.98661
2805.62276	0.98691
2803.56585	0.98724
2801.50895	0.98740
2799.45204	0.98757
2797.39513	0.98765
2795.33822	0.98734
2793.28131	0.98720
2791.22440	0.98755
2789.16750	0.98776
2787.11059	0.98758
2785.05368	0.98758
2782.99677	0.98833
2780.93986	0.98910
2778.88296	0.98918
2776.82605	0.98890
2774.76914	0.98863
2772.71223	0.98851
2770.65532	0.98843
2768.59841	0.98850
2766.54151	0.98882
2764.48460	0.98910
2762.42769	0.98921
2760.37078	0.98939
2758.31387	0.98960
2756.25697	0.98941
2754.20006	0.98897
2752.14315	0.98885
2750.08624	0.98911
2748.02933	0.98919
2745.97242	0.98908
2743.91552	0.98926
2741.85861	0.98940
2739.80170	0.98940
2737.74479	0.98962
2735.68788	0.98978
2733.63098	0.98952
2731.57407	0.98931
2729.51716	0.98929
2727.46025	0.98888
2725.40334	0.98839
2723.34643	0.98851
2721.28953	0.98896
2719.23262	0.98915
2717.17571	0.98910
2715.11880	0.98914
2713.06189	0.98936
2711.00499	0.98964
2708.94808	0.98994
2706.89117	0.99002
2704.83426	0.98976
2702.77735	0.98941
2700.72044	0.98937
2698.66354	0.98966
2696.60663	0.99002
2694.54972	0.99045
2692.49281	0.99086
2690.43590	0.99096
2688.37900	0.99062
2686.32209	0.99006
2684.26518	0.98975
2682.20827	0.98987
2680.15136	0.99021
2678.09445	0.99051
2676.03755	0.99063
2673.98064	0.99057
2671.92373	0.99057
2669.86682	0.99081
2667.80991	0.99093
2665.75301	0.99066
2663.69610	0.99040
2661.63919	0.99043
2659.58228	0.99053
2657.52537	0.99045
2655.46846	0.99016
2653.41156	0.98984
2651.35465	0.98976
2649.29774	0.99000
2647.24083	0.99035
2645.18392	0.99056
2643.12702	0.99040
2641.07011	0.99008
2639.01320	0.99001
2636.95629	0.98975
2634.89938	0.98900
2632.84247	0.98879
2630.78557	0.98962
2628.72866	0.99046
2626.67175	0.99068
2624.61484	0.99066
2622.55793	0.99065
2620.50103	0.99045
2618.44412	0.99005
2616.38721	0.99003
2614.33030	0.99056
2612.27339	0.99104
2610.21648	0.99114
2608.15958	0.99109
2606.10267	0.99084
2604.04576	0.99057
2601.98885	0.99100
2599.93194	0.99168
2597.87504	0.99206
2595.81813	0.99208
2593.76122	0.99135
2591.70431	0.99058
2589.64740	0.99050
2587.59049	0.99074
2585.53359	0.99107
2583.47668	0.99134
2581.41977	0.99159
2579.36286	0.99194
2577.30595	0.99215
2575.24905	0.99228
2573.19214	0.99263
2571.13523	0.99267
2569.07832	0.99201
2567.02141	0.99159
2564.96450	0.99194
2562.90760	0.99207
2560.85069	0.99156
2558.79378	0.99123
2556.73687	0.99153
2554.67996	0.99182
2552.62306	0.99198
2550.56615	0.99227
2548.50924	0.99243
2546.45233	0.99258
2544.39542	0.99301
2542.33851	0.99336
2540.28161	0.99302
2538.22470	0.99195
2536.16779	0.99131
2534.11088	0.99159
2532.05397	0.99208
2529.99707	0.99237
2527.94016	0.99240
2525.88325	0.99188
2523.82634	0.99134
2521.76943	0.99163
2519.71252	0.99241
2517.65562	0.99290
2515.59871	0.99325
2513.54180	0.99340
2511.48489	0.99288
2509.42798	0.99278
2507.37108	0.99372
2505.31417	0.99427
2503.25726	0.99385
2501.20035	0.99342
2499.14344	0.99352
2497.08653	0.99361
2495.02963	0.99333
2492.97272	0.99294
2490.91581	0.99281
2488.85890	0.99298
2486.80199	0.99277
2484.74509	0.99223
2482.68818	0.99236
2480.63127	0.99337
2478.57436	0.99409
2476.51745	0.99396
2474.46054	0.99346
2472.40364	0.99287
2470.34673	0.99264
2468.28982	0.99278
2466.23291	0.99273
2464.17600	0.99267
2462.11910	0.99300
2460.06219	0.99350
2458.00528	0.99383
2455.94837	0.99370
2453.89146	0.99287
2451.83455	0.99223
2449.77765	0.99264
2447.72074	0.99302
2445.66383	0.99263
2443.60692	0.99213
2441.55001	0.99198
2439.49311	0.99228
2437.43620	0.99278
2435.37929	0.99301
2433.32238	0.99283
2431.26547	0.99256
2429.20856	0.99236
2427.15166	0.99228
2425.09475	0.99267
2423.03784	0.99317
2420.98093	0.99325
2418.92402	0.99304
2416.86712	0.99292
2414.81021	0.99291
2412.75330	0.99285
2410.69639	0.99320
2408.63948	0.99410
2406.58257	0.99448
2404.52567	0.99389
2402.46876	0.99321
2400.41185	0.99280
2398.35494	0.99267
2396.29803	0.99307
2394.24113	0.99383
2392.18422	0.99413
2390.12731	0.99372
2388.07040	0.99360
2386.01349	0.99390
2383.95658	0.99380
2381.89968	0.99349
2379.84277	0.99337
2377.78586	0.99311
2375.72895	0.99292
2373.67204	0.99344
2371.61514	0.99410
2369.55823	0.99415
2367.50132	0.99327
2365.44441	0.99207
2363.38750	0.99163
2361.33059	0.99138
2359.27369	0.99085
2357.21678	0.99069
2355.15987	0.99148
2353.10296	0.99282
2351.04605	0.99337
2348.98915	0.99311
2346.93224	0.99303
2344.87533	0.99350
2342.81842	0.99400
2340.76151	0.99388
2338.70460	0.99329
2336.64770	0.99293
2334.59079	0.99328
2332.53388	0.99404
2330.47697	0.99402
2328.42006	0.99301
2326.36316	0.99181
2324.30625	0.99094
2322.24934	0.99096
2320.19243	0.99140
2318.13552	0.99138
2316.07861	0.99125
2314.02171	0.99160
2311.96480	0.99196
2309.90789	0.99179
2307.85098	0.99177
2305.79407	0.99193
2303.73717	0.99184
2301.68026	0.99185
2299.62335	0.99192
2297.56644	0.99195
2295.50953	0.99210
2293.45262	0.99179
2291.39572	0.99085
2289.33881	0.99038
2287.28190	0.99046
2285.22499	0.99117
2283.16808	0.99203
2281.11117	0.99142
2279.05427	0.99048
2276.99736	0.99115
2274.94045	0.99251
2272.88354	0.99353
2270.82663	0.99397
2268.76973	0.99345
2266.71282	0.99257
2264.65591	0.99234
2262.59900	0.99282
2260.54209	0.99306
2258.48518	0.99266
2256.42828	0.99301
2254.37137	0.99427
2252.31446	0.99428
2250.25755	0.99225
2248.20064	0.99005
2246.14374	0.98952
2244.08683	0.99032
2242.02992	0.99124
2239.97301	0.99180
2237.91610	0.99148
2235.85919	0.99102
2233.80229	0.99215
2231.74538	0.99357
2229.68847	0.99337
2227.63156	0.99305
2225.57465	0.99353
2223.51775	0.99418
2221.46084	0.99462
2219.40393	0.99424
2217.34702	0.99387
2215.29011	0.99375
2213.23320	0.99396
2211.17630	0.99480
2209.11939	0.99378
2207.06248	0.99101
2205.00557	0.98982
2202.94866	0.99010
2200.89176	0.99083
2198.83485	0.99207
2196.77794	0.99212
2194.72103	0.99172
2192.66412	0.99382
2190.60721	0.99624
2188.55031	0.99588
2186.49340	0.99381
2184.43649	0.99282
2182.37958	0.99419
2180.32267	0.99521
2178.26577	0.99450
2176.20886	0.99394
2174.15195	0.99467
2172.09504	0.99603
2170.03813	0.99636
2167.98122	0.99481
2165.92432	0.99190
2163.86741	0.99047
2161.81050	0.99218
2159.75359	0.99516
2157.69668	0.99805
2155.63978	0.99860
2153.58287	0.99557
2151.52596	0.99404
2149.46905	0.99678
2147.41214	0.99879
2145.35523	0.99722
2143.29833	0.99471
2141.24142	0.99345
2139.18451	0.99367
2137.12760	0.99435
2135.07069	0.99481
2133.01379	0.99508
2130.95688	0.99453
2128.89997	0.99387
2126.84306	0.99424
2124.78615	0.99398
2122.72924	0.99232
2120.67234	0.99182
2118.61543	0.99265
2116.55852	0.99265
2114.50161	0.99237
2112.44470	0.99259
2110.38780	0.99278
2108.33089	0.99300
2106.27398	0.99296
2104.21707	0.99255
2102.16016	0.99221
2100.10325	0.99215
2098.04635	0.99276
2095.98944	0.99351
2093.93253	0.99366
2091.87562	0.99305
2089.81871	0.99192
2087.76181	0.99145
2085.70490	0.99169
2083.64799	0.99206
2081.59108	0.99270
2079.53417	0.99300
2077.47726	0.99298
2075.42036	0.99323
2073.36345	0.99272
2071.30654	0.99167
2069.24963	0.99217
2067.19272	0.99330
2065.13582	0.99314
2063.07891	0.99296
2061.02200	0.99375
2058.96509	0.99448
2056.90818	0.99514
2054.85127	0.99549
2052.79437	0.99400
2050.73746	0.99190
2048.68055	0.99200
2046.62364	0.99265
2044.56673	0.99188
2042.50983	0.99213
2040.45292	0.99393
2038.39601	0.99556
2036.33910	0.99577
2034.28219	0.99437
2032.22528	0.99372
2030.16838	0.99414
2028.11147	0.99340
2026.05456	0.99168
2023.99765	0.99109
2021.94074	0.99206
2019.88384	0.99294
2017.82693	0.99297
2015.77002	0.99232
2013.71311	0.99112
2011.65620	0.99049
2009.59929	0.99086
2007.54239	0.99187
2005.48548	0.99303
2003.42857	0.99415
2001.37166	0.99605
1999.31475	0.99751
1997.25785	0.99727
1995.20094	0.99730
1993.14403	0.99782
1991.08712	0.99772
1989.03021	0.99724
1986.97330	0.99563
1984.91640	0.99273
1982.85949	0.99076
1980.80258	0.99089
1978.74567	0.99291
1976.68876	0.99634
1974.63186	0.99864
1972.57495	0.99821
1970.51804	0.99658
1968.46113	0.99579
1966.40422	0.99612
1964.34731	0.99639
1962.29041	0.99660
1960.23350	0.99573
1958.17659	0.99357
1956.11968	0.99330
1954.06277	0.99467
1952.00587	0.99487
1949.94896	0.99390
1947.89205	0.99315
1945.83514	0.99414
1943.77823	0.99600
1941.72132	0.99609
1939.66442	0.99514
1937.60751	0.99488
1935.55060	0.99497
1933.49369	0.99496
1931.43678	0.99469
1929.37988	0.99424
1927.32297	0.99419
1925.26606	0.99471
1923.20915	0.99540
1921.15224	0.99534
1919.09533	0.99414
1917.03843	0.99340
1914.98152	0.99387
1912.92461	0.99447
1910.86770	0.99479
1908.81079	0.99456
1906.75389	0.99457
1904.69698	0.99555
1902.64007	0.99603
1900.58316	0.99533
1898.52625	0.99418
1896.46934	0.99294
1894.41244	0.99250
1892.35553	0.99338
1890.29862	0.99432
1888.24171	0.99426
1886.18480	0.99376
1884.12790	0.99344
1882.07099	0.99324
1880.01408	0.99350
1877.95717	0.99454
1875.90026	0.99565
1873.84335	0.99590
1871.78645	0.99537
1869.72954	0.99484
1867.67263	0.99469
1865.61572	0.99444
1863.55881	0.99413
1861.50191	0.99411
1859.44500	0.99451
1857.38809	0.99484
1855.33118	0.99449
1853.27427	0.99407
1851.21736	0.99400
1849.16046	0.99391
1847.10355	0.99381
1845.04664	0.99376
1842.98973	0.99391
1840.93282	0.99417
1838.87592	0.99431
1836.81901	0.99436
1834.76210	0.99418
1832.70519	0.99397
1830.64828	0.99377
1828.59137	0.99310
1826.53447	0.99248
1824.47756	0.99235
1822.42065	0.99259
1820.36374	0.99297
1818.30683	0.99342
1816.24993	0.99372
1814.19302	0.99338
1812.13611	0.99256
1810.07920	0.99212
1808.02229	0.99231
1805.96538	0.99232
1803.90848	0.99205
1801.85157	0.99185
1799.79466	0.99143
1797.73775	0.99072
1795.68084	0.99041
1793.62394	0.99059
1791.56703	0.99061
1789.51012	0.99038
1787.45321	0.99028
1785.39630	0.98992
1783.33939	0.98879
1781.28249	0.98751
1779.22558	0.98655
1777.16867	0.98576
1775.11176	0.98496
1773.05485	0.98308
1770.99795	0.97921
1768.94104	0.97456
1766.88413	0.96921
1764.82722	0.96322
1762.77031	0.95563
1760.71340	0.94652
1758.65650	0.93880
1756.59959	0.93116
1754.54268	0.92393
1752.48577	0.91759
1750.42886	0.90988
1748.37196	0.90136
1746.31505	0.89455
1744.25814	0.88944
1742.20123	0.88527
1740.14432	0.88142
1738.08741	0.87934
1736.03051	0.87981
1733.97360	0.88010
1731.91669	0.87980
1729.85978	0.88091
1727.80287	0.88309
1725.74597	0.88601
1723.68906	0.88963
1721.63215	0.89395
1719.57524	0.89918
1717.51833	0.90568
1715.46142	0.91308
1713.40452	0.92032
1711.34761	0.92721
1709.29070	0.93389
1707.23379	0.94064
1705.17688	0.94752
1703.11998	0.95315
1701.06307	0.95788
1699.00616	0.96240
1696.94925	0.96607
1694.89234	0.96944
1692.83543	0.97186
1690.77853	0.97350
1688.72162	0.97503
1686.66471	0.97664
1684.60780	0.97827
1682.55089	0.97926
1680.49399	0.97980
1678.43708	0.98039
1676.38017	0.98089
1674.32326	0.98116
1672.26635	0.98145
1670.20944	0.98155
1668.15254	0.98135
1666.09563	0.98137
1664.03872	0.98156
1661.98181	0.98171
1659.92490	0.98172
1657.86800	0.98158
1655.81109	0.98117
1653.75418	0.98026
1651.69727	0.97995
1649.64036	0.98066
1647.58345	0.98112
1645.52655	0.98068
1643.46964	0.98020
1641.41273	0.98011
1639.35582	0.98018
1637.29891	0.98019
1635.24201	0.97991
1633.18510	0.97990
1631.12819	0.98028
1629.07128	0.98064
1627.01437	0.98104
1624.95746	0.98136
1622.90056	0.98138
1620.84365	0.98143
1618.78674	0.98188
1616.72983	0.98291
1614.67292	0.98375
1612.61602	0.98392
1610.55911	0.98405
1608.50220	0.98427
1606.44529	0.98439
1604.38838	0.98475
1602.33147	0.98548
1600.27457	0.98613
1598.21766	0.98653
1596.16075	0.98683
1594.10384	0.98706
1592.04693	0.98714
1589.99003	0.98706
1587.93312	0.98706
1585.87621	0.98727
1583.81930	0.98747
1581.76239	0.98771
1579.70548	0.98805
1577.64858	0.98815
1575.59167	0.98796
1573.53476	0.98807
1571.47785	0.98830
1569.42094	0.98829
1567.36404	0.98826
1565.30713	0.98843
1563.25022	0.98868
1561.19331	0.98900
1559.13640	0.98909
1557.07949	0.98861
1555.02259	0.98839
1552.96568	0.98847
1550.90877	0.98878
1548.85186	0.98908
1546.79495	0.98914
1544.73805	0.98905
1542.68114	0.98892
1540.62423	0.98845
1538.56732	0.98809
1536.51041	0.98840
1534.45350	0.98882
1532.39660	0.98897
1530.33969	0.98884
1528.28278	0.98868
1526.22587	0.98849
1524.16896	0.98824
1522.11206	0.98785
1520.05515	0.98750
1517.99824	0.98742
1515.94133	0.98745
1513.88442	0.98758
1511.82751	0.98768
1509.77061	0.98777
1507.71370	0.98791
1505.65679	0.98803
1503.59988	0.98823
1501.54297	0.98833
1499.48607	0.98821
1497.42916	0.98797
1495.37225	0.98759
1493.31534	0.98732
1491.25843	0.98719
1489.20152	0.98672
1487.14462	0.98595
1485.08771	0.98534
1483.03080	0.98466
1480.97389	0.98362
1478.91698	0.98221
1476.86008	0.97995
1474.80317	0.97574
1472.74626	0.96805
1470.68935	0.96003
1468.63244	0.95544
1466.57553	0.95255
1464.51863	0.95033
1462.46172	0.94939
1460.40481	0.94978
1458.34790	0.95080
1456.29099	0.95177
1454.23409	0.95298
1452.17718	0.95468
1450.12027	0.95638
1448.06336	0.95787
1446.00645	0.95936
1443.94954	0.96072
1441.89264	0.96156
1439.83573	0.96198
1437.77882	0.96232
1435.72191	0.96262
1433.66500	0.96298
1431.60810	0.96323
1429.55119	0.96286
1427.49428	0.96185
1425.43737	0.96048
1423.38046	0.95885
1421.32355	0.95724
1419.26665	0.95488
1417.20974	0.95248
1415.15283	0.95232
1413.09592	0.95367
1411.03901	0.95555
1408.98211	0.95742
1406.92520	0.95906
1404.86829	0.96052
1402.81138	0.96175
1400.75447	0.96255
1398.69756	0.96276
1396.64066	0.96219
1394.58375	0.96069
1392.52684	0.95870
1390.46993	0.95660
1388.41302	0.95347
1386.35612	0.94886
1384.29921	0.94440
1382.24230	0.94068
1380.18539	0.93756
1378.12848	0.93586
1376.07157	0.93594
1374.01467	0.93705
1371.95776	0.93841
1369.90085	0.93974
1367.84394	0.94087
1365.78703	0.94179
1363.73013	0.94258
1361.67322	0.94329
1359.61631	0.94398
1357.55940	0.94477
1355.50249	0.94569
1353.44558	0.94674
1351.38868	0.94772
1349.33177	0.94844
1347.27486	0.94880
1345.21795	0.94888
1343.16104	0.94899
1341.10414	0.94938
1339.04723	0.95016
1336.99032	0.95090
1334.93341	0.95103
1332.87650	0.95063
1330.81959	0.95002
1328.76269	0.94923
1326.70578	0.94796
1324.64887	0.94634
1322.59196	0.94456
1320.53505	0.94258
1318.47815	0.94074
1316.42124	0.93985
1314.36433	0.94010
1312.30742	0.94096
1310.25051	0.94189
1308.19360	0.94274
1306.13670	0.94368
1304.07979	0.94471
1302.02288	0.94537
1299.96597	0.94510
1297.90906	0.94410
1295.85216	0.94323
1293.79525	0.94282
1291.73834	0.94277
1289.68143	0.94325
1287.62452	0.94406
1285.56761	0.94486
1283.51071	0.94551
1281.45380	0.94577
1279.39689	0.94540
1277.33998	0.94463
1275.28307	0.94389
1273.22617	0.94352
1271.16926	0.94369
1269.11235	0.94420
1267.05544	0.94437
1264.99853	0.94389
1262.94162	0.94305
1260.88472	0.94178
1258.82781	0.93975
1256.77090	0.93683
1254.71399	0.93287
1252.65708	0.92794
1250.60018	0.92276
1248.54327	0.91831
1246.48636	0.91521
1244.42945	0.91366
1242.37254	0.91356
1240.31563	0.91462
1238.25873	0.91627
1236.20182	0.91779
1234.14491	0.91891
1232.08800	0.91965
1230.03109	0.92014
1227.97419	0.92082
1225.91728	0.92195
1223.86037	0.92324
1221.80346	0.92449
1219.74655	0.92554
1217.68964	0.92620
1215.63274	0.92619
1213.57583	0.92559
1211.51892	0.92486
1209.46201	0.92441
1207.40510	0.92436
1205.34820	0.92480
1203.29129	0.92591
1201.23438	0.92725
1199.17747	0.92782
1197.12056	0.92724
1195.06365	0.92538
1193.00675	0.92195
1190.94984	0.91728
1188.89293	0.91210
1186.83602	0.90659
1184.77911	0.90075
1182.72221	0.89491
1180.66530	0.88929
1178.60839	0.88376
1176.55148	0.87830
1174.49457	0.87307
1172.43766	0.86811
1170.38076	0.86353
1168.32385	0.85919
1166.26694	0.85467
1164.21003	0.85037
1162.15312	0.84724
1160.09622	0.84517
1158.03931	0.84402
1155.98240	0.84469
1153.92549	0.84763
1151.86858	0.85242
1149.81167	0.85863
1147.75477	0.86575
1145.69786	0.87335
1143.64095	0.88111
1141.58404	0.88812
1139.52713	0.89392
1137.47023	0.89841
1135.41332	0.90111
1133.35641	0.90225
1131.29950	0.90252
1129.24259	0.90220
1127.18568	0.90107
1125.12878	0.89868
1123.07187	0.89503
1121.01496	0.89032
1118.95805	0.88483
1116.90114	0.87911
1114.84424	0.87398
1112.78733	0.86998
1110.73042	0.86697
1108.67351	0.86474
1106.61660	0.86312
1104.55969	0.86166
1102.50279	0.86015
1100.44588	0.85874
1098.38897	0.85764
1096.33206	0.85708
1094.27515	0.85687
1092.21825	0.85679
1090.16134	0.85691
1088.10443	0.85691
1086.04752	0.85614
1083.99061	0.85424
1081.93370	0.85140
1079.87680	0.84785
1077.81989	0.84378
1075.76298	0.83985
1073.70607	0.83615
1071.64916	0.83266
1069.59226	0.82979
1067.53535	0.82709
1065.47844	0.82455
1063.42153	0.82275
1061.36462	0.82140
1059.30771	0.82012
1057.25081	0.81917
1055.19390	0.81884
1053.13699	0.81888
1051.08008	0.81908
1049.02317	0.81959
1046.96627	0.82019
1044.90936	0.82041
1042.85245	0.82025
1040.79554	0.81984
1038.73863	0.81903
1036.68172	0.81789
1034.62482	0.81712
1032.56791	0.81698
1030.51100	0.81695
1028.45409	0.81705
1026.39718	0.81766
1024.34028	0.81903
1022.28337	0.82092
1020.22646	0.82294
1018.16955	0.82512
1016.11264	0.82744
1014.05573	0.82983
1011.99883	0.83233
1009.94192	0.83515
1007.88501	0.83858
1005.82810	0.84257
1003.77119	0.84681
1001.71429	0.85097
999.65738	0.85493
997.60047	0.85898
995.54356	0.86368
993.48665	0.86894
991.42974	0.87422
989.37284	0.87950
987.31593	0.88477
985.25902	0.88995
983.20211	0.89478
981.14520	0.89869
979.08830	0.90177
977.03139	0.90473
974.97448	0.90802
972.91757	0.91157
970.86066	0.91511
968.80375	0.91852
966.74685	0.92191
964.68994	0.92503
962.63303	0.92787
960.57612	0.93077
958.51921	0.93353
956.46231	0.93603
954.40540	0.93833
952.34849	0.94015
950.29158	0.94137
948.23467	0.94213
946.17776	0.94269
944.12086	0.94335
942.06395	0.94403
940.00704	0.94431
937.95013	0.94399
935.89322	0.94352
933.83632	0.94328
931.77941	0.94325
929.72250	0.94301
927.66559	0.94214
925.60868	0.94140
923.55177	0.94142
921.49487	0.94160
919.43796	0.94142
917.38105	0.94116
915.32414	0.94132
913.26723	0.94190
911.21033	0.94236
909.15342	0.94239
907.09651	0.94259
905.03960	0.94329
902.98269	0.94388
900.92578	0.94395
898.86888	0.94389
896.81197	0.94423
894.75506	0.94484
892.69815	0.94494
890.64124	0.94458
888.58434	0.94446
886.52743	0.94459
884.47052	0.94522
882.41361	0.94686
880.35670	0.94910
878.29979	0.95118
876.24289	0.95300
874.18598	0.95484
872.12907	0.95682
870.07216	0.95901
868.01525	0.96114
865.95835	0.96242
863.90144	0.96281
861.84453	0.96324
859.78762	0.96391
857.73071	0.96412
855.67380	0.96355
853.61690	0.96271
851.55999	0.96234
849.50308	0.96242
847.44617	0.96279
845.38926	0.96379
843.33236	0.96495
841.27545	0.96549
839.21854	0.96616
837.16163	0.96734
835.10472	0.96822
833.04781	0.96870
830.99091	0.96905
828.93400	0.96864
826.87709	0.96751
824.82018	0.96691
822.76327	0.96709
820.70637	0.96710
818.64946	0.96661
816.59255	0.96610
814.53564	0.96572
812.47873	0.96497
810.42182	0.96370
808.36492	0.96241
806.30801	0.96174
804.25110	0.96158
802.19419	0.96127
800.13728	0.96055
798.08038	0.96005
796.02347	0.96030
793.96656	0.96136
791.90965	0.96261
789.85274	0.96316
787.79583	0.96314
785.73893	0.96348
783.68202	0.96427
781.62511	0.96482
779.56820	0.96498
777.51129	0.96521
775.45439	0.96534
773.39748	0.96507
771.34057	0.96466
769.28366	0.96431
767.22675	0.96405
765.16984	0.96405
763.11294	0.96400
761.05603	0.96368
758.99912	0.96350
756.94221	0.96357
754.88530	0.96348
752.82839	0.96294
750.77149	0.96158
748.71458	0.95964
746.65767	0.95801
744.60076	0.95698
742.54385	0.95582
740.48695	0.95395
738.43004	0.95189
736.37313	0.95031
734.31622	0.94889
732.25931	0.94707
730.20240	0.94581
728.14550	0.94632
726.08859	0.94787
724.03168	0.94929
721.97477	0.95010
719.91786	0.95065
717.86096	0.95137
715.80405	0.95206
713.74714	0.95308
711.69023	0.95437
709.63332	0.95505
707.57641	0.95498
705.51951	0.95447
703.46260	0.95369
701.40569	0.95331
699.34878	0.95412
697.29187	0.95511
695.23497	0.95473
693.17806	0.95374
691.12115	0.95348
689.06424	0.95333
687.00733	0.95216
684.95042	0.95093
682.89352	0.95033
680.83661	0.94925
678.77970	0.94810
676.72279	0.94753
674.66588	0.94647
672.60898	0.94474
670.55207	0.94298
668.49516	0.94133
666.43825	0.94091
664.38134	0.94123
662.32443	0.94101
660.26753	0.94054
658.21062	0.94024
656.15371	0.93988
654.09680	0.93976
652.03989	0.93993
649.98299	0.93983
647.92608	0.94014
645.86917	0.94129
643.81226	0.94192
641.75535	0.94071
639.69844	0.93844
637.64154	0.93716
635.58463	0.93703
633.52772	0.93650
631.47081	0.93555
629.41390	0.93510
627.35700	0.93468
625.30009	0.93338
623.24318	0.93188
621.18627	0.93130
619.12936	0.93143
617.07245	0.93147
615.01555	0.93049
612.95864	0.92880
610.90173	0.92783
608.84482	0.92743
606.78791	0.92690
604.73101	0.92629
602.67410	0.92588
600.61719	0.92561
598.56028	0.92536
596.50337	0.92543
594.44646	0.92519
592.38956	0.92383
590.33265	0.92202
588.27574	0.92130
586.21883	0.92225
584.16192	0.92356
582.10502	0.92329
580.04811	0.92187
577.99120	0.92116
575.93429	0.92125
573.87738	0.92076
571.82047	0.92003
569.76357	0.92006
567.70666	0.91989
565.64975	0.91824
563.59284	0.91657
561.53593	0.91700
559.47903	0.91854
557.42212	0.91948
555.36521	0.91985
553.30830	0.91988
551.25139	0.91986
549.19448	0.92048
547.13758	0.92108
545.08067	0.92034
543.02376	0.91880
540.96685	0.91797
538.90994	0.91785
536.85304	0.91777
534.79613	0.91833
532.73922	0.91874
530.68231	0.91768
528.62540	0.91571
526.56849	0.91409
524.51159	0.91437
522.45468	0.91505
520.39777	0.91389
518.34086	0.91292
516.28395	0.91436
514.22705	0.91532
512.17014	0.91339
510.11323	0.91072
508.05632	0.90958
505.99941	0.90970
503.94250	0.90961
501.88560	0.90842
499.82869	0.90752
497.77178	0.90725
495.71487	0.90602
493.65796	0.90405
491.60106	0.90223
489.54415	0.90144
487.48724	0.90149
485.43033	0.90183
483.37342	0.90197
481.31651	0.90112
479.25961	0.90020
477.20270	0.90019
475.14579	0.90160
473.08888	0.90453
471.03197	0.90735
468.97507	0.90721
466.91816	0.90371
464.86125	0.89951
462.80434	0.89820
460.74743	0.90118
458.69052	0.90367
456.63362	0.90121
454.57671	0.89736
452.51980	0.89480
450.46289	0.89457
448.40598	0.89747
446.34908	0.90154
444.29217	0.90140
442.23526	0.89663
440.17835	0.89475
438.12144	0.89733
436.06453	0.90041
434.00763	0.90234
431.95072	0.90314
429.89381	0.90281
427.83690	0.90248
425.77999	0.90252
423.72309	0.90216
421.66618	0.90178
419.60927	0.90181
417.55236	0.90113
415.49545	0.90157
413.43854	0.90491
411.38164	0.90739
409.32473	0.90843
407.26782	0.90913
405.21091	0.90679
403.15400	0.90440
401.09710	0.90407
399.04019	0.90156
