3996.57260	0.99669
3994.51569	0.99655
3992.45878	0.99611
3990.40188	0.99581
3988.34497	0.99610
3986.28806	0.99634
3984.23115	0.99625
3982.17424	0.99600
3980.11733	0.99608
3978.06043	0.99646
3976.00352	0.99661
3973.94661	0.99703
3971.88970	0.99736
3969.83279	0.99657
3967.77589	0.99529
3965.71898	0.99488
3963.66207	0.99561
3961.60516	0.99667
3959.54825	0.99711
3957.49134	0.99675
3955.43444	0.99642
3953.37753	0.99648
3951.32062	0.99640
3949.26371	0.99598
3947.20680	0.99554
3945.14990	0.99540
3943.09299	0.99555
3941.03608	0.99584
3938.97917	0.99616
3936.92226	0.99625
3934.86535	0.99584
3932.80845	0.99518
3930.75154	0.99509
3928.69463	0.99575
3926.63772	0.99636
3924.58081	0.99645
3922.52391	0.99652
3920.46700	0.99687
3918.41009	0.99691
3916.35318	0.99667
3914.29627	0.99670
3912.23936	0.99653
3910.18246	0.99598
3908.12555	0.99587
3906.06864	0.99680
3904.01173	0.99804
3901.95482	0.99798
3899.89792	0.99655
3897.84101	0.99575
3895.78410	0.99571
3893.72719	0.99510
3891.67028	0.99432
3889.61337	0.99438
3887.55647	0.99482
3885.49956	0.99530
3883.44265	0.99572
3881.38574	0.99597
3879.32883	0.99588
3877.27193	0.99541
3875.21502	0.99482
3873.15811	0.99487
3871.10120	0.99631
3869.04429	0.99805
3866.98738	0.99811
3864.93048	0.99702
3862.87357	0.99639
3860.81666	0.99654
3858.75975	0.99664
3856.70284	0.99642
3854.64594	0.99561
3852.58903	0.99491
3850.53212	0.99529
3848.47521	0.99534
3846.41830	0.99474
3844.36139	0.99438
3842.30449	0.99489
3840.24758	0.99555
3838.19067	0.99631
3836.13376	0.99722
3834.07685	0.99741
3832.01995	0.99707
3829.96304	0.99707
3827.90613	0.99722
3825.84922	0.99690
3823.79231	0.99672
3821.73540	0.99709
3819.67850	0.99731
3817.62159	0.99720
3815.56468	0.99725
3813.50777	0.99738
3811.45086	0.99733
3809.39396	0.99718
3807.33705	0.99670
3805.28014	0.99618
3803.22323	0.99677
3801.16632	0.99776
3799.10941	0.99741
3797.05251	0.99637
3794.99560	0.99560
3792.93869	0.99552
3790.88178	0.99562
3788.82487	0.99561
3786.76796	0.99598
3784.71106	0.99659
3782.65415	0.99681
3780.59724	0.99626
3778.54033	0.99510
3776.48342	0.99434
3774.42652	0.99414
3772.36961	0.99422
3770.31270	0.99509
3768.25579	0.99612
3766.19888	0.99640
3764.14197	0.99638
3762.08507	0.99597
3760.02816	0.99589
3757.97125	0.99664
3755.91434	0.99718
3753.85743	0.99734
3751.80053	0.99720
3749.74362	0.99661
3747.68671	0.99643
3745.62980	0.99663
3743.57289	0.99666
3741.51598	0.99656
3739.45908	0.99680
3737.40217	0.99774
3735.34526	0.99907
3733.28835	0.99889
3731.23144	0.99724
3729.17454	0.99620
3727.11763	0.99654
3725.06072	0.99775
3723.00381	0.99854
3720.94690	0.99859
3718.88999	0.99830
3716.83309	0.99724
3714.77618	0.99596
3712.71927	0.99585
3710.66236	0.99660
3708.60545	0.99655
3706.54855	0.99648
3704.49164	0.99703
3702.43473	0.99747
3700.37782	0.99727
3698.32091	0.99678
3696.26400	0.99638
3694.20710	0.99647
3692.15019	0.99733
3690.09328	0.99808
3688.03637	0.99696
3685.97946	0.99501
3683.92256	0.99430
3681.86565	0.99507
3679.80874	0.99623
3677.75183	0.99672
3675.69492	0.99695
3673.63801	0.99723
3671.58111	0.99710
3669.52420	0.99625
3667.46729	0.99510
3665.41038	0.99473
3663.35347	0.99481
3661.29657	0.99490
3659.23966	0.99465
3657.18275	0.99427
3655.12584	0.99466
3653.06893	0.99509
3651.01202	0.99510
3648.95512	0.99532
3646.89821	0.99526
3644.84130	0.99526
3642.78439	0.99583
3640.72748	0.99589
3638.67058	0.99565
3636.61367	0.99634
3634.55676	0.99685
3632.49985	0.99644
3630.44294	0.99548
3628.38603	0.99407
3626.32913	0.99374
3624.27222	0.99431
3622.21531	0.99467
3620.15840	0.99493
3618.10149	0.99558
3616.04459	0.99570
3613.98768	0.99456
3611.93077	0.99345
3609.87386	0.99321
3607.81695	0.99275
3605.76004	0.99194
3603.70314	0.99133
3601.64623	0.99110
3599.58932	0.99138
3597.53241	0.99198
3595.47550	0.99236
3593.41860	0.99233
3591.36169	0.99244
3589.30478	0.99228
3587.24787	0.99118
3585.19096	0.99024
3583.13405	0.98968
3581.07715	0.98902
3579.02024	0.98881
3576.96333	0.98865
3574.90642	0.98792
3572.84951	0.98773
3570.79261	0.98842
3568.73570	0.98906
3566.67879	0.98884
3564.62188	0.98758
3562.56497	0.98604
3560.50806	0.98530
3558.45116	0.98544
3556.39425	0.98519
3554.33734	0.98466
3552.28043	0.98455
3550.22352	0.98430
3548.16662	0.98385
3546.10971	0.98334
3544.05280	0.98242
3541.99589	0.98131
3539.93898	0.98022
3537.88207	0.97932
3535.82517	0.97906
3533.76826	0.97896
3531.71135	0.97859
3529.65444	0.97823
3527.59753	0.97776
3525.54063	0.97692
3523.48372	0.97590
3521.42681	0.97501
3519.36990	0.97427
3517.31299	0.97389
3515.25608	0.97377
3513.19918	0.97347
3511.14227	0.97361
3509.08536	0.97370
3507.02845	0.97229
3504.97154	0.97071
3502.91464	0.97054
3500.85773	0.97075
3498.80082	0.97031
3496.74391	0.96958
3494.68700	0.96921
3492.63009	0.96946
3490.57319	0.96964
3488.51628	0.96901
3486.45937	0.96831
3484.40246	0.96794
3482.34555	0.96742
3480.28865	0.96703
3478.23174	0.96728
3476.17483	0.96773
3474.11792	0.96780
3472.06101	0.96742
3470.00410	0.96693
3467.94720	0.96683
3465.89029	0.96730
3463.83338	0.96833
3461.77647	0.96916
3459.71956	0.96912
3457.66266	0.96894
3455.60575	0.96926
3453.54884	0.96997
3451.49193	0.97117
3449.43502	0.97234
3447.37811	0.97259
3445.32121	0.97253
3443.26430	0.97315
3441.20739	0.97384
3439.15048	0.97404
3437.09357	0.97419
3435.03667	0.97446
3432.97976	0.97451
3430.92285	0.97457
3428.86594	0.97496
3426.80903	0.97551
3424.75212	0.97616
3422.69522	0.97671
3420.63831	0.97683
3418.58140	0.97663
3416.52449	0.97656
3414.46758	0.97697
3412.41068	0.97754
3410.35377	0.97792
3408.29686	0.97834
3406.23995	0.97863
3404.18304	0.97874
3402.12613	0.97924
3400.06923	0.97991
3398.01232	0.98003
3395.95541	0.97970
3393.89850	0.97967
3391.84159	0.98023
3389.78469	0.98109
3387.72778	0.98181
3385.67087	0.98216
3383.61396	0.98211
3381.55705	0.98177
3379.50014	0.98168
3377.44324	0.98192
3375.38633	0.98221
3373.32942	0.98235
3371.27251	0.98243
3369.21560	0.98279
3367.15870	0.98317
3365.10179	0.98334
3363.04488	0.98366
3360.98797	0.98408
3358.93106	0.98412
3356.87415	0.98381
3354.81725	0.98361
3352.76034	0.98359
3350.70343	0.98382
3348.64652	0.98407
3346.58961	0.98421
3344.53271	0.98454
3342.47580	0.98495
3340.41889	0.98539
3338.36198	0.98584
3336.30507	0.98622
3334.24816	0.98636
3332.19126	0.98607
3330.13435	0.98588
3328.07744	0.98614
3326.02053	0.98642
3323.96362	0.98655
3321.90672	0.98659
3319.84981	0.98668
3317.79290	0.98715
3315.73599	0.98777
3313.67908	0.98777
3311.62217	0.98715
3309.56527	0.98702
3307.50836	0.98786
3305.45145	0.98867
3303.39454	0.98857
3301.33763	0.98800
3299.28073	0.98783
3297.22382	0.98791
3295.16691	0.98804
3293.11000	0.98807
3291.05309	0.98758
3288.99618	0.98727
3286.93928	0.98778
3284.88237	0.98877
3282.82546	0.98959
3280.76855	0.98991
3278.71164	0.99004
3276.65474	0.99015
3274.59783	0.98999
3272.54092	0.98982
3270.48401	0.98995
3268.42710	0.99030
3266.37019	0.99070
3264.31329	0.99054
3262.25638	0.98963
3260.19947	0.98916
3258.14256	0.99001
3256.08565	0.99106
3254.02875	0.99103
3251.97184	0.99056
3249.91493	0.99052
3247.85802	0.99059
3245.80111	0.99061
3243.74420	0.99067
3241.68730	0.99091
3239.63039	0.99127
3237.57348	0.99101
3235.51657	0.99042
3233.45966	0.99043
3231.40276	0.99093
3229.34585	0.99125
3227.28894	0.99134
3225.23203	0.99175
3223.17512	0.99211
3221.11821	0.99199
3219.06131	0.99202
3217.00440	0.99264
3214.94749	0.99325
3212.89058	0.99296
3210.83367	0.99230
3208.77677	0.99219
3206.71986	0.99243
3204.66295	0.99277
3202.60604	0.99262
3200.54913	0.99196
3198.49222	0.99212
3196.43532	0.99323
3194.37841	0.99372
3192.32150	0.99302
3190.26459	0.99261
3188.20768	0.99305
3186.15078	0.99346
3184.09387	0.99365
3182.03696	0.99377
3179.98005	0.99386
3177.92314	0.99380
3175.86623	0.99346
3173.80933	0.99338
3171.75242	0.99364
3169.69551	0.99395
3167.63860	0.99451
3165.58169	0.99511
3163.52479	0.99519
3161.46788	0.99486
3159.41097	0.99442
3157.35406	0.99424
3155.29715	0.99446
3153.24024	0.99437
3151.18334	0.99380
3149.12643	0.99337
3147.06952	0.99347
3145.01261	0.99396
3142.95570	0.99413
3140.89880	0.99378
3138.84189	0.99363
3136.78498	0.99398
3134.72807	0.99431
3132.67116	0.99445
3130.61425	0.99485
3128.55735	0.99556
3126.50044	0.99587
3124.44353	0.99534
3122.38662	0.99472
3120.32971	0.99453
3118.27281	0.99434
3116.21590	0.99395
3114.15899	0.99364
3112.10208	0.99369
3110.04517	0.99392
3107.98826	0.99412
3105.93136	0.99472
3103.87445	0.99546
3101.81754	0.99527
3099.76063	0.99480
3097.70372	0.99510
3095.64682	0.99542
3093.58991	0.99504
3091.53300	0.99468
3089.47609	0.99491
3087.41918	0.99517
3085.36227	0.99528
3083.30537	0.99568
3081.24846	0.99617
3079.19155	0.99643
3077.13464	0.99627
3075.07773	0.99550
3073.02083	0.99471
3070.96392	0.99461
3068.90701	0.99494
3066.85010	0.99514
3064.79319	0.99507
3062.73628	0.99527
3060.67938	0.99580
3058.62247	0.99567
3056.56556	0.99521
3054.50865	0.99550
3052.45174	0.99592
3050.39484	0.99558
3048.33793	0.99496
3046.28102	0.99495
3044.22411	0.99518
3042.16720	0.99478
3040.11029	0.99429
3038.05339	0.99427
3035.99648	0.99414
3033.93957	0.99352
3031.88266	0.99312
3029.82575	0.99355
3027.76885	0.99420
3025.71194	0.99437
3023.65503	0.99385
3021.59812	0.99290
3019.54121	0.99244
3017.48430	0.99279
3015.42740	0.99337
3013.37049	0.99355
3011.31358	0.99334
3009.25667	0.99274
3007.19976	0.99179
3005.14286	0.99098
3003.08595	0.99060
3001.02904	0.99061
2998.97213	0.99057
2996.91522	0.98982
2994.85831	0.98862
2992.80141	0.98777
2990.74450	0.98695
2988.68759	0.98585
2986.63068	0.98473
2984.57377	0.98326
2982.51687	0.98141
2980.45996	0.97912
2978.40305	0.97620
2976.34614	0.97295
2974.28923	0.96920
2972.23232	0.96442
2970.17542	0.95871
2968.11851	0.95259
2966.06160	0.94646
2964.00469	0.94035
2961.94778	0.93445
2959.89088	0.92968
2957.83397	0.92681
2955.77706	0.92547
2953.72015	0.92532
2951.66324	0.92657
2949.60633	0.92848
2947.54943	0.92947
2945.49252	0.92870
2943.43561	0.92617
2941.37870	0.92219
2939.32179	0.91703
2937.26489	0.91085
2935.20798	0.90421
2933.15107	0.89821
2931.09416	0.89354
2929.03725	0.89026
2926.98034	0.88863
2924.92344	0.88862
2922.86653	0.88992
2920.80962	0.89257
2918.75271	0.89644
2916.69580	0.90110
2914.63890	0.90616
2912.58199	0.91159
2910.52508	0.91715
2908.46817	0.92197
2906.41126	0.92596
2904.35435	0.92966
2902.29745	0.93321
2900.24054	0.93653
2898.18363	0.93931
2896.12672	0.94175
2894.06981	0.94420
2892.01291	0.94654
2889.95600	0.94851
2887.89909	0.95001
2885.84218	0.95106
2883.78527	0.95146
2881.72836	0.95099
2879.67146	0.94942
2877.61455	0.94627
2875.55764	0.94193
2873.50073	0.93798
2871.44382	0.93581
2869.38692	0.93542
2867.33001	0.93524
2865.27310	0.93330
2863.21619	0.92909
2861.15928	0.92390
2859.10237	0.91962
2857.04547	0.91760
2854.98856	0.91847
2852.93165	0.92214
2850.87474	0.92812
2848.81783	0.93577
2846.76093	0.94435
2844.70402	0.95308
2842.64711	0.96100
2840.59020	0.96718
2838.53329	0.97164
2836.47638	0.97510
2834.41948	0.97774
2832.36257	0.97952
2830.30566	0.98087
2828.24875	0.98220
2826.19184	0.98336
2824.13494	0.98416
2822.07803	0.98471
2820.02112	0.98524
2817.96421	0.98575
2815.90730	0.98612
2813.85039	0.98651
2811.79349	0.98693
2809.73658	0.98726
2807.67967	0.98764
2805.62276	0.98809
2803.56585	0.98850
2801.50895	0.98868
2799.45204	0.98879
2797.39513	0.98916
2795.33822	0.98972
2793.28131	0.99016
2791.22440	0.99054
2789.16750	0.99083
2787.11059	0.99084
2785.05368	0.99076
2782.99677	0.99107
2780.93986	0.99171
2778.88296	0.99173
2776.82605	0.99112
2774.76914	0.99102
2772.71223	0.99162
2770.65532	0.99212
2768.59841	0.99227
2766.54151	0.99251
2764.48460	0.99270
2762.42769	0.99266
2760.37078	0.99282
2758.31387	0.99311
2756.25697	0.99312
2754.20006	0.99281
2752.14315	0.99237
2750.08624	0.99223
2748.02933	0.99248
2745.97242	0.99259
2743.91552	0.99249
2741.85861	0.99250
2739.80170	0.99262
2737.74479	0.99263
2735.68788	0.99244
2733.63098	0.99223
2731.57407	0.99214
2729.51716	0.99216
2727.46025	0.99233
2725.40334	0.99264
2723.34643	0.99280
2721.28953	0.99285
2719.23262	0.99311
2717.17571	0.99321
2715.11880	0.99275
2713.06189	0.99237
2711.00499	0.99252
2708.94808	0.99277
2706.89117	0.99299
2704.83426	0.99332
2702.77735	0.99346
2700.72044	0.99316
2698.66354	0.99279
2696.60663	0.99282
2694.54972	0.99302
2692.49281	0.99322
2690.43590	0.99348
2688.37900	0.99355
2686.32209	0.99333
2684.26518	0.99327
2682.20827	0.99352
2680.15136	0.99346
2678.09445	0.99291
2676.03755	0.99251
2673.98064	0.99280
2671.92373	0.99329
2669.86682	0.99323
2667.80991	0.99281
2665.75301	0.99245
2663.69610	0.99234
2661.63919	0.99247
2659.58228	0.99264
2657.52537	0.99259
2655.46846	0.99251
2653.41156	0.99272
2651.35465	0.99294
2649.29774	0.99281
2647.24083	0.99270
2645.18392	0.99301
2643.12702	0.99334
2641.07011	0.99329
2639.01320	0.99323
2636.95629	0.99331
2634.89938	0.99321
2632.84247	0.99292
2630.78557	0.99273
2628.72866	0.99292
2626.67175	0.99342
2624.61484	0.99350
2622.55793	0.99307
2620.50103	0.99311
2618.44412	0.99360
2616.38721	0.99357
2614.33030	0.99308
2612.27339	0.99275
2610.21648	0.99278
2608.15958	0.99322
2606.10267	0.99397
2604.04576	0.99470
2601.98885	0.99498
2599.93194	0.99467
2597.87504	0.99436
2595.81813	0.99477
2593.76122	0.99528
2591.70431	0.99511
2589.64740	0.99456
2587.59049	0.99396
2585.53359	0.99385
2583.47668	0.99458
2581.41977	0.99560
2579.36286	0.99619
2577.30595	0.99613
2575.24905	0.99573
2573.19214	0.99538
2571.13523	0.99526
2569.07832	0.99557
2567.02141	0.99627
2564.96450	0.99693
2562.90760	0.99707
2560.85069	0.99699
2558.79378	0.99682
2556.73687	0.99623
2554.67996	0.99576
2552.62306	0.99584
2550.56615	0.99621
2548.50924	0.99642
2546.45233	0.99596
2544.39542	0.99564
2542.33851	0.99636
2540.28161	0.99702
2538.22470	0.99674
2536.16779	0.99632
2534.11088	0.99625
2532.05397	0.99601
2529.99707	0.99564
2527.94016	0.99598
2525.88325	0.99708
2523.82634	0.99767
2521.76943	0.99715
2519.71252	0.99652
2517.65562	0.99627
2515.59871	0.99608
2513.54180	0.99608
2511.48489	0.99657
2509.42798	0.99715
2507.37108	0.99739
2505.31417	0.99747
2503.25726	0.99739
2501.20035	0.99728
2499.14344	0.99700
2497.08653	0.99650
2495.02963	0.99621
2492.97272	0.99615
2490.91581	0.99631
2488.85890	0.99656
2486.80199	0.99685
2484.74509	0.99707
2482.68818	0.99683
2480.63127	0.99638
2478.57436	0.99639
2476.51745	0.99669
2474.46054	0.99687
2472.40364	0.99705
2470.34673	0.99700
2468.28982	0.99679
2466.23291	0.99688
2464.17600	0.99696
2462.11910	0.99698
2460.06219	0.99717
2458.00528	0.99718
2455.94837	0.99703
2453.89146	0.99686
2451.83455	0.99613
2449.77765	0.99549
2447.72074	0.99605
2445.66383	0.99681
2443.60692	0.99676
2441.55001	0.99648
2439.49311	0.99664
2437.43620	0.99708
2435.37929	0.99735
2433.32238	0.99756
2431.26547	0.99789
2429.20856	0.99786
2427.15166	0.99760
2425.09475	0.99777
2423.03784	0.99797
2420.98093	0.99775
2418.92402	0.99724
2416.86712	0.99658
2414.81021	0.99641
2412.75330	0.99652
2410.69639	0.99620
2408.63948	0.99590
2406.58257	0.99577
2404.52567	0.99549
2402.46876	0.99522
2400.41185	0.99511
2398.35494	0.99512
2396.29803	0.99560
2394.24113	0.99626
2392.18422	0.99649
2390.12731	0.99662
2388.07040	0.99676
2386.01349	0.99650
2383.95658	0.99611
2381.89968	0.99599
2379.84277	0.99582
2377.78586	0.99557
2375.72895	0.99609
2373.67204	0.99690
2371.61514	0.99702
2369.55823	0.99715
2367.50132	0.99763
2365.44441	0.99805
2363.38750	0.99841
2361.33059	0.99805
2359.27369	0.99701
2357.21678	0.99694
2355.15987	0.99724
2353.10296	0.99640
2351.04605	0.99581
2348.98915	0.99579
2346.93224	0.99539
2344.87533	0.99508
2342.81842	0.99566
2340.76151	0.99584
2338.70460	0.99521
2336.64770	0.99551
2334.59079	0.99709
2332.53388	0.99843
2330.47697	0.99871
2328.42006	0.99792
2326.36316	0.99583
2324.30625	0.99359
2322.24934	0.99329
2320.19243	0.99458
2318.13552	0.99586
2316.07861	0.99663
2314.02171	0.99640
2311.96480	0.99523
2309.90789	0.99460
2307.85098	0.99497
2305.79407	0.99545
2303.73717	0.99543
2301.68026	0.99507
2299.62335	0.99530
2297.56644	0.99567
2295.50953	0.99513
2293.45262	0.99457
2291.39572	0.99456
2289.33881	0.99457
2287.28190	0.99437
2285.22499	0.99380
2283.16808	0.99367
2281.11117	0.99418
2279.05427	0.99410
2276.99736	0.99381
2274.94045	0.99423
2272.88354	0.99509
2270.82663	0.99568
2268.76973	0.99567
2266.71282	0.99583
2264.65591	0.99635
2262.59900	0.99603
2260.54209	0.99506
2258.48518	0.99527
2256.42828	0.99708
2254.37137	0.99835
2252.31446	0.99764
2250.25755	0.99615
2248.20064	0.99495
2246.14374	0.99484
2244.08683	0.99578
2242.02992	0.99636
2239.97301	0.99627
2237.91610	0.99651
2235.85919	0.99672
2233.80229	0.99556
2231.74538	0.99447
2229.68847	0.99474
2227.63156	0.99585
2225.57465	0.99787
2223.51775	0.99972
2221.46084	0.99937
2219.40393	0.99739
2217.34702	0.99709
2215.29011	0.99883
2213.23320	0.99949
2211.17630	0.99791
2209.11939	0.99639
2207.06248	0.99725
2205.00557	0.99883
2202.94866	0.99840
2200.89176	0.99723
2198.83485	0.99758
2196.77794	0.99828
2194.72103	0.99772
2192.66412	0.99766
2190.60721	0.99876
2188.55031	0.99868
2186.49340	0.99803
2184.43649	0.99919
2182.37958	1.00159
2180.32267	1.00351
2178.26577	1.00400
2176.20886	1.00292
2174.15195	1.00084
2172.09504	0.99854
2170.03813	0.99667
2167.98122	0.99707
2165.92432	0.99964
2163.86741	0.99921
2161.81050	0.99666
2159.75359	0.99870
2157.69668	1.00370
2155.63978	1.00572
2153.58287	1.00443
2151.52596	1.00286
2149.46905	1.00216
2147.41214	1.00183
2145.35523	1.00125
2143.29833	0.99999
2141.24142	0.99860
2139.18451	0.99787
2137.12760	0.99838
2135.07069	1.00004
2133.01379	1.00098
2130.95688	0.99953
2128.89997	0.99771
2126.84306	0.99730
2124.78615	0.99754
2122.72924	0.99753
2120.67234	0.99699
2118.61543	0.99687
2116.55852	0.99707
2114.50161	0.99690
2112.44470	0.99647
2110.38780	0.99585
2108.33089	0.99601
2106.27398	0.99706
2104.21707	0.99800
2102.16016	0.99811
2100.10325	0.99687
2098.04635	0.99539
2095.98944	0.99580
2093.93253	0.99740
2091.87562	0.99746
2089.81871	0.99609
2087.76181	0.99532
2085.70490	0.99550
2083.64799	0.99568
2081.59108	0.99558
2079.53417	0.99564
2077.47726	0.99622
2075.42036	0.99688
2073.36345	0.99696
2071.30654	0.99637
2069.24963	0.99578
2067.19272	0.99624
2065.13582	0.99725
2063.07891	0.99697
2061.02200	0.99561
2058.96509	0.99567
2056.90818	0.99692
2054.85127	0.99823
2052.79437	0.99940
2050.73746	0.99817
2048.68055	0.99542
2046.62364	0.99471
2044.56673	0.99564
2042.50983	0.99656
2040.45292	0.99701
2038.39601	0.99600
2036.33910	0.99450
2034.28219	0.99569
2032.22528	0.99865
2030.16838	0.99929
2028.11147	0.99725
2026.05456	0.99531
2023.99765	0.99473
2021.94074	0.99462
2019.88384	0.99488
2017.82693	0.99667
2015.77002	0.99858
2013.71311	0.99841
2011.65620	0.99714
2009.59929	0.99630
2007.54239	0.99631
2005.48548	0.99709
2003.42857	0.99817
2001.37166	0.99817
1999.31475	0.99742
1997.25785	0.99811
1995.20094	0.99901
1993.14403	0.99850
1991.08712	0.99841
1989.03021	0.99927
1986.97330	0.99964
1984.91640	0.99898
1982.85949	0.99742
1980.80258	0.99663
1978.74567	0.99846
1976.68876	1.00076
1974.63186	1.00093
1972.57495	1.00096
1970.51804	1.00252
1968.46113	1.00327
1966.40422	1.00189
1964.34731	1.00127
1962.29041	1.00190
1960.23350	1.00127
1958.17659	0.99939
1956.11968	0.99821
1954.06277	0.99818
1952.00587	0.99914
1949.94896	1.00101
1947.89205	1.00214
1945.83514	1.00132
1943.77823	1.00004
1941.72132	1.00038
1939.66442	1.00110
1937.60751	1.00037
1935.55060	0.99956
1933.49369	1.00010
1931.43678	1.00076
1929.37988	1.00056
1927.32297	1.00044
1925.26606	1.00065
1923.20915	1.00014
1921.15224	0.99969
1919.09533	0.99991
1917.03843	0.99925
1914.98152	0.99801
1912.92461	0.99729
1910.86770	0.99754
1908.81079	0.99816
1906.75389	0.99774
1904.69698	0.99743
1902.64007	0.99814
1900.58316	0.99852
1898.52625	0.99859
1896.46934	0.99921
1894.41244	0.99970
1892.35553	0.99955
1890.29862	0.99898
1888.24171	0.99841
1886.18480	0.99825
1884.12790	0.99820
1882.07099	0.99825
1880.01408	0.99896
1877.95717	0.99969
1875.90026	0.99925
1873.84335	0.99796
1871.78645	0.99708
1869.72954	0.99682
1867.67263	0.99684
1865.61572	0.99685
1863.55881	0.99677
1861.50191	0.99704
1859.44500	0.99745
1857.38809	0.99742
1855.33118	0.99741
1853.27427	0.99795
1851.21736	0.99860
1849.16046	0.99890
1847.10355	0.99869
1845.04664	0.99844
1842.98973	0.99859
1840.93282	0.99836
1838.87592	0.99751
1836.81901	0.99667
1834.76210	0.99647
1832.70519	0.99648
1830.64828	0.99652
1828.59137	0.99671
1826.53447	0.99685
1824.47756	0.99649
1822.42065	0.99550
1820.36374	0.99502
1818.30683	0.99550
1816.24993	0.99601
1814.19302	0.99577
1812.13611	0.99534
1810.07920	0.99520
1808.02229	0.99511
1805.96538	0.99484
1803.90848	0.99441
1801.85157	0.99411
1799.79466	0.99404
1797.73775	0.99352
1795.68084	0.99269
1793.62394	0.99242
1791.56703	0.99220
1789.51012	0.99141
1787.45321	0.99046
1785.39630	0.98973
1783.33939	0.98940
1781.28249	0.98871
1779.22558	0.98697
1777.16867	0.98494
1775.11176	0.98276
1773.05485	0.97909
1770.99795	0.97340
1768.94104	0.96676
1766.88413	0.95880
1764.82722	0.94946
1762.77031	0.93753
1760.71340	0.92342
1758.65650	0.91079
1756.59959	0.89800
1754.54268	0.88640
1752.48577	0.87727
1750.42886	0.86747
1748.37196	0.85717
1746.31505	0.84888
1744.25814	0.84280
1742.20123	0.83868
1740.14432	0.83581
1738.08741	0.83451
1736.03051	0.83578
1733.97360	0.83983
1731.91669	0.84528
1729.85978	0.85049
1727.80287	0.85598
1725.74597	0.86200
1723.68906	0.86895
1721.63215	0.87607
1719.57524	0.88378
1717.51833	0.89450
1715.46142	0.90630
1713.40452	0.91581
1711.34761	0.92436
1709.29070	0.93262
1707.23379	0.94089
1705.17688	0.94935
1703.11998	0.95630
1701.06307	0.96237
1699.00616	0.96808
1696.94925	0.97167
1694.89234	0.97406
1692.83543	0.97560
1690.77853	0.97733
1688.72162	0.97958
1686.66471	0.98140
1684.60780	0.98325
1682.55089	0.98462
1680.49399	0.98502
1678.43708	0.98577
1676.38017	0.98686
1674.32326	0.98739
1672.26635	0.98758
1670.20944	0.98818
1668.15254	0.98855
1666.09563	0.98852
1664.03872	0.98867
1661.98181	0.98890
1659.92490	0.98909
1657.86800	0.98920
1655.81109	0.98919
1653.75418	0.98963
1651.69727	0.99011
1649.64036	0.98987
1647.58345	0.98958
1645.52655	0.98913
1643.46964	0.98875
1641.41273	0.98869
1639.35582	0.98882
1637.29891	0.98905
1635.24201	0.98891
1633.18510	0.98845
1631.12819	0.98832
1629.07128	0.98832
1627.01437	0.98829
1624.95746	0.98821
1622.90056	0.98831
1620.84365	0.98863
1618.78674	0.98908
1616.72983	0.98960
1614.67292	0.98991
1612.61602	0.99029
1610.55911	0.99055
1608.50220	0.99028
1606.44529	0.99000
1604.38838	0.99033
1602.33147	0.99086
1600.27457	0.99084
1598.21766	0.99060
1596.16075	0.99090
1594.10384	0.99140
1592.04693	0.99157
1589.99003	0.99162
1587.93312	0.99155
1585.87621	0.99138
1583.81930	0.99139
1581.76239	0.99138
1579.70548	0.99126
1577.64858	0.99153
1575.59167	0.99200
1573.53476	0.99194
1571.47785	0.99192
1569.42094	0.99216
1567.36404	0.99194
1565.30713	0.99149
1563.25022	0.99125
1561.19331	0.99108
1559.13640	0.99090
1557.07949	0.99095
1555.02259	0.99142
1552.96568	0.99200
1550.90877	0.99242
1548.85186	0.99252
1546.79495	0.99231
1544.73805	0.99200
1542.68114	0.99221
1540.62423	0.99321
1538.56732	0.99335
1536.51041	0.99292
1534.45350	0.99287
1532.39660	0.99281
1530.33969	0.99240
1528.28278	0.99217
1526.22587	0.99241
1524.16896	0.99278
1522.11206	0.99298
1520.05515	0.99247
1517.99824	0.99136
1515.94133	0.99069
1513.88442	0.99070
1511.82751	0.99064
1509.77061	0.99045
1507.71370	0.99051
1505.65679	0.99084
1503.59988	0.99117
1501.54297	0.99132
1499.48607	0.99096
1497.42916	0.99027
1495.37225	0.99005
1493.31534	0.99027
1491.25843	0.99043
1489.20152	0.99022
1487.14462	0.98934
1485.08771	0.98806
1483.03080	0.98707
1480.97389	0.98623
1478.91698	0.98469
1476.86008	0.98174
1474.80317	0.97638
1472.74626	0.96588
1470.68935	0.95282
1468.63244	0.94426
1466.57553	0.94013
1464.51863	0.93883
1462.46172	0.93852
1460.40481	0.93863
1458.34790	0.93939
1456.29099	0.94068
1454.23409	0.94298
1452.17718	0.94632
1450.12027	0.94990
1448.06336	0.95295
1446.00645	0.95508
1443.94954	0.95652
1441.89264	0.95749
1439.83573	0.95795
1437.77882	0.95838
1435.72191	0.95932
1433.66500	0.96023
1431.60810	0.96053
1429.55119	0.95994
1427.49428	0.95843
1425.43737	0.95599
1423.38046	0.95278
1421.32355	0.94963
1419.26665	0.94638
1417.20974	0.94387
1415.15283	0.94364
1413.09592	0.94497
1411.03901	0.94741
1408.98211	0.95047
1406.92520	0.95350
1404.86829	0.95600
1402.81138	0.95759
1400.75447	0.95860
1398.69756	0.95924
1396.64066	0.95879
1394.58375	0.95676
1392.52684	0.95371
1390.46993	0.95008
1388.41302	0.94522
1386.35612	0.93897
1384.29921	0.93265
1382.24230	0.92698
1380.18539	0.92251
1378.12848	0.92030
1376.07157	0.92057
1374.01467	0.92275
1371.95776	0.92554
1369.90085	0.92778
1367.84394	0.92952
1365.78703	0.93109
1363.73013	0.93251
1361.67322	0.93369
1359.61631	0.93476
1357.55940	0.93582
1355.50249	0.93684
1353.44558	0.93785
1351.38868	0.93906
1349.33177	0.94048
1347.27486	0.94164
1345.21795	0.94231
1343.16104	0.94271
1341.10414	0.94307
1339.04723	0.94346
1336.99032	0.94365
1334.93341	0.94334
1332.87650	0.94244
1330.81959	0.94114
1328.76269	0.93960
1326.70578	0.93778
1324.64887	0.93581
1322.59196	0.93410
1320.53505	0.93267
1318.47815	0.93160
1316.42124	0.93106
1314.36433	0.93075
1312.30742	0.93082
1310.25051	0.93145
1308.19360	0.93219
1306.13670	0.93269
1304.07979	0.93275
1302.02288	0.93250
1299.96597	0.93247
1297.90906	0.93321
1295.85216	0.93494
1293.79525	0.93717
1291.73834	0.93898
1289.68143	0.93965
1287.62452	0.93904
1285.56761	0.93801
1283.51071	0.93761
1281.45380	0.93780
1279.39689	0.93794
1277.33998	0.93749
1275.28307	0.93596
1273.22617	0.93309
1271.16926	0.92895
1269.11235	0.92432
1267.05544	0.92046
1264.99853	0.91816
1262.94162	0.91735
1260.88472	0.91753
1258.82781	0.91785
1256.77090	0.91755
1254.71399	0.91677
1252.65708	0.91588
1250.60018	0.91504
1248.54327	0.91468
1246.48636	0.91496
1244.42945	0.91593
1242.37254	0.91752
1240.31563	0.91880
1238.25873	0.91890
1236.20182	0.91758
1234.14491	0.91475
1232.08800	0.91078
1230.03109	0.90636
1227.97419	0.90239
1225.91728	0.90020
1223.86037	0.90036
1221.80346	0.90201
1219.74655	0.90392
1217.68964	0.90501
1215.63274	0.90472
1213.57583	0.90348
1211.51892	0.90193
1209.46201	0.90051
1207.40510	0.89926
1205.34820	0.89782
1203.29129	0.89608
1201.23438	0.89393
1199.17747	0.89124
1197.12056	0.88822
1195.06365	0.88532
1193.00675	0.88291
1190.94984	0.88090
1188.89293	0.87882
1186.83602	0.87648
1184.77911	0.87376
1182.72221	0.87026
1180.66530	0.86604
1178.60839	0.86142
1176.55148	0.85619
1174.49457	0.84991
1172.43766	0.84221
1170.38076	0.83337
1168.32385	0.82417
1166.26694	0.81516
1164.21003	0.80689
1162.15312	0.79979
1160.09622	0.79395
1158.03931	0.78974
1155.98240	0.78778
1153.92549	0.78850
1151.86858	0.79234
1149.81167	0.79967
1147.75477	0.80998
1145.69786	0.82221
1143.64095	0.83526
1141.58404	0.84771
1139.52713	0.85835
1137.47023	0.86664
1135.41332	0.87240
1133.35641	0.87568
1131.29950	0.87649
1129.24259	0.87507
1127.18568	0.87133
1125.12878	0.86493
1123.07187	0.85705
1121.01496	0.84931
1118.95805	0.84228
1116.90114	0.83664
1114.84424	0.83245
1112.78733	0.82896
1110.73042	0.82618
1108.67351	0.82435
1106.61660	0.82317
1104.55969	0.82273
1102.50279	0.82358
1100.44588	0.82589
1098.38897	0.82908
1096.33206	0.83224
1094.27515	0.83463
1092.21825	0.83581
1090.16134	0.83525
1088.10443	0.83276
1086.04752	0.82871
1083.99061	0.82350
1081.93370	0.81766
1079.87680	0.81155
1077.81989	0.80549
1075.76298	0.80003
1073.70607	0.79514
1071.64916	0.79061
1069.59226	0.78667
1067.53535	0.78358
1065.47844	0.78132
1063.42153	0.77960
1061.36462	0.77814
1059.30771	0.77729
1057.25081	0.77738
1055.19390	0.77823
1053.13699	0.77943
1051.08008	0.78056
1049.02317	0.78164
1046.96627	0.78292
1044.90936	0.78392
1042.85245	0.78395
1040.79554	0.78334
1038.73863	0.78273
1036.68172	0.78205
1034.62482	0.78151
1032.56791	0.78169
1030.51100	0.78250
1028.45409	0.78395
1026.39718	0.78636
1024.34028	0.78980
1022.28337	0.79396
1020.22646	0.79838
1018.16955	0.80287
1016.11264	0.80758
1014.05573	0.81251
1011.99883	0.81750
1009.94192	0.82231
1007.88501	0.82699
1005.82810	0.83219
1003.77119	0.83801
1001.71429	0.84403
999.65738	0.85028
997.60047	0.85683
995.54356	0.86333
993.48665	0.86938
991.42974	0.87495
989.37284	0.88018
987.31593	0.88521
985.25902	0.89027
983.20211	0.89542
981.14520	0.90046
979.08830	0.90521
977.03139	0.90967
974.97448	0.91399
972.91757	0.91811
970.86066	0.92205
968.80375	0.92574
966.74685	0.92912
964.68994	0.93277
962.63303	0.93660
960.57612	0.93968
958.51921	0.94206
956.46231	0.94464
954.40540	0.94731
952.34849	0.94925
950.29158	0.95006
948.23467	0.94994
946.17776	0.94963
944.12086	0.94930
942.06395	0.94855
940.00704	0.94745
937.95013	0.94659
935.89322	0.94617
933.83632	0.94570
931.77941	0.94502
929.72250	0.94433
927.66559	0.94343
925.60868	0.94198
923.55177	0.94023
921.49487	0.93866
919.43796	0.93732
917.38105	0.93651
915.32414	0.93680
913.26723	0.93804
911.21033	0.93983
909.15342	0.94195
907.09651	0.94367
905.03960	0.94457
902.98269	0.94533
900.92578	0.94612
898.86888	0.94660
896.81197	0.94708
894.75506	0.94793
892.69815	0.94921
890.64124	0.95098
888.58434	0.95297
886.52743	0.95510
884.47052	0.95740
882.41361	0.95939
880.35670	0.96104
878.29979	0.96249
876.24289	0.96366
874.18598	0.96458
872.12907	0.96510
870.07216	0.96552
868.01525	0.96637
865.95835	0.96743
863.90144	0.96828
861.84453	0.96920
859.78762	0.97075
857.73071	0.97273
855.67380	0.97395
853.61690	0.97413
851.55999	0.97429
849.50308	0.97502
847.44617	0.97618
845.38926	0.97684
843.33236	0.97651
841.27545	0.97611
839.21854	0.97635
837.16163	0.97690
835.10472	0.97733
833.04781	0.97748
830.99091	0.97728
828.93400	0.97685
826.87709	0.97701
824.82018	0.97815
822.76327	0.97917
820.70637	0.97914
818.64946	0.97887
816.59255	0.97915
814.53564	0.97924
812.47873	0.97872
810.42182	0.97857
808.36492	0.97917
806.30801	0.97954
804.25110	0.97929
802.19419	0.97864
800.13728	0.97769
798.08038	0.97649
796.02347	0.97541
793.96656	0.97531
791.90965	0.97585
789.85274	0.97620
787.79583	0.97618
785.73893	0.97551
783.68202	0.97488
781.62511	0.97482
779.56820	0.97434
777.51129	0.97323
775.45439	0.97218
773.39748	0.97142
771.34057	0.97106
769.28366	0.97116
767.22675	0.97177
765.16984	0.97246
763.11294	0.97260
761.05603	0.97259
758.99912	0.97248
756.94221	0.97154
754.88530	0.97033
752.82839	0.96989
750.77149	0.96992
748.71458	0.96957
746.65767	0.96871
744.60076	0.96770
742.54385	0.96707
740.48695	0.96712
738.43004	0.96697
736.37313	0.96490
734.31622	0.96067
732.25931	0.95581
730.20240	0.95115
728.14550	0.94651
726.08859	0.94265
724.03168	0.94137
721.97477	0.94344
719.91786	0.94750
717.86096	0.95147
715.80405	0.95488
713.74714	0.95796
711.69023	0.95988
709.63332	0.96037
707.57641	0.96082
705.51951	0.96215
703.46260	0.96374
701.40569	0.96471
699.34878	0.96498
697.29187	0.96559
695.23497	0.96652
693.17806	0.96640
691.12115	0.96544
689.06424	0.96507
687.00733	0.96479
684.95042	0.96281
682.89352	0.95970
680.83661	0.95708
678.77970	0.95513
676.72279	0.95385
674.66588	0.95286
672.60898	0.95141
670.55207	0.95026
668.49516	0.95023
666.43825	0.94989
664.38134	0.94883
662.32443	0.94766
660.26753	0.94675
658.21062	0.94659
656.15371	0.94698
654.09680	0.94787
652.03989	0.94884
649.98299	0.94909
647.92608	0.94895
645.86917	0.94891
643.81226	0.94862
641.75535	0.94778
639.69844	0.94687
637.64154	0.94617
635.58463	0.94543
633.52772	0.94467
631.47081	0.94393
629.41390	0.94321
627.35700	0.94208
625.30009	0.94082
623.24318	0.94030
621.18627	0.93983
619.12936	0.93840
617.07245	0.93689
615.01555	0.93647
612.95864	0.93632
610.90173	0.93541
608.84482	0.93387
606.78791	0.93254
604.73101	0.93202
602.67410	0.93147
600.61719	0.93044
598.56028	0.93003
596.50337	0.93009
594.44646	0.92975
592.38956	0.92945
590.33265	0.92912
588.27574	0.92862
586.21883	0.92843
584.16192	0.92862
582.10502	0.92900
580.04811	0.92884
577.99120	0.92714
575.93429	0.92476
573.87738	0.92354
571.82047	0.92332
569.76357	0.92349
567.70666	0.92409
565.64975	0.92485
563.59284	0.92524
561.53593	0.92506
559.47903	0.92482
557.42212	0.92544
555.36521	0.92667
553.30830	0.92724
551.25139	0.92674
549.19448	0.92549
547.13758	0.92404
545.08067	0.92350
543.02376	0.92335
540.96685	0.92236
538.90994	0.92132
536.85304	0.92081
534.79613	0.92173
532.73922	0.92419
530.68231	0.92593
528.62540	0.92574
526.56849	0.92388
524.51159	0.92156
522.45468	0.92001
520.39777	0.91884
518.34086	0.91800
516.28395	0.91874
514.22705	0.91985
512.17014	0.91892
510.11323	0.91631
508.05632	0.91435
505.99941	0.91491
503.94250	0.91627
501.88560	0.91633
499.82869	0.91625
497.77178	0.91619
495.71487	0.91559
493.65796	0.91574
491.60106	0.91633
489.54415	0.91562
487.48724	0.91446
485.43033	0.91419
483.37342	0.91386
481.31651	0.91314
479.25961	0.91311
477.20270	0.91290
475.14579	0.91234
473.08888	0.91236
471.03197	0.91343
468.97507	0.91423
466.91816	0.91317
464.86125	0.91217
462.80434	0.91239
460.74743	0.91316
458.69052	0.91457
456.63362	0.91445
454.57671	0.91214
452.51980	0.91198
450.46289	0.91503
448.40598	0.91701
446.34908	0.91540
444.29217	0.91282
442.23526	0.91273
440.17835	0.91389
438.12144	0.91386
436.06453	0.91293
434.00763	0.91136
431.95072	0.91150
429.89381	0.91579
427.83690	0.91937
425.77999	0.91892
423.72309	0.91768
421.66618	0.91722
419.60927	0.91533
417.55236	0.91419
415.49545	0.91521
413.43854	0.91403
411.38164	0.91378
409.32473	0.91836
407.26782	0.92191
405.21091	0.91931
403.15400	0.91383
401.09710	0.90826
399.04019	0.90224
