3996.57260	0.97050
3994.51569	0.97028
3992.45878	0.97074
3990.40188	0.97121
3988.34497	0.97114
3986.28806	0.97096
3984.23115	0.97038
3982.17424	0.96935
3980.11733	0.96883
3978.06043	0.96963
3976.00352	0.97082
3973.94661	0.97109
3971.88970	0.97078
3969.83279	0.97028
3967.77589	0.96976
3965.71898	0.96981
3963.66207	0.97017
3961.60516	0.97049
3959.54825	0.97064
3957.49134	0.97044
3955.43444	0.97069
3953.37753	0.97157
3951.32062	0.97195
3949.26371	0.97117
3947.20680	0.97025
3945.14990	0.97018
3943.09299	0.97021
3941.03608	0.96996
3938.97917	0.97004
3936.92226	0.97017
3934.86535	0.96995
3932.80845	0.96995
3930.75154	0.97036
3928.69463	0.97058
3926.63772	0.97061
3924.58081	0.97062
3922.52391	0.97058
3920.46700	0.97085
3918.41009	0.97171
3916.35318	0.97209
3914.29627	0.97147
3912.23936	0.97102
3910.18246	0.97119
3908.12555	0.97178
3906.06864	0.97242
3904.01173	0.97263
3901.95482	0.97261
3899.89792	0.97242
3897.84101	0.97162
3895.78410	0.97102
3893.72719	0.97111
3891.67028	0.97109
3889.61337	0.97115
3887.55647	0.97175
3885.49956	0.97210
3883.44265	0.97149
3881.38574	0.97011
3879.32883	0.96940
3877.27193	0.97023
3875.21502	0.97115
3873.15811	0.97112
3871.10120	0.97077
3869.04429	0.97120
3866.98738	0.97181
3864.93048	0.97148
3862.87357	0.97078
3860.81666	0.97116
3858.75975	0.97216
3856.70284	0.97300
3854.64594	0.97369
3852.58903	0.97322
3850.53212	0.97216
3848.47521	0.97214
3846.41830	0.97230
3844.36139	0.97233
3842.30449	0.97265
3840.24758	0.97302
3838.19067	0.97293
3836.13376	0.97255
3834.07685	0.97259
3832.01995	0.97283
3829.96304	0.97324
3827.90613	0.97373
3825.84922	0.97371
3823.79231	0.97348
3821.73540	0.97307
3819.67850	0.97248
3817.62159	0.97291
3815.56468	0.97343
3813.50777	0.97294
3811.45086	0.97270
3809.39396	0.97278
3807.33705	0.97245
3805.28014	0.97276
3803.22323	0.97432
3801.16632	0.97505
3799.10941	0.97373
3797.05251	0.97264
3794.99560	0.97261
3792.93869	0.97286
3790.88178	0.97300
3788.82487	0.97324
3786.76796	0.97341
3784.71106	0.97310
3782.65415	0.97284
3780.59724	0.97345
3778.54033	0.97417
3776.48342	0.97468
3774.42652	0.97512
3772.36961	0.97503
3770.31270	0.97434
3768.25579	0.97279
3766.19888	0.97158
3764.14197	0.97246
3762.08507	0.97413
3760.02816	0.97462
3757.97125	0.97397
3755.91434	0.97349
3753.85743	0.97367
3751.80053	0.97384
3749.74362	0.97320
3747.68671	0.97358
3745.62980	0.97489
3743.57289	0.97425
3741.51598	0.97321
3739.45908	0.97406
3737.40217	0.97533
3735.34526	0.97488
3733.28835	0.97358
3731.23144	0.97375
3729.17454	0.97443
3727.11763	0.97479
3725.06072	0.97471
3723.00381	0.97446
3720.94690	0.97495
3718.88999	0.97536
3716.83309	0.97469
3714.77618	0.97434
3712.71927	0.97522
3710.66236	0.97574
3708.60545	0.97516
3706.54855	0.97449
3704.49164	0.97392
3702.43473	0.97353
3700.37782	0.97382
3698.32091	0.97464
3696.26400	0.97517
3694.20710	0.97521
3692.15019	0.97498
3690.09328	0.97509
3688.03637	0.97553
3685.97946	0.97535
3683.92256	0.97486
3681.86565	0.97445
3679.80874	0.97448
3677.75183	0.97492
3675.69492	0.97503
3673.63801	0.97482
3671.58111	0.97471
3669.52420	0.97473
3667.46729	0.97491
3665.41038	0.97466
3663.35347	0.97374
3661.29657	0.97260
3659.23966	0.97232
3657.18275	0.97259
3655.12584	0.97225
3653.06893	0.97276
3651.01202	0.97500
3648.95512	0.97693
3646.89821	0.97540
3644.84130	0.97278
3642.78439	0.97166
3640.72748	0.97149
3638.67058	0.97088
3636.61367	0.96994
3634.55676	0.96952
3632.49985	0.96961
3630.44294	0.96990
3628.38603	0.97033
3626.32913	0.97049
3624.27222	0.97026
3622.21531	0.96997
3620.15840	0.96978
3618.10149	0.96924
3616.04459	0.96835
3613.98768	0.96804
3611.93077	0.96858
3609.87386	0.96917
3607.81695	0.96931
3605.76004	0.96900
3603.70314	0.96853
3601.64623	0.96800
3599.58932	0.96772
3597.53241	0.96808
3595.47550	0.96822
3593.41860	0.96736
3591.36169	0.96680
3589.30478	0.96723
3587.24787	0.96753
3585.19096	0.96687
3583.13405	0.96620
3581.07715	0.96640
3579.02024	0.96689
3576.96333	0.96644
3574.90642	0.96503
3572.84951	0.96389
3570.79261	0.96398
3568.73570	0.96428
3566.67879	0.96354
3564.62188	0.96258
3562.56497	0.96209
3560.50806	0.96166
3558.45116	0.96063
3556.39425	0.95909
3554.33734	0.95809
3552.28043	0.95773
3550.22352	0.95745
3548.16662	0.95711
3546.10971	0.95657
3544.05280	0.95569
3541.99589	0.95513
3539.93898	0.95482
3537.88207	0.95351
3535.82517	0.95158
3533.76826	0.95104
3531.71135	0.95140
3529.65444	0.95077
3527.59753	0.94993
3525.54063	0.95009
3523.48372	0.95005
3521.42681	0.94906
3519.36990	0.94803
3517.31299	0.94729
3515.25608	0.94681
3513.19918	0.94677
3511.14227	0.94640
3509.08536	0.94524
3507.02845	0.94422
3504.97154	0.94370
3502.91464	0.94310
3500.85773	0.94251
3498.80082	0.94238
3496.74391	0.94248
3494.68700	0.94216
3492.63009	0.94138
3490.57319	0.94089
3488.51628	0.94097
3486.45937	0.94120
3484.40246	0.94146
3482.34555	0.94122
3480.28865	0.94044
3478.23174	0.93987
3476.17483	0.93965
3474.11792	0.93963
3472.06101	0.93961
3470.00410	0.93982
3467.94720	0.94012
3465.89029	0.94017
3463.83338	0.94065
3461.77647	0.94116
3459.71956	0.94103
3457.66266	0.94090
3455.60575	0.94107
3453.54884	0.94144
3451.49193	0.94177
3449.43502	0.94172
3447.37811	0.94174
3445.32121	0.94204
3443.26430	0.94248
3441.20739	0.94343
3439.15048	0.94456
3437.09357	0.94500
3435.03667	0.94488
3432.97976	0.94514
3430.92285	0.94572
3428.86594	0.94588
3426.80903	0.94600
3424.75212	0.94640
3422.69522	0.94661
3420.63831	0.94695
3418.58140	0.94783
3416.52449	0.94858
3414.46758	0.94849
3412.41068	0.94793
3410.35377	0.94791
3408.29686	0.94877
3406.23995	0.94963
3404.18304	0.94998
3402.12613	0.95016
3400.06923	0.95044
3398.01232	0.95076
3395.95541	0.95103
3393.89850	0.95106
3391.84159	0.95068
3389.78469	0.95057
3387.72778	0.95120
3385.67087	0.95214
3383.61396	0.95299
3381.55705	0.95361
3379.50014	0.95386
3377.44324	0.95388
3375.38633	0.95411
3373.32942	0.95462
3371.27251	0.95513
3369.21560	0.95527
3367.15870	0.95526
3365.10179	0.95545
3363.04488	0.95563
3360.98797	0.95570
3358.93106	0.95594
3356.87415	0.95638
3354.81725	0.95637
3352.76034	0.95596
3350.70343	0.95625
3348.64652	0.95696
3346.58961	0.95742
3344.53271	0.95799
3342.47580	0.95837
3340.41889	0.95807
3338.36198	0.95794
3336.30507	0.95874
3334.24816	0.95969
3332.19126	0.95990
3330.13435	0.95946
3328.07744	0.95889
3326.02053	0.95880
3323.96362	0.95955
3321.90672	0.96028
3319.84981	0.95999
3317.79290	0.95953
3315.73599	0.95985
3313.67908	0.96050
3311.62217	0.96098
3309.56527	0.96149
3307.50836	0.96218
3305.45145	0.96247
3303.39454	0.96221
3301.33763	0.96197
3299.28073	0.96187
3297.22382	0.96182
3295.16691	0.96195
3293.11000	0.96220
3291.05309	0.96242
3288.99618	0.96227
3286.93928	0.96209
3284.88237	0.96272
3282.82546	0.96353
3280.76855	0.96371
3278.71164	0.96361
3276.65474	0.96366
3274.59783	0.96373
3272.54092	0.96387
3270.48401	0.96421
3268.42710	0.96433
3266.37019	0.96432
3264.31329	0.96448
3262.25638	0.96446
3260.19947	0.96460
3258.14256	0.96519
3256.08565	0.96550
3254.02875	0.96558
3251.97184	0.96569
3249.91493	0.96553
3247.85802	0.96555
3245.80111	0.96602
3243.74420	0.96648
3241.68730	0.96687
3239.63039	0.96713
3237.57348	0.96678
3235.51657	0.96613
3233.45966	0.96635
3231.40276	0.96721
3229.34585	0.96746
3227.28894	0.96745
3225.23203	0.96787
3223.17512	0.96823
3221.11821	0.96822
3219.06131	0.96798
3217.00440	0.96782
3214.94749	0.96824
3212.89058	0.96858
3210.83367	0.96828
3208.77677	0.96788
3206.71986	0.96757
3204.66295	0.96747
3202.60604	0.96775
3200.54913	0.96838
3198.49222	0.96901
3196.43532	0.96910
3194.37841	0.96886
3192.32150	0.96887
3190.26459	0.96929
3188.20768	0.96964
3186.15078	0.96952
3184.09387	0.96906
3182.03696	0.96870
3179.98005	0.96916
3177.92314	0.96999
3175.86623	0.97021
3173.80933	0.96988
3171.75242	0.96952
3169.69551	0.96951
3167.63860	0.96998
3165.58169	0.97052
3163.52479	0.97028
3161.46788	0.96972
3159.41097	0.97005
3157.35406	0.97102
3155.29715	0.97157
3153.24024	0.97152
3151.18334	0.97107
3149.12643	0.97063
3147.06952	0.97087
3145.01261	0.97127
3142.95570	0.97117
3140.89880	0.97082
3138.84189	0.97045
3136.78498	0.97041
3134.72807	0.97078
3132.67116	0.97130
3130.61425	0.97163
3128.55735	0.97164
3126.50044	0.97151
3124.44353	0.97140
3122.38662	0.97150
3120.32971	0.97177
3118.27281	0.97211
3116.21590	0.97264
3114.15899	0.97294
3112.10208	0.97266
3110.04517	0.97220
3107.98826	0.97185
3105.93136	0.97177
3103.87445	0.97209
3101.81754	0.97255
3099.76063	0.97284
3097.70372	0.97268
3095.64682	0.97204
3093.58991	0.97183
3091.53300	0.97249
3089.47609	0.97308
3087.41918	0.97311
3085.36227	0.97309
3083.30537	0.97304
3081.24846	0.97255
3079.19155	0.97222
3077.13464	0.97242
3075.07773	0.97275
3073.02083	0.97285
3070.96392	0.97244
3068.90701	0.97217
3066.85010	0.97258
3064.79319	0.97288
3062.73628	0.97256
3060.67938	0.97214
3058.62247	0.97214
3056.56556	0.97245
3054.50865	0.97250
3052.45174	0.97224
3050.39484	0.97229
3048.33793	0.97279
3046.28102	0.97308
3044.22411	0.97306
3042.16720	0.97299
3040.11029	0.97265
3038.05339	0.97224
3035.99648	0.97239
3033.93957	0.97286
3031.88266	0.97294
3029.82575	0.97254
3027.76885	0.97199
3025.71194	0.97163
3023.65503	0.97163
3021.59812	0.97189
3019.54121	0.97208
3017.48430	0.97171
3015.42740	0.97085
3013.37049	0.97011
3011.31358	0.96962
3009.25667	0.96872
3007.19976	0.96746
3005.14286	0.96633
3003.08595	0.96506
3001.02904	0.96336
2998.97213	0.96173
2996.91522	0.96016
2994.85831	0.95810
2992.80141	0.95587
2990.74450	0.95382
2988.68759	0.95188
2986.63068	0.95039
2984.57377	0.94907
2982.51687	0.94773
2980.45996	0.94710
2978.40305	0.94744
2976.34614	0.94827
2974.28923	0.94958
2972.23232	0.95132
2970.17542	0.95269
2968.11851	0.95340
2966.06160	0.95393
2964.00469	0.95436
2961.94778	0.95447
2959.89088	0.95430
2957.83397	0.95389
2955.77706	0.95309
2953.72015	0.95179
2951.66324	0.95007
2949.60633	0.94819
2947.54943	0.94629
2945.49252	0.94462
2943.43561	0.94398
2941.37870	0.94486
2939.32179	0.94662
2937.26489	0.94837
2935.20798	0.94971
2933.15107	0.95058
2931.09416	0.95116
2929.03725	0.95176
2926.98034	0.95244
2924.92344	0.95304
2922.86653	0.95325
2920.80962	0.95318
2918.75271	0.95319
2916.69580	0.95321
2914.63890	0.95327
2912.58199	0.95364
2910.52508	0.95426
2908.46817	0.95469
2906.41126	0.95453
2904.35435	0.95413
2902.29745	0.95421
2900.24054	0.95459
2898.18363	0.95449
2896.12672	0.95399
2894.06981	0.95349
2892.01291	0.95278
2889.95600	0.95178
2887.89909	0.95066
2885.84218	0.94948
2883.78527	0.94885
2881.72836	0.94942
2879.67146	0.95084
2877.61455	0.95251
2875.55764	0.95422
2873.50073	0.95565
2871.44382	0.95666
2869.38692	0.95755
2867.33001	0.95852
2865.27310	0.95953
2863.21619	0.96056
2861.15928	0.96144
2859.10237	0.96201
2857.04547	0.96253
2854.98856	0.96332
2852.93165	0.96431
2850.87474	0.96523
2848.81783	0.96593
2846.76093	0.96628
2844.70402	0.96648
2842.64711	0.96675
2840.59020	0.96706
2838.53329	0.96752
2836.47638	0.96815
2834.41948	0.96868
2832.36257	0.96896
2830.30566	0.96902
2828.24875	0.96890
2826.19184	0.96875
2824.13494	0.96865
2822.07803	0.96877
2820.02112	0.96893
2817.96421	0.96887
2815.90730	0.96895
2813.85039	0.96912
2811.79349	0.96925
2809.73658	0.96958
2807.67967	0.97016
2805.62276	0.97085
2803.56585	0.97095
2801.50895	0.97049
2799.45204	0.97015
2797.39513	0.97018
2795.33822	0.97067
2793.28131	0.97146
2791.22440	0.97213
2789.16750	0.97236
2787.11059	0.97211
2785.05368	0.97187
2782.99677	0.97206
2780.93986	0.97241
2778.88296	0.97257
2776.82605	0.97259
2774.76914	0.97239
2772.71223	0.97210
2770.65532	0.97214
2768.59841	0.97229
2766.54151	0.97227
2764.48460	0.97218
2762.42769	0.97207
2760.37078	0.97200
2758.31387	0.97196
2756.25697	0.97205
2754.20006	0.97227
2752.14315	0.97243
2750.08624	0.97229
2748.02933	0.97205
2745.97242	0.97214
2743.91552	0.97240
2741.85861	0.97240
2739.80170	0.97224
2737.74479	0.97236
2735.68788	0.97257
2733.63098	0.97254
2731.57407	0.97253
2729.51716	0.97286
2727.46025	0.97320
2725.40334	0.97325
2723.34643	0.97333
2721.28953	0.97359
2719.23262	0.97361
2717.17571	0.97344
2715.11880	0.97350
2713.06189	0.97371
2711.00499	0.97397
2708.94808	0.97422
2706.89117	0.97431
2704.83426	0.97453
2702.77735	0.97481
2700.72044	0.97471
2698.66354	0.97443
2696.60663	0.97416
2694.54972	0.97396
2692.49281	0.97405
2690.43590	0.97435
2688.37900	0.97448
2686.32209	0.97429
2684.26518	0.97422
2682.20827	0.97462
2680.15136	0.97508
2678.09445	0.97512
2676.03755	0.97488
2673.98064	0.97465
2671.92373	0.97445
2669.86682	0.97418
2667.80991	0.97400
2665.75301	0.97405
2663.69610	0.97400
2661.63919	0.97378
2659.58228	0.97370
2657.52537	0.97367
2655.46846	0.97353
2653.41156	0.97366
2651.35465	0.97416
2649.29774	0.97434
2647.24083	0.97416
2645.18392	0.97420
2643.12702	0.97436
2641.07011	0.97433
2639.01320	0.97454
2636.95629	0.97507
2634.89938	0.97537
2632.84247	0.97512
2630.78557	0.97453
2628.72866	0.97441
2626.67175	0.97493
2624.61484	0.97530
2622.55793	0.97497
2620.50103	0.97446
2618.44412	0.97474
2616.38721	0.97551
2614.33030	0.97581
2612.27339	0.97553
2610.21648	0.97510
2608.15958	0.97507
2606.10267	0.97565
2604.04576	0.97619
2601.98885	0.97603
2599.93194	0.97567
2597.87504	0.97602
2595.81813	0.97689
2593.76122	0.97728
2591.70431	0.97698
2589.64740	0.97690
2587.59049	0.97732
2585.53359	0.97772
2583.47668	0.97790
2581.41977	0.97803
2579.36286	0.97773
2577.30595	0.97681
2575.24905	0.97634
2573.19214	0.97654
2571.13523	0.97686
2569.07832	0.97736
2567.02141	0.97783
2564.96450	0.97788
2562.90760	0.97754
2560.85069	0.97715
2558.79378	0.97715
2556.73687	0.97763
2554.67996	0.97818
2552.62306	0.97838
2550.56615	0.97840
2548.50924	0.97859
2546.45233	0.97871
2544.39542	0.97831
2542.33851	0.97807
2540.28161	0.97857
2538.22470	0.97868
2536.16779	0.97766
2534.11088	0.97666
2532.05397	0.97668
2529.99707	0.97718
2527.94016	0.97739
2525.88325	0.97738
2523.82634	0.97770
2521.76943	0.97830
2519.71252	0.97902
2517.65562	0.97995
2515.59871	0.98041
2513.54180	0.97985
2511.48489	0.97899
2509.42798	0.97879
2507.37108	0.97929
2505.31417	0.97922
2503.25726	0.97812
2501.20035	0.97745
2499.14344	0.97779
2497.08653	0.97840
2495.02963	0.97895
2492.97272	0.97916
2490.91581	0.97896
2488.85890	0.97875
2486.80199	0.97865
2484.74509	0.97863
2482.68818	0.97857
2480.63127	0.97847
2478.57436	0.97888
2476.51745	0.97991
2474.46054	0.98027
2472.40364	0.97956
2470.34673	0.97867
2468.28982	0.97792
2466.23291	0.97759
2464.17600	0.97817
2462.11910	0.97932
2460.06219	0.97990
2458.00528	0.97977
2455.94837	0.97952
2453.89146	0.97901
2451.83455	0.97828
2449.77765	0.97800
2447.72074	0.97814
2445.66383	0.97827
2443.60692	0.97857
2441.55001	0.97933
2439.49311	0.97995
2437.43620	0.97990
2435.37929	0.97950
2433.32238	0.97898
2431.26547	0.97861
2429.20856	0.97891
2427.15166	0.97964
2425.09475	0.97989
2423.03784	0.97984
2420.98093	0.98009
2418.92402	0.97972
2416.86712	0.97860
2414.81021	0.97787
2412.75330	0.97810
2410.69639	0.97917
2408.63948	0.97988
2406.58257	0.97967
2404.52567	0.97969
2402.46876	0.98016
2400.41185	0.98017
2398.35494	0.97958
2396.29803	0.97938
2394.24113	0.98001
2392.18422	0.98059
2390.12731	0.98050
2388.07040	0.98010
2386.01349	0.97957
2383.95658	0.97925
2381.89968	0.97949
2379.84277	0.98002
2377.78586	0.98072
2375.72895	0.98101
2373.67204	0.98049
2371.61514	0.98003
2369.55823	0.98045
2367.50132	0.98181
2365.44441	0.98300
2363.38750	0.98301
2361.33059	0.98272
2359.27369	0.98290
2357.21678	0.98247
2355.15987	0.98084
2353.10296	0.97942
2351.04605	0.97921
2348.98915	0.97922
2346.93224	0.97905
2344.87533	0.97925
2342.81842	0.97955
2340.76151	0.97962
2338.70460	0.98020
2336.64770	0.98154
2334.59079	0.98244
2332.53388	0.98204
2330.47697	0.98147
2328.42006	0.98095
2326.36316	0.97948
2324.30625	0.97857
2322.24934	0.97898
2320.19243	0.97906
2318.13552	0.97896
2316.07861	0.97922
2314.02171	0.97962
2311.96480	0.98025
2309.90789	0.98064
2307.85098	0.98040
2305.79407	0.98014
2303.73717	0.98029
2301.68026	0.98051
2299.62335	0.98046
2297.56644	0.98029
2295.50953	0.97985
2293.45262	0.97905
2291.39572	0.97880
2289.33881	0.97934
2287.28190	0.97959
2285.22499	0.97956
2283.16808	0.98020
2281.11117	0.98069
2279.05427	0.98043
2276.99736	0.98058
2274.94045	0.98136
2272.88354	0.98159
2270.82663	0.98032
2268.76973	0.97865
2266.71282	0.97849
2264.65591	0.97977
2262.59900	0.98106
2260.54209	0.98150
2258.48518	0.98139
2256.42828	0.98181
2254.37137	0.98267
2252.31446	0.98268
2250.25755	0.98167
2248.20064	0.98092
2246.14374	0.98146
2244.08683	0.98247
2242.02992	0.98274
2239.97301	0.98278
2237.91610	0.98315
2235.85919	0.98315
2233.80229	0.98275
2231.74538	0.98268
2229.68847	0.98273
2227.63156	0.98277
2225.57465	0.98288
2223.51775	0.98316
2221.46084	0.98432
2219.40393	0.98500
2217.34702	0.98334
2215.29011	0.98177
2213.23320	0.98230
2211.17630	0.98355
2209.11939	0.98424
2207.06248	0.98402
2205.00557	0.98313
2202.94866	0.98211
2200.89176	0.98167
2198.83485	0.98246
2196.77794	0.98394
2194.72103	0.98386
2192.66412	0.98207
2190.60721	0.98153
2188.55031	0.98279
2186.49340	0.98388
2184.43649	0.98524
2182.37958	0.98700
2180.32267	0.98702
2178.26577	0.98660
2176.20886	0.98694
2174.15195	0.98647
2172.09504	0.98587
2170.03813	0.98566
2167.98122	0.98574
2165.92432	0.98728
2163.86741	0.98908
2161.81050	0.98966
2159.75359	0.98983
2157.69668	0.98896
2155.63978	0.98755
2153.58287	0.98763
2151.52596	0.98902
2149.46905	0.99039
2147.41214	0.99112
2145.35523	0.99088
2143.29833	0.99004
2141.24142	0.98927
2139.18451	0.98871
2137.12760	0.98821
2135.07069	0.98702
2133.01379	0.98571
2130.95688	0.98576
2128.89997	0.98666
2126.84306	0.98702
2124.78615	0.98670
2122.72924	0.98616
2120.67234	0.98543
2118.61543	0.98496
2116.55852	0.98509
2114.50161	0.98498
2112.44470	0.98425
2110.38780	0.98362
2108.33089	0.98359
2106.27398	0.98365
2104.21707	0.98379
2102.16016	0.98470
2100.10325	0.98581
2098.04635	0.98561
2095.98944	0.98426
2093.93253	0.98341
2091.87562	0.98279
2089.81871	0.98255
2087.76181	0.98407
2085.70490	0.98556
2083.64799	0.98501
2081.59108	0.98403
2079.53417	0.98438
2077.47726	0.98521
2075.42036	0.98550
2073.36345	0.98511
2071.30654	0.98418
2069.24963	0.98408
2067.19272	0.98513
2065.13582	0.98567
2063.07891	0.98583
2061.02200	0.98624
2058.96509	0.98601
2056.90818	0.98604
2054.85127	0.98702
2052.79437	0.98748
2050.73746	0.98733
2048.68055	0.98749
2046.62364	0.98805
2044.56673	0.98824
2042.50983	0.98711
2040.45292	0.98574
2038.39601	0.98566
2036.33910	0.98628
2034.28219	0.98694
2032.22528	0.98772
2030.16838	0.98774
2028.11147	0.98667
2026.05456	0.98659
2023.99765	0.98817
2021.94074	0.98976
2019.88384	0.99089
2017.82693	0.99192
2015.77002	0.99214
2013.71311	0.99053
2011.65620	0.98888
2009.59929	0.98940
2007.54239	0.99007
2005.48548	0.98868
2003.42857	0.98689
2001.37166	0.98666
1999.31475	0.98785
1997.25785	0.98874
1995.20094	0.98880
1993.14403	0.98875
1991.08712	0.98769
1989.03021	0.98628
1986.97330	0.98651
1984.91640	0.98785
1982.85949	0.98945
1980.80258	0.99032
1978.74567	0.98935
1976.68876	0.98833
1974.63186	0.98902
1972.57495	0.99037
1970.51804	0.99087
1968.46113	0.98979
1966.40422	0.98861
1964.34731	0.98808
1962.29041	0.98762
1960.23350	0.98814
1958.17659	0.98873
1956.11968	0.98766
1954.06277	0.98651
1952.00587	0.98751
1949.94896	0.98985
1947.89205	0.99164
1945.83514	0.99176
1943.77823	0.99029
1941.72132	0.98930
1939.66442	0.98868
1937.60751	0.98723
1935.55060	0.98668
1933.49369	0.98743
1931.43678	0.98782
1929.37988	0.98744
1927.32297	0.98675
1925.26606	0.98626
1923.20915	0.98592
1921.15224	0.98630
1919.09533	0.98759
1917.03843	0.98832
1914.98152	0.98815
1912.92461	0.98807
1910.86770	0.98831
1908.81079	0.98811
1906.75389	0.98745
1904.69698	0.98703
1902.64007	0.98657
1900.58316	0.98610
1898.52625	0.98628
1896.46934	0.98672
1894.41244	0.98730
1892.35553	0.98798
1890.29862	0.98804
1888.24171	0.98745
1886.18480	0.98673
1884.12790	0.98635
1882.07099	0.98604
1880.01408	0.98588
1877.95717	0.98624
1875.90026	0.98698
1873.84335	0.98734
1871.78645	0.98733
1869.72954	0.98771
1867.67263	0.98810
1865.61572	0.98803
1863.55881	0.98784
1861.50191	0.98748
1859.44500	0.98701
1857.38809	0.98693
1855.33118	0.98714
1853.27427	0.98735
1851.21736	0.98744
1849.16046	0.98724
1847.10355	0.98694
1845.04664	0.98697
1842.98973	0.98701
1840.93282	0.98701
1838.87592	0.98740
1836.81901	0.98763
1834.76210	0.98759
1832.70519	0.98742
1830.64828	0.98686
1828.59137	0.98600
1826.53447	0.98559
1824.47756	0.98553
1822.42065	0.98532
1820.36374	0.98540
1818.30683	0.98595
1816.24993	0.98627
1814.19302	0.98595
1812.13611	0.98542
1810.07920	0.98503
1808.02229	0.98504
1805.96538	0.98499
1803.90848	0.98465
1801.85157	0.98427
1799.79466	0.98418
1797.73775	0.98425
1795.68084	0.98407
1793.62394	0.98376
1791.56703	0.98316
1789.51012	0.98235
1787.45321	0.98156
1785.39630	0.98079
1783.33939	0.97996
1781.28249	0.97865
1779.22558	0.97658
1777.16867	0.97444
1775.11176	0.97168
1773.05485	0.96622
1770.99795	0.95735
1768.94104	0.94610
1766.88413	0.93218
1764.82722	0.91769
1762.77031	0.90208
1760.71340	0.88452
1758.65650	0.86912
1756.59959	0.85414
1754.54268	0.84007
1752.48577	0.82650
1750.42886	0.80889
1748.37196	0.79024
1746.31505	0.77562
1744.25814	0.76374
1742.20123	0.75418
1740.14432	0.74718
1738.08741	0.74379
1736.03051	0.74481
1733.97360	0.74859
1731.91669	0.75324
1729.85978	0.75942
1727.80287	0.76790
1725.74597	0.77796
1723.68906	0.78957
1721.63215	0.80135
1719.57524	0.81346
1717.51833	0.82878
1715.46142	0.84504
1713.40452	0.85842
1711.34761	0.87050
1709.29070	0.88206
1707.23379	0.89347
1705.17688	0.90485
1703.11998	0.91384
1701.06307	0.92164
1699.00616	0.93016
1696.94925	0.93669
1694.89234	0.94168
1692.83543	0.94536
1690.77853	0.94822
1688.72162	0.95077
1686.66471	0.95300
1684.60780	0.95528
1682.55089	0.95731
1680.49399	0.95929
1678.43708	0.96124
1676.38017	0.96264
1674.32326	0.96324
1672.26635	0.96372
1670.20944	0.96466
1668.15254	0.96535
1666.09563	0.96557
1664.03872	0.96586
1661.98181	0.96610
1659.92490	0.96623
1657.86800	0.96659
1655.81109	0.96716
1653.75418	0.96751
1651.69727	0.96717
1649.64036	0.96730
1647.58345	0.96809
1645.52655	0.96841
1643.46964	0.96813
1641.41273	0.96819
1639.35582	0.96852
1637.29891	0.96867
1635.24201	0.96810
1633.18510	0.96757
1631.12819	0.96799
1629.07128	0.96882
1627.01437	0.96945
1624.95746	0.96970
1622.90056	0.96973
1620.84365	0.96981
1618.78674	0.97038
1616.72983	0.97140
1614.67292	0.97233
1612.61602	0.97320
1610.55911	0.97393
1608.50220	0.97422
1606.44529	0.97437
1604.38838	0.97502
1602.33147	0.97583
1600.27457	0.97604
1598.21766	0.97609
1596.16075	0.97660
1594.10384	0.97732
1592.04693	0.97774
1589.99003	0.97796
1587.93312	0.97817
1585.87621	0.97843
1583.81930	0.97888
1581.76239	0.97934
1579.70548	0.97939
1577.64858	0.97924
1575.59167	0.97933
1573.53476	0.97954
1571.47785	0.97971
1569.42094	0.97986
1567.36404	0.97996
1565.30713	0.98002
1563.25022	0.98011
1561.19331	0.98031
1559.13640	0.98108
1557.07949	0.98170
1555.02259	0.98112
1552.96568	0.98042
1550.90877	0.98033
1548.85186	0.98049
1546.79495	0.98061
1544.73805	0.98084
1542.68114	0.98135
1540.62423	0.98212
1538.56732	0.98198
1536.51041	0.98116
1534.45350	0.98061
1532.39660	0.98049
1530.33969	0.98069
1528.28278	0.98112
1526.22587	0.98143
1524.16896	0.98113
1522.11206	0.98080
1520.05515	0.98122
1517.99824	0.98171
1515.94133	0.98174
1513.88442	0.98137
1511.82751	0.98071
1509.77061	0.98029
1507.71370	0.98055
1505.65679	0.98059
1503.59988	0.98015
1501.54297	0.97991
1499.48607	0.97987
1497.42916	0.97963
1495.37225	0.97908
1493.31534	0.97871
1491.25843	0.97846
1489.20152	0.97806
1487.14462	0.97749
1485.08771	0.97684
1483.03080	0.97592
1480.97389	0.97449
1478.91698	0.97261
1476.86008	0.97027
1474.80317	0.96651
1472.74626	0.95832
1470.68935	0.94698
1468.63244	0.93701
1466.57553	0.92726
1464.51863	0.91845
1462.46172	0.91540
1460.40481	0.91762
1458.34790	0.92290
1456.29099	0.92930
1454.23409	0.93326
1452.17718	0.93651
1450.12027	0.94020
1448.06336	0.94369
1446.00645	0.94612
1443.94954	0.94763
1441.89264	0.94872
1439.83573	0.94937
1437.77882	0.94919
1435.72191	0.94743
1433.66500	0.94491
1431.60810	0.94194
1429.55119	0.93783
1427.49428	0.93322
1425.43737	0.92904
1423.38046	0.92579
1421.32355	0.92444
1419.26665	0.92564
1417.20974	0.92876
1415.15283	0.93193
1413.09592	0.93505
1411.03901	0.93816
1408.98211	0.94074
1406.92520	0.94263
1404.86829	0.94399
1402.81138	0.94492
1400.75447	0.94520
1398.69756	0.94431
1396.64066	0.94232
1394.58375	0.93937
1392.52684	0.93545
1390.46993	0.93100
1388.41302	0.92549
1386.35612	0.91870
1384.29921	0.91252
1382.24230	0.90785
1380.18539	0.90455
1378.12848	0.90268
1376.07157	0.90190
1374.01467	0.90122
1371.95776	0.90001
1369.90085	0.89844
1367.84394	0.89657
1365.78703	0.89464
1363.73013	0.89251
1361.67322	0.89004
1359.61631	0.88778
1357.55940	0.88580
1355.50249	0.88398
1353.44558	0.88268
1351.38868	0.88236
1349.33177	0.88320
1347.27486	0.88529
1345.21795	0.88867
1343.16104	0.89269
1341.10414	0.89658
1339.04723	0.90000
1336.99032	0.90264
1334.93341	0.90436
1332.87650	0.90503
1330.81959	0.90485
1328.76269	0.90449
1326.70578	0.90439
1324.64887	0.90476
1322.59196	0.90582
1320.53505	0.90776
1318.47815	0.91064
1316.42124	0.91430
1314.36433	0.91858
1312.30742	0.92303
1310.25051	0.92693
1308.19360	0.92999
1306.13670	0.93225
1304.07979	0.93376
1302.02288	0.93451
1299.96597	0.93438
1297.90906	0.93318
1295.85216	0.93094
1293.79525	0.92782
1291.73834	0.92392
1289.68143	0.91942
1287.62452	0.91454
1285.56761	0.90935
1283.51071	0.90396
1281.45380	0.89872
1279.39689	0.89406
1277.33998	0.89037
1275.28307	0.88818
1273.22617	0.88786
1271.16926	0.88912
1269.11235	0.89154
1267.05544	0.89492
1264.99853	0.89896
1262.94162	0.90329
1260.88472	0.90739
1258.82781	0.91077
1256.77090	0.91316
1254.71399	0.91472
1252.65708	0.91601
1250.60018	0.91713
1248.54327	0.91753
1246.48636	0.91695
1244.42945	0.91571
1242.37254	0.91400
1240.31563	0.91182
1238.25873	0.90917
1236.20182	0.90615
1234.14491	0.90279
1232.08800	0.89909
1230.03109	0.89510
1227.97419	0.89084
1225.91728	0.88594
1223.86037	0.87983
1221.80346	0.87247
1219.74655	0.86408
1217.68964	0.85485
1215.63274	0.84491
1213.57583	0.83415
1211.51892	0.82281
1209.46201	0.81161
1207.40510	0.80076
1205.34820	0.79004
1203.29129	0.77948
1201.23438	0.76932
1199.17747	0.75954
1197.12056	0.74977
1195.06365	0.74018
1193.00675	0.73129
1190.94984	0.72319
1188.89293	0.71606
1186.83602	0.71052
1184.77911	0.70668
1182.72221	0.70395
1180.66530	0.70223
1178.60839	0.70151
1176.55148	0.70110
1174.49457	0.70024
1172.43766	0.69868
1170.38076	0.69660
1168.32385	0.69441
1166.26694	0.69273
1164.21003	0.69236
1162.15312	0.69407
1160.09622	0.69832
1158.03931	0.70494
1155.98240	0.71404
1153.92549	0.72579
1151.86858	0.73939
1149.81167	0.75360
1147.75477	0.76755
1145.69786	0.78079
1143.64095	0.79277
1141.58404	0.80273
1139.52713	0.81025
1137.47023	0.81560
1135.41332	0.81891
1133.35641	0.82005
1131.29950	0.81935
1129.24259	0.81771
1127.18568	0.81621
1125.12878	0.81533
1123.07187	0.81473
1121.01496	0.81424
1118.95805	0.81418
1116.90114	0.81455
1114.84424	0.81516
1112.78733	0.81578
1110.73042	0.81589
1108.67351	0.81528
1106.61660	0.81381
1104.55969	0.81101
1102.50279	0.80654
1100.44588	0.80042
1098.38897	0.79255
1096.33206	0.78182
1094.27515	0.76694
1092.21825	0.74803
1090.16134	0.72672
1088.10443	0.70530
1086.04752	0.68609
1083.99061	0.67153
1081.93370	0.66300
1079.87680	0.65898
1077.81989	0.65660
1075.76298	0.65378
1073.70607	0.64944
1071.64916	0.64379
1069.59226	0.63782
1067.53535	0.63255
1065.47844	0.62892
1063.42153	0.62704
1061.36462	0.62640
1059.30771	0.62697
1057.25081	0.62881
1055.19390	0.63202
1053.13699	0.63648
1051.08008	0.64163
1049.02317	0.64678
1046.96627	0.65108
1044.90936	0.65390
1042.85245	0.65524
1040.79554	0.65515
1038.73863	0.65421
1036.68172	0.65354
1034.62482	0.65319
1032.56791	0.65258
1030.51100	0.65181
1028.45409	0.65130
1026.39718	0.65167
1024.34028	0.65335
1022.28337	0.65639
1020.22646	0.66096
1018.16955	0.66682
1016.11264	0.67354
1014.05573	0.68158
1011.99883	0.69211
1009.94192	0.70591
1007.88501	0.72236
1005.82810	0.73981
1003.77119	0.75680
1001.71429	0.77293
999.65738	0.78800
997.60047	0.80140
995.54356	0.81300
993.48665	0.82321
991.42974	0.83269
989.37284	0.84155
987.31593	0.84909
985.25902	0.85490
983.20211	0.85935
981.14520	0.86289
979.08830	0.86575
977.03139	0.86811
974.97448	0.87001
972.91757	0.87104
970.86066	0.87129
968.80375	0.87166
966.74685	0.87238
964.68994	0.87326
962.63303	0.87507
960.57612	0.87861
958.51921	0.88374
956.46231	0.89029
954.40540	0.89788
952.34849	0.90554
950.29158	0.91227
948.23467	0.91751
946.17776	0.92147
944.12086	0.92432
942.06395	0.92575
940.00704	0.92619
937.95013	0.92660
935.89322	0.92717
933.83632	0.92784
931.77941	0.92862
929.72250	0.92916
927.66559	0.92947
925.60868	0.92982
923.55177	0.92984
921.49487	0.92920
919.43796	0.92817
917.38105	0.92679
915.32414	0.92501
913.26723	0.92310
911.21033	0.92131
909.15342	0.92026
907.09651	0.92019
905.03960	0.92031
902.98269	0.92072
900.92578	0.92175
898.86888	0.92276
896.81197	0.92318
894.75506	0.92247
892.69815	0.92056
890.64124	0.91814
888.58434	0.91558
886.52743	0.91292
884.47052	0.91009
882.41361	0.90718
880.35670	0.90494
878.29979	0.90387
876.24289	0.90445
874.18598	0.90765
872.12907	0.91375
870.07216	0.92129
868.01525	0.92828
865.95835	0.93435
863.90144	0.93975
861.84453	0.94373
859.78762	0.94559
857.73071	0.94621
855.67380	0.94698
853.61690	0.94822
851.55999	0.94915
849.50308	0.94901
847.44617	0.94878
845.38926	0.94944
843.33236	0.95030
841.27545	0.95119
839.21854	0.95215
837.16163	0.95292
835.10472	0.95368
833.04781	0.95434
830.99091	0.95467
828.93400	0.95491
826.87709	0.95510
824.82018	0.95483
822.76327	0.95348
820.70637	0.95060
818.64946	0.94640
816.59255	0.94096
814.53564	0.93298
812.47873	0.92160
810.42182	0.90837
808.36492	0.89663
806.30801	0.89109
804.25110	0.89491
802.19419	0.90634
800.13728	0.92046
798.08038	0.93270
796.02347	0.94184
793.96656	0.94856
791.90965	0.95298
789.85274	0.95545
787.79583	0.95696
785.73893	0.95822
783.68202	0.95910
781.62511	0.95998
779.56820	0.96110
777.51129	0.96152
775.45439	0.96133
773.39748	0.96176
771.34057	0.96260
769.28366	0.96305
767.22675	0.96311
765.16984	0.96275
763.11294	0.96203
761.05603	0.96142
758.99912	0.96110
756.94221	0.96103
754.88530	0.96107
752.82839	0.96056
750.77149	0.95962
748.71458	0.95922
746.65767	0.95917
744.60076	0.95868
742.54385	0.95752
740.48695	0.95604
738.43004	0.95497
736.37313	0.95501
734.31622	0.95597
732.25931	0.95655
730.20240	0.95618
728.14550	0.95557
726.08859	0.95472
724.03168	0.95353
721.97477	0.95271
719.91786	0.95226
717.86096	0.95133
715.80405	0.94984
713.74714	0.94858
711.69023	0.94786
709.63332	0.94763
707.57641	0.94720
705.51951	0.94620
703.46260	0.94589
701.40569	0.94636
699.34878	0.94657
697.29187	0.94600
695.23497	0.94443
693.17806	0.94250
691.12115	0.94111
689.06424	0.94013
687.00733	0.93903
684.95042	0.93785
682.89352	0.93649
680.83661	0.93430
678.77970	0.93195
676.72279	0.93029
674.66588	0.92849
672.60898	0.92714
670.55207	0.92730
668.49516	0.92670
666.43825	0.92404
664.38134	0.92267
662.32443	0.92234
660.26753	0.92218
658.21062	0.92268
656.15371	0.92333
654.09680	0.92307
652.03989	0.92275
649.98299	0.92335
647.92608	0.92367
645.86917	0.92273
643.81226	0.92155
641.75535	0.92091
639.69844	0.92000
637.64154	0.91814
635.58463	0.91607
633.52772	0.91489
631.47081	0.91392
629.41390	0.91204
627.35700	0.91056
625.30009	0.91026
623.24318	0.90959
621.18627	0.90778
619.12936	0.90535
617.07245	0.90274
615.01555	0.90079
612.95864	0.89986
610.90173	0.89912
608.84482	0.89809
606.78791	0.89674
604.73101	0.89532
602.67410	0.89375
600.61719	0.89195
598.56028	0.89054
596.50337	0.88985
594.44646	0.88948
592.38956	0.88887
590.33265	0.88837
588.27574	0.88831
586.21883	0.88817
584.16192	0.88819
582.10502	0.88811
580.04811	0.88699
577.99120	0.88592
575.93429	0.88624
573.87738	0.88655
571.82047	0.88486
569.76357	0.88213
567.70666	0.88101
565.64975	0.88085
563.59284	0.88019
561.53593	0.88031
559.47903	0.88159
557.42212	0.88319
555.36521	0.88535
553.30830	0.88761
551.25139	0.88842
549.19448	0.88786
547.13758	0.88714
545.08067	0.88695
543.02376	0.88721
540.96685	0.88791
538.90994	0.88829
536.85304	0.88723
534.79613	0.88594
532.73922	0.88551
530.68231	0.88449
528.62540	0.88256
526.56849	0.88215
524.51159	0.88357
522.45468	0.88370
520.39777	0.88212
518.34086	0.88086
516.28395	0.88058
514.22705	0.88036
512.17014	0.87901
510.11323	0.87709
508.05632	0.87653
505.99941	0.87759
503.94250	0.87898
501.88560	0.87966
499.82869	0.87916
497.77178	0.87814
495.71487	0.87719
493.65796	0.87567
491.60106	0.87469
489.54415	0.87470
487.48724	0.87364
485.43033	0.87225
483.37342	0.87163
481.31651	0.87144
479.25961	0.87195
477.20270	0.87102
475.14579	0.86727
473.08888	0.86480
471.03197	0.86639
468.97507	0.86806
466.91816	0.86711
464.86125	0.86572
462.80434	0.86627
460.74743	0.86925
458.69052	0.87272
456.63362	0.87256
454.57671	0.87021
452.51980	0.87032
450.46289	0.87263
448.40598	0.87392
446.34908	0.87302
444.29217	0.87180
442.23526	0.87187
440.17835	0.87213
438.12144	0.87125
436.06453	0.87023
434.00763	0.86962
431.95072	0.86899
429.89381	0.86952
427.83690	0.87136
425.77999	0.87269
423.72309	0.87421
421.66618	0.87952
419.60927	0.88547
417.55236	0.88191
415.49545	0.87737
413.43854	0.87908
411.38164	0.88051
409.32473	0.87774
407.26782	0.87691
405.21091	0.87993
403.15400	0.88380
401.09710	0.89022
399.04019	0.89670
