3996.57260	0.98627
3994.51569	0.98586
3992.45878	0.98599
3990.40188	0.98641
3988.34497	0.98674
3986.28806	0.98697
3984.23115	0.98688
3982.17424	0.98649
3980.11733	0.98607
3978.06043	0.98603
3976.00352	0.98671
3973.94661	0.98764
3971.88970	0.98793
3969.83279	0.98767
3967.77589	0.98777
3965.71898	0.98840
3963.66207	0.98883
3961.60516	0.98845
3959.54825	0.98731
3957.49134	0.98632
3955.43444	0.98654
3953.37753	0.98766
3951.32062	0.98807
3949.26371	0.98721
3947.20680	0.98606
3945.14990	0.98537
3943.09299	0.98552
3941.03608	0.98587
3938.97917	0.98598
3936.92226	0.98660
3934.86535	0.98706
3932.80845	0.98664
3930.75154	0.98613
3928.69463	0.98600
3926.63772	0.98579
3924.58081	0.98575
3922.52391	0.98608
3920.46700	0.98631
3918.41009	0.98628
3916.35318	0.98625
3914.29627	0.98651
3912.23936	0.98692
3910.18246	0.98736
3908.12555	0.98754
3906.06864	0.98702
3904.01173	0.98656
3901.95482	0.98726
3899.89792	0.98775
3897.84101	0.98740
3895.78410	0.98756
3893.72719	0.98829
3891.67028	0.98836
3889.61337	0.98755
3887.55647	0.98689
3885.49956	0.98650
3883.44265	0.98645
3881.38574	0.98631
3879.32883	0.98615
3877.27193	0.98676
3875.21502	0.98749
3873.15811	0.98772
3871.10120	0.98694
3869.04429	0.98538
3866.98738	0.98523
3864.93048	0.98611
3862.87357	0.98659
3860.81666	0.98724
3858.75975	0.98819
3856.70284	0.98893
3854.64594	0.98893
3852.58903	0.98781
3850.53212	0.98682
3848.47521	0.98620
3846.41830	0.98645
3844.36139	0.98713
3842.30449	0.98684
3840.24758	0.98642
3838.19067	0.98666
3836.13376	0.98659
3834.07685	0.98644
3832.01995	0.98690
3829.96304	0.98743
3827.90613	0.98688
3825.84922	0.98579
3823.79231	0.98562
3821.73540	0.98585
3819.67850	0.98586
3817.62159	0.98649
3815.56468	0.98732
3813.50777	0.98756
3811.45086	0.98758
3809.39396	0.98735
3807.33705	0.98641
3805.28014	0.98568
3803.22323	0.98605
3801.16632	0.98656
3799.10941	0.98619
3797.05251	0.98551
3794.99560	0.98534
3792.93869	0.98577
3790.88178	0.98647
3788.82487	0.98723
3786.76796	0.98744
3784.71106	0.98693
3782.65415	0.98682
3780.59724	0.98703
3778.54033	0.98645
3776.48342	0.98636
3774.42652	0.98773
3772.36961	0.98869
3770.31270	0.98818
3768.25579	0.98760
3766.19888	0.98796
3764.14197	0.98864
3762.08507	0.98869
3760.02816	0.98789
3757.97125	0.98733
3755.91434	0.98786
3753.85743	0.98828
3751.80053	0.98729
3749.74362	0.98580
3747.68671	0.98552
3745.62980	0.98540
3743.57289	0.98468
3741.51598	0.98433
3739.45908	0.98461
3737.40217	0.98516
3735.34526	0.98607
3733.28835	0.98715
3731.23144	0.98739
3729.17454	0.98707
3727.11763	0.98699
3725.06072	0.98715
3723.00381	0.98707
3720.94690	0.98654
3718.88999	0.98657
3716.83309	0.98772
3714.77618	0.98788
3712.71927	0.98576
3710.66236	0.98429
3708.60545	0.98538
3706.54855	0.98656
3704.49164	0.98697
3702.43473	0.98688
3700.37782	0.98677
3698.32091	0.98672
3696.26400	0.98682
3694.20710	0.98693
3692.15019	0.98667
3690.09328	0.98623
3688.03637	0.98605
3685.97946	0.98622
3683.92256	0.98676
3681.86565	0.98745
3679.80874	0.98790
3677.75183	0.98793
3675.69492	0.98742
3673.63801	0.98698
3671.58111	0.98711
3669.52420	0.98698
3667.46729	0.98684
3665.41038	0.98707
3663.35347	0.98726
3661.29657	0.98743
3659.23966	0.98738
3657.18275	0.98627
3655.12584	0.98466
3653.06893	0.98425
3651.01202	0.98489
3648.95512	0.98642
3646.89821	0.98781
3644.84130	0.98805
3642.78439	0.98738
3640.72748	0.98625
3638.67058	0.98554
3636.61367	0.98524
3634.55676	0.98492
3632.49985	0.98442
3630.44294	0.98371
3628.38603	0.98328
3626.32913	0.98351
3624.27222	0.98378
3622.21531	0.98407
3620.15840	0.98434
3618.10149	0.98431
3616.04459	0.98390
3613.98768	0.98340
3611.93077	0.98394
3609.87386	0.98516
3607.81695	0.98574
3605.76004	0.98572
3603.70314	0.98497
3601.64623	0.98369
3599.58932	0.98313
3597.53241	0.98352
3595.47550	0.98417
3593.41860	0.98437
3591.36169	0.98344
3589.30478	0.98218
3587.24787	0.98153
3585.19096	0.98114
3583.13405	0.98059
3581.07715	0.98038
3579.02024	0.98049
3576.96333	0.98014
3574.90642	0.97979
3572.84951	0.98012
3570.79261	0.98047
3568.73570	0.97977
3566.67879	0.97824
3564.62188	0.97751
3562.56497	0.97750
3560.50806	0.97758
3558.45116	0.97749
3556.39425	0.97720
3554.33734	0.97713
3552.28043	0.97735
3550.22352	0.97749
3548.16662	0.97737
3546.10971	0.97693
3544.05280	0.97655
3541.99589	0.97644
3539.93898	0.97614
3537.88207	0.97562
3535.82517	0.97513
3533.76826	0.97489
3531.71135	0.97455
3529.65444	0.97375
3527.59753	0.97284
3525.54063	0.97214
3523.48372	0.97164
3521.42681	0.97111
3519.36990	0.97086
3517.31299	0.97089
3515.25608	0.97052
3513.19918	0.96981
3511.14227	0.96913
3509.08536	0.96892
3507.02845	0.96905
3504.97154	0.96873
3502.91464	0.96813
3500.85773	0.96814
3498.80082	0.96877
3496.74391	0.96948
3494.68700	0.96975
3492.63009	0.96950
3490.57319	0.96914
3488.51628	0.96873
3486.45937	0.96828
3484.40246	0.96768
3482.34555	0.96656
3480.28865	0.96567
3478.23174	0.96631
3476.17483	0.96755
3474.11792	0.96764
3472.06101	0.96708
3470.00410	0.96725
3467.94720	0.96801
3465.89029	0.96830
3463.83338	0.96762
3461.77647	0.96724
3459.71956	0.96813
3457.66266	0.96908
3455.60575	0.96947
3453.54884	0.96925
3451.49193	0.96817
3449.43502	0.96748
3447.37811	0.96805
3445.32121	0.96921
3443.26430	0.97013
3441.20739	0.97031
3439.15048	0.97007
3437.09357	0.97002
3435.03667	0.96992
3432.97976	0.96981
3430.92285	0.97007
3428.86594	0.97048
3426.80903	0.97097
3424.75212	0.97165
3422.69522	0.97205
3420.63831	0.97173
3418.58140	0.97131
3416.52449	0.97134
3414.46758	0.97155
3412.41068	0.97161
3410.35377	0.97157
3408.29686	0.97187
3406.23995	0.97278
3404.18304	0.97344
3402.12613	0.97351
3400.06923	0.97388
3398.01232	0.97417
3395.95541	0.97383
3393.89850	0.97380
3391.84159	0.97436
3389.78469	0.97471
3387.72778	0.97472
3385.67087	0.97516
3383.61396	0.97586
3381.55705	0.97564
3379.50014	0.97496
3377.44324	0.97474
3375.38633	0.97474
3373.32942	0.97484
3371.27251	0.97514
3369.21560	0.97531
3367.15870	0.97519
3365.10179	0.97544
3363.04488	0.97609
3360.98797	0.97684
3358.93106	0.97758
3356.87415	0.97789
3354.81725	0.97789
3352.76034	0.97795
3350.70343	0.97795
3348.64652	0.97774
3346.58961	0.97746
3344.53271	0.97721
3342.47580	0.97714
3340.41889	0.97731
3338.36198	0.97761
3336.30507	0.97781
3334.24816	0.97770
3332.19126	0.97784
3330.13435	0.97855
3328.07744	0.97912
3326.02053	0.97920
3323.96362	0.97891
3321.90672	0.97862
3319.84981	0.97892
3317.79290	0.97945
3315.73599	0.97923
3313.67908	0.97856
3311.62217	0.97867
3309.56527	0.97982
3307.50836	0.98095
3305.45145	0.98131
3303.39454	0.98115
3301.33763	0.98076
3299.28073	0.98050
3297.22382	0.98081
3295.16691	0.98101
3293.11000	0.98066
3291.05309	0.98056
3288.99618	0.98074
3286.93928	0.98092
3284.88237	0.98142
3282.82546	0.98187
3280.76855	0.98201
3278.71164	0.98224
3276.65474	0.98230
3274.59783	0.98193
3272.54092	0.98163
3270.48401	0.98164
3268.42710	0.98149
3266.37019	0.98115
3264.31329	0.98137
3262.25638	0.98234
3260.19947	0.98312
3258.14256	0.98304
3256.08565	0.98288
3254.02875	0.98301
3251.97184	0.98274
3249.91493	0.98206
3247.85802	0.98182
3245.80111	0.98217
3243.74420	0.98250
3241.68730	0.98263
3239.63039	0.98269
3237.57348	0.98288
3235.51657	0.98336
3233.45966	0.98379
3231.40276	0.98357
3229.34585	0.98295
3227.28894	0.98238
3225.23203	0.98181
3223.17512	0.98186
3221.11821	0.98292
3219.06131	0.98364
3217.00440	0.98333
3214.94749	0.98334
3212.89058	0.98396
3210.83367	0.98414
3208.77677	0.98415
3206.71986	0.98441
3204.66295	0.98429
3202.60604	0.98398
3200.54913	0.98429
3198.49222	0.98501
3196.43532	0.98518
3194.37841	0.98466
3192.32150	0.98427
3190.26459	0.98440
3188.20768	0.98462
3186.15078	0.98428
3184.09387	0.98357
3182.03696	0.98338
3179.98005	0.98368
3177.92314	0.98415
3175.86623	0.98453
3173.80933	0.98465
3171.75242	0.98496
3169.69551	0.98547
3167.63860	0.98570
3165.58169	0.98554
3163.52479	0.98497
3161.46788	0.98446
3159.41097	0.98477
3157.35406	0.98547
3155.29715	0.98576
3153.24024	0.98575
3151.18334	0.98544
3149.12643	0.98500
3147.06952	0.98506
3145.01261	0.98517
3142.95570	0.98492
3140.89880	0.98492
3138.84189	0.98504
3136.78498	0.98494
3134.72807	0.98480
3132.67116	0.98499
3130.61425	0.98570
3128.55735	0.98599
3126.50044	0.98535
3124.44353	0.98479
3122.38662	0.98494
3120.32971	0.98530
3118.27281	0.98551
3116.21590	0.98553
3114.15899	0.98521
3112.10208	0.98495
3110.04517	0.98518
3107.98826	0.98574
3105.93136	0.98629
3103.87445	0.98636
3101.81754	0.98624
3099.76063	0.98624
3097.70372	0.98583
3095.64682	0.98523
3093.58991	0.98528
3091.53300	0.98560
3089.47609	0.98539
3087.41918	0.98495
3085.36227	0.98478
3083.30537	0.98492
3081.24846	0.98533
3079.19155	0.98577
3077.13464	0.98602
3075.07773	0.98625
3073.02083	0.98634
3070.96392	0.98630
3068.90701	0.98656
3066.85010	0.98686
3064.79319	0.98662
3062.73628	0.98609
3060.67938	0.98593
3058.62247	0.98599
3056.56556	0.98600
3054.50865	0.98604
3052.45174	0.98618
3050.39484	0.98635
3048.33793	0.98636
3046.28102	0.98615
3044.22411	0.98581
3042.16720	0.98564
3040.11029	0.98564
3038.05339	0.98555
3035.99648	0.98560
3033.93957	0.98580
3031.88266	0.98590
3029.82575	0.98572
3027.76885	0.98553
3025.71194	0.98555
3023.65503	0.98555
3021.59812	0.98575
3019.54121	0.98625
3017.48430	0.98627
3015.42740	0.98574
3013.37049	0.98575
3011.31358	0.98619
3009.25667	0.98606
3007.19976	0.98532
3005.14286	0.98453
3003.08595	0.98435
3001.02904	0.98468
2998.97213	0.98471
2996.91522	0.98395
2994.85831	0.98265
2992.80141	0.98144
2990.74450	0.98073
2988.68759	0.98006
2986.63068	0.97899
2984.57377	0.97785
2982.51687	0.97693
2980.45996	0.97594
2978.40305	0.97457
2976.34614	0.97311
2974.28923	0.97189
2972.23232	0.97086
2970.17542	0.96973
2968.11851	0.96847
2966.06160	0.96760
2964.00469	0.96741
2961.94778	0.96751
2959.89088	0.96768
2957.83397	0.96827
2955.77706	0.96927
2953.72015	0.97019
2951.66324	0.97094
2949.60633	0.97135
2947.54943	0.97101
2945.49252	0.97036
2943.43561	0.97001
2941.37870	0.96965
2939.32179	0.96923
2937.26489	0.96912
2935.20798	0.96955
2933.15107	0.97062
2931.09416	0.97160
2929.03725	0.97207
2926.98034	0.97230
2924.92344	0.97243
2922.86653	0.97276
2920.80962	0.97329
2918.75271	0.97386
2916.69580	0.97432
2914.63890	0.97427
2912.58199	0.97401
2910.52508	0.97424
2908.46817	0.97459
2906.41126	0.97441
2904.35435	0.97400
2902.29745	0.97356
2900.24054	0.97320
2898.18363	0.97321
2896.12672	0.97331
2894.06981	0.97340
2892.01291	0.97351
2889.95600	0.97332
2887.89909	0.97273
2885.84218	0.97194
2883.78527	0.97126
2881.72836	0.97079
2879.67146	0.97046
2877.61455	0.97055
2875.55764	0.97105
2873.50073	0.97161
2871.44382	0.97246
2869.38692	0.97380
2867.33001	0.97502
2865.27310	0.97579
2863.21619	0.97638
2861.15928	0.97681
2859.10237	0.97730
2857.04547	0.97837
2854.98856	0.97960
2852.93165	0.98039
2850.87474	0.98075
2848.81783	0.98089
2846.76093	0.98110
2844.70402	0.98145
2842.64711	0.98177
2840.59020	0.98228
2838.53329	0.98305
2836.47638	0.98369
2834.41948	0.98372
2832.36257	0.98320
2830.30566	0.98284
2828.24875	0.98315
2826.19184	0.98364
2824.13494	0.98365
2822.07803	0.98341
2820.02112	0.98359
2817.96421	0.98401
2815.90730	0.98417
2813.85039	0.98408
2811.79349	0.98403
2809.73658	0.98402
2807.67967	0.98412
2805.62276	0.98434
2803.56585	0.98433
2801.50895	0.98430
2799.45204	0.98440
2797.39513	0.98435
2795.33822	0.98437
2793.28131	0.98475
2791.22440	0.98512
2789.16750	0.98508
2787.11059	0.98502
2785.05368	0.98510
2782.99677	0.98497
2780.93986	0.98495
2778.88296	0.98521
2776.82605	0.98529
2774.76914	0.98516
2772.71223	0.98515
2770.65532	0.98510
2768.59841	0.98486
2766.54151	0.98489
2764.48460	0.98534
2762.42769	0.98575
2760.37078	0.98609
2758.31387	0.98633
2756.25697	0.98619
2754.20006	0.98574
2752.14315	0.98546
2750.08624	0.98554
2748.02933	0.98577
2745.97242	0.98605
2743.91552	0.98613
2741.85861	0.98592
2739.80170	0.98580
2737.74479	0.98608
2735.68788	0.98632
2733.63098	0.98603
2731.57407	0.98565
2729.51716	0.98560
2727.46025	0.98570
2725.40334	0.98582
2723.34643	0.98591
2721.28953	0.98618
2719.23262	0.98665
2717.17571	0.98675
2715.11880	0.98647
2713.06189	0.98612
2711.00499	0.98587
2708.94808	0.98594
2706.89117	0.98610
2704.83426	0.98604
2702.77735	0.98602
2700.72044	0.98624
2698.66354	0.98648
2696.60663	0.98642
2694.54972	0.98622
2692.49281	0.98623
2690.43590	0.98629
2688.37900	0.98617
2686.32209	0.98607
2684.26518	0.98605
2682.20827	0.98600
2680.15136	0.98588
2678.09445	0.98603
2676.03755	0.98649
2673.98064	0.98654
2671.92373	0.98608
2669.86682	0.98590
2667.80991	0.98603
2665.75301	0.98598
2663.69610	0.98572
2661.63919	0.98557
2659.58228	0.98570
2657.52537	0.98615
2655.46846	0.98667
2653.41156	0.98685
2651.35465	0.98677
2649.29774	0.98657
2647.24083	0.98624
2645.18392	0.98617
2643.12702	0.98631
2641.07011	0.98617
2639.01320	0.98589
2636.95629	0.98585
2634.89938	0.98595
2632.84247	0.98571
2630.78557	0.98526
2628.72866	0.98522
2626.67175	0.98554
2624.61484	0.98578
2622.55793	0.98581
2620.50103	0.98596
2618.44412	0.98638
2616.38721	0.98668
2614.33030	0.98684
2612.27339	0.98714
2610.21648	0.98717
2608.15958	0.98678
2606.10267	0.98662
2604.04576	0.98677
2601.98885	0.98680
2599.93194	0.98679
2597.87504	0.98694
2595.81813	0.98710
2593.76122	0.98719
2591.70431	0.98740
2589.64740	0.98763
2587.59049	0.98745
2585.53359	0.98693
2583.47668	0.98660
2581.41977	0.98651
2579.36286	0.98659
2577.30595	0.98669
2575.24905	0.98667
2573.19214	0.98672
2571.13523	0.98686
2569.07832	0.98690
2567.02141	0.98701
2564.96450	0.98740
2562.90760	0.98758
2560.85069	0.98759
2558.79378	0.98788
2556.73687	0.98832
2554.67996	0.98873
2552.62306	0.98902
2550.56615	0.98890
2548.50924	0.98869
2546.45233	0.98855
2544.39542	0.98809
2542.33851	0.98770
2540.28161	0.98752
2538.22470	0.98743
2536.16779	0.98756
2534.11088	0.98780
2532.05397	0.98787
2529.99707	0.98755
2527.94016	0.98723
2525.88325	0.98749
2523.82634	0.98809
2521.76943	0.98861
2519.71252	0.98850
2517.65562	0.98762
2515.59871	0.98727
2513.54180	0.98800
2511.48489	0.98888
2509.42798	0.98889
2507.37108	0.98771
2505.31417	0.98671
2503.25726	0.98679
2501.20035	0.98705
2499.14344	0.98722
2497.08653	0.98770
2495.02963	0.98825
2492.97272	0.98845
2490.91581	0.98817
2488.85890	0.98786
2486.80199	0.98770
2484.74509	0.98728
2482.68818	0.98621
2480.63127	0.98498
2478.57436	0.98506
2476.51745	0.98637
2474.46054	0.98760
2472.40364	0.98793
2470.34673	0.98776
2468.28982	0.98803
2466.23291	0.98862
2464.17600	0.98879
2462.11910	0.98833
2460.06219	0.98788
2458.00528	0.98799
2455.94837	0.98843
2453.89146	0.98824
2451.83455	0.98761
2449.77765	0.98749
2447.72074	0.98760
2445.66383	0.98760
2443.60692	0.98762
2441.55001	0.98752
2439.49311	0.98779
2437.43620	0.98833
2435.37929	0.98808
2433.32238	0.98738
2431.26547	0.98710
2429.20856	0.98711
2427.15166	0.98692
2425.09475	0.98679
2423.03784	0.98712
2420.98093	0.98743
2418.92402	0.98744
2416.86712	0.98790
2414.81021	0.98838
2412.75330	0.98794
2410.69639	0.98771
2408.63948	0.98826
2406.58257	0.98847
2404.52567	0.98807
2402.46876	0.98799
2400.41185	0.98842
2398.35494	0.98881
2396.29803	0.98892
2394.24113	0.98870
2392.18422	0.98872
2390.12731	0.98921
2388.07040	0.98895
2386.01349	0.98802
2383.95658	0.98812
2381.89968	0.98882
2379.84277	0.98875
2377.78586	0.98826
2375.72895	0.98789
2373.67204	0.98773
2371.61514	0.98799
2369.55823	0.98877
2367.50132	0.98947
2365.44441	0.98891
2363.38750	0.98759
2361.33059	0.98712
2359.27369	0.98687
2357.21678	0.98672
2355.15987	0.98754
2353.10296	0.98829
2351.04605	0.98844
2348.98915	0.98833
2346.93224	0.98786
2344.87533	0.98713
2342.81842	0.98705
2340.76151	0.98769
2338.70460	0.98785
2336.64770	0.98719
2334.59079	0.98653
2332.53388	0.98643
2330.47697	0.98679
2328.42006	0.98711
2326.36316	0.98665
2324.30625	0.98573
2322.24934	0.98572
2320.19243	0.98654
2318.13552	0.98650
2316.07861	0.98570
2314.02171	0.98563
2311.96480	0.98669
2309.90789	0.98757
2307.85098	0.98752
2305.79407	0.98746
2303.73717	0.98733
2301.68026	0.98679
2299.62335	0.98694
2297.56644	0.98776
2295.50953	0.98797
2293.45262	0.98746
2291.39572	0.98681
2289.33881	0.98599
2287.28190	0.98513
2285.22499	0.98536
2283.16808	0.98654
2281.11117	0.98737
2279.05427	0.98814
2276.99736	0.98861
2274.94045	0.98830
2272.88354	0.98858
2270.82663	0.98971
2268.76973	0.99020
2266.71282	0.98945
2264.65591	0.98816
2262.59900	0.98729
2260.54209	0.98752
2258.48518	0.98850
2256.42828	0.98935
2254.37137	0.98949
2252.31446	0.98837
2250.25755	0.98722
2248.20064	0.98709
2246.14374	0.98665
2244.08683	0.98620
2242.02992	0.98621
2239.97301	0.98590
2237.91610	0.98601
2235.85919	0.98692
2233.80229	0.98761
2231.74538	0.98799
2229.68847	0.98836
2227.63156	0.98890
2225.57465	0.99011
2223.51775	0.99069
2221.46084	0.98983
2219.40393	0.98925
2217.34702	0.98889
2215.29011	0.98762
2213.23320	0.98635
2211.17630	0.98639
2209.11939	0.98733
2207.06248	0.98697
2205.00557	0.98576
2202.94866	0.98648
2200.89176	0.98762
2198.83485	0.98654
2196.77794	0.98487
2194.72103	0.98495
2192.66412	0.98601
2190.60721	0.98672
2188.55031	0.98785
2186.49340	0.98955
2184.43649	0.99056
2182.37958	0.98936
2180.32267	0.98665
2178.26577	0.98549
2176.20886	0.98667
2174.15195	0.98818
2172.09504	0.98905
2170.03813	0.98930
2167.98122	0.98878
2165.92432	0.98784
2163.86741	0.98614
2161.81050	0.98564
2159.75359	0.98796
2157.69668	0.98981
2155.63978	0.99030
2153.58287	0.98994
2151.52596	0.98837
2149.46905	0.98741
2147.41214	0.98738
2145.35523	0.98670
2143.29833	0.98653
2141.24142	0.98814
2139.18451	0.98963
2137.12760	0.98963
2135.07069	0.98918
2133.01379	0.98926
2130.95688	0.98945
2128.89997	0.98876
2126.84306	0.98788
2124.78615	0.98800
2122.72924	0.98818
2120.67234	0.98778
2118.61543	0.98749
2116.55852	0.98707
2114.50161	0.98643
2112.44470	0.98608
2110.38780	0.98611
2108.33089	0.98651
2106.27398	0.98698
2104.21707	0.98758
2102.16016	0.98836
2100.10325	0.98835
2098.04635	0.98825
2095.98944	0.98929
2093.93253	0.98956
2091.87562	0.98835
2089.81871	0.98780
2087.76181	0.98802
2085.70490	0.98774
2083.64799	0.98712
2081.59108	0.98719
2079.53417	0.98783
2077.47726	0.98807
2075.42036	0.98809
2073.36345	0.98777
2071.30654	0.98710
2069.24963	0.98745
2067.19272	0.98863
2065.13582	0.98896
2063.07891	0.98872
2061.02200	0.98841
2058.96509	0.98742
2056.90818	0.98598
2054.85127	0.98470
2052.79437	0.98426
2050.73746	0.98513
2048.68055	0.98625
2046.62364	0.98666
2044.56673	0.98714
2042.50983	0.98718
2040.45292	0.98618
2038.39601	0.98615
2036.33910	0.98829
2034.28219	0.99023
2032.22528	0.99004
2030.16838	0.98950
2028.11147	0.98926
2026.05456	0.98900
2023.99765	0.98973
2021.94074	0.99044
2019.88384	0.98890
2017.82693	0.98682
2015.77002	0.98738
2013.71311	0.98847
2011.65620	0.98676
2009.59929	0.98469
2007.54239	0.98572
2005.48548	0.98842
2003.42857	0.98913
2001.37166	0.98727
1999.31475	0.98508
1997.25785	0.98490
1995.20094	0.98677
1993.14403	0.98789
1991.08712	0.98803
1989.03021	0.98857
1986.97330	0.98874
1984.91640	0.98816
1982.85949	0.98684
1980.80258	0.98510
1978.74567	0.98391
1976.68876	0.98451
1974.63186	0.98657
1972.57495	0.98782
1970.51804	0.98662
1968.46113	0.98510
1966.40422	0.98574
1964.34731	0.98665
1962.29041	0.98682
1960.23350	0.98695
1958.17659	0.98734
1956.11968	0.98820
1954.06277	0.98903
1952.00587	0.98940
1949.94896	0.98887
1947.89205	0.98794
1945.83514	0.98829
1943.77823	0.98901
1941.72132	0.98848
1939.66442	0.98768
1937.60751	0.98713
1935.55060	0.98735
1933.49369	0.98837
1931.43678	0.98893
1929.37988	0.98953
1927.32297	0.99048
1925.26606	0.99068
1923.20915	0.99025
1921.15224	0.98959
1919.09533	0.98843
1917.03843	0.98735
1914.98152	0.98736
1912.92461	0.98838
1910.86770	0.98910
1908.81079	0.98899
1906.75389	0.98893
1904.69698	0.98915
1902.64007	0.98950
1900.58316	0.98986
1898.52625	0.98987
1896.46934	0.98969
1894.41244	0.98995
1892.35553	0.99024
1890.29862	0.99014
1888.24171	0.99022
1886.18480	0.99051
1884.12790	0.99070
1882.07099	0.99076
1880.01408	0.99068
1877.95717	0.99056
1875.90026	0.99064
1873.84335	0.99060
1871.78645	0.99019
1869.72954	0.99017
1867.67263	0.99084
1865.61572	0.99115
1863.55881	0.99088
1861.50191	0.99096
1859.44500	0.99116
1857.38809	0.99085
1855.33118	0.99051
1853.27427	0.99038
1851.21736	0.99023
1849.16046	0.98997
1847.10355	0.98938
1845.04664	0.98881
1842.98973	0.98925
1840.93282	0.98995
1838.87592	0.99007
1836.81901	0.99031
1834.76210	0.99078
1832.70519	0.99073
1830.64828	0.99016
1828.59137	0.98970
1826.53447	0.98973
1824.47756	0.98977
1822.42065	0.98965
1820.36374	0.98958
1818.30683	0.98952
1816.24993	0.98951
1814.19302	0.98967
1812.13611	0.99003
1810.07920	0.99017
1808.02229	0.98994
1805.96538	0.98946
1803.90848	0.98878
1801.85157	0.98816
1799.79466	0.98789
1797.73775	0.98807
1795.68084	0.98811
1793.62394	0.98711
1791.56703	0.98564
1789.51012	0.98534
1787.45321	0.98545
1785.39630	0.98505
1783.33939	0.98424
1781.28249	0.98334
1779.22558	0.98211
1777.16867	0.98097
1775.11176	0.97972
1773.05485	0.97643
1770.99795	0.97119
1768.94104	0.96609
1766.88413	0.95999
1764.82722	0.95294
1762.77031	0.94425
1760.71340	0.93332
1758.65650	0.92317
1756.59959	0.91347
1754.54268	0.90515
1752.48577	0.89784
1750.42886	0.88862
1748.37196	0.87983
1746.31505	0.87430
1744.25814	0.86996
1742.20123	0.86558
1740.14432	0.86149
1738.08741	0.85934
1736.03051	0.85926
1733.97360	0.85854
1731.91669	0.85831
1729.85978	0.86061
1727.80287	0.86415
1725.74597	0.86833
1723.68906	0.87307
1721.63215	0.87814
1719.57524	0.88397
1717.51833	0.89147
1715.46142	0.90023
1713.40452	0.90876
1711.34761	0.91668
1709.29070	0.92403
1707.23379	0.93108
1705.17688	0.93789
1703.11998	0.94331
1701.06307	0.94832
1699.00616	0.95356
1696.94925	0.95730
1694.89234	0.96087
1692.83543	0.96408
1690.77853	0.96645
1688.72162	0.96847
1686.66471	0.97038
1684.60780	0.97211
1682.55089	0.97293
1680.49399	0.97348
1678.43708	0.97417
1676.38017	0.97488
1674.32326	0.97562
1672.26635	0.97636
1670.20944	0.97675
1668.15254	0.97661
1666.09563	0.97682
1664.03872	0.97739
1661.98181	0.97785
1659.92490	0.97809
1657.86800	0.97828
1655.81109	0.97846
1653.75418	0.97813
1651.69727	0.97740
1649.64036	0.97758
1647.58345	0.97779
1645.52655	0.97743
1643.46964	0.97736
1641.41273	0.97781
1639.35582	0.97833
1637.29891	0.97868
1635.24201	0.97891
1633.18510	0.97902
1631.12819	0.97914
1629.07128	0.97926
1627.01437	0.97942
1624.95746	0.97960
1622.90056	0.97993
1620.84365	0.98047
1618.78674	0.98070
1616.72983	0.98074
1614.67292	0.98131
1612.61602	0.98210
1610.55911	0.98277
1608.50220	0.98334
1606.44529	0.98390
1604.38838	0.98417
1602.33147	0.98415
1600.27457	0.98442
1598.21766	0.98502
1596.16075	0.98568
1594.10384	0.98599
1592.04693	0.98586
1589.99003	0.98572
1587.93312	0.98548
1585.87621	0.98528
1583.81930	0.98556
1581.76239	0.98604
1579.70548	0.98642
1577.64858	0.98683
1575.59167	0.98709
1573.53476	0.98709
1571.47785	0.98687
1569.42094	0.98641
1567.36404	0.98623
1565.30713	0.98647
1563.25022	0.98699
1561.19331	0.98742
1559.13640	0.98673
1557.07949	0.98618
1555.02259	0.98683
1552.96568	0.98725
1550.90877	0.98733
1548.85186	0.98728
1546.79495	0.98726
1544.73805	0.98730
1542.68114	0.98714
1540.62423	0.98686
1538.56732	0.98688
1536.51041	0.98720
1534.45350	0.98735
1532.39660	0.98700
1530.33969	0.98671
1528.28278	0.98679
1526.22587	0.98708
1524.16896	0.98727
1522.11206	0.98681
1520.05515	0.98634
1517.99824	0.98668
1515.94133	0.98716
1513.88442	0.98749
1511.82751	0.98755
1509.77061	0.98704
1507.71370	0.98601
1505.65679	0.98590
1503.59988	0.98649
1501.54297	0.98674
1499.48607	0.98686
1497.42916	0.98690
1495.37225	0.98686
1493.31534	0.98690
1491.25843	0.98688
1489.20152	0.98667
1487.14462	0.98637
1485.08771	0.98589
1483.03080	0.98523
1480.97389	0.98475
1478.91698	0.98431
1476.86008	0.98324
1474.80317	0.98125
1472.74626	0.97802
1470.68935	0.97463
1468.63244	0.97246
1466.57553	0.97097
1464.51863	0.96961
1462.46172	0.96854
1460.40481	0.96787
1458.34790	0.96707
1456.29099	0.96642
1454.23409	0.96683
1452.17718	0.96758
1450.12027	0.96804
1448.06336	0.96769
1446.00645	0.96700
1443.94954	0.96669
1441.89264	0.96639
1439.83573	0.96565
1437.77882	0.96429
1435.72191	0.96280
1433.66500	0.96241
1431.60810	0.96248
1429.55119	0.96226
1427.49428	0.96220
1425.43737	0.96223
1423.38046	0.96172
1421.32355	0.96101
1419.26665	0.96060
1417.20974	0.96065
1415.15283	0.96116
1413.09592	0.96192
1411.03901	0.96283
1408.98211	0.96382
1406.92520	0.96472
1404.86829	0.96536
1402.81138	0.96579
1400.75447	0.96611
1398.69756	0.96592
1396.64066	0.96470
1394.58375	0.96231
1392.52684	0.95933
1390.46993	0.95612
1388.41302	0.95197
1386.35612	0.94682
1384.29921	0.94209
1382.24230	0.93795
1380.18539	0.93397
1378.12848	0.93038
1376.07157	0.92695
1374.01467	0.92346
1371.95776	0.92121
1369.90085	0.92054
1367.84394	0.92083
1365.78703	0.92257
1363.73013	0.92598
1361.67322	0.93087
1359.61631	0.93646
1357.55940	0.94170
1355.50249	0.94608
1353.44558	0.94972
1351.38868	0.95271
1349.33177	0.95499
1347.27486	0.95672
1345.21795	0.95805
1343.16104	0.95922
1341.10414	0.96041
1339.04723	0.96136
1336.99032	0.96189
1334.93341	0.96226
1332.87650	0.96260
1330.81959	0.96276
1328.76269	0.96265
1326.70578	0.96239
1324.64887	0.96206
1322.59196	0.96159
1320.53505	0.96080
1318.47815	0.95950
1316.42124	0.95802
1314.36433	0.95677
1312.30742	0.95568
1310.25051	0.95473
1308.19360	0.95412
1306.13670	0.95397
1304.07979	0.95440
1302.02288	0.95528
1299.96597	0.95633
1297.90906	0.95706
1295.85216	0.95701
1293.79525	0.95621
1291.73834	0.95491
1289.68143	0.95323
1287.62452	0.95147
1285.56761	0.95007
1283.51071	0.94904
1281.45380	0.94795
1279.39689	0.94649
1277.33998	0.94462
1275.28307	0.94239
1273.22617	0.93970
1271.16926	0.93637
1269.11235	0.93245
1267.05544	0.92841
1264.99853	0.92430
1262.94162	0.91957
1260.88472	0.91453
1258.82781	0.90977
1256.77090	0.90496
1254.71399	0.89966
1252.65708	0.89413
1250.60018	0.88866
1248.54327	0.88337
1246.48636	0.87830
1244.42945	0.87343
1242.37254	0.86867
1240.31563	0.86399
1238.25873	0.85952
1236.20182	0.85525
1234.14491	0.85114
1232.08800	0.84738
1230.03109	0.84435
1227.97419	0.84275
1225.91728	0.84284
1223.86037	0.84442
1221.80346	0.84787
1219.74655	0.85329
1217.68964	0.85999
1215.63274	0.86759
1213.57583	0.87568
1211.51892	0.88358
1209.46201	0.89037
1207.40510	0.89536
1205.34820	0.89887
1203.29129	0.90146
1201.23438	0.90299
1199.17747	0.90320
1197.12056	0.90247
1195.06365	0.90126
1193.00675	0.89924
1190.94984	0.89635
1188.89293	0.89331
1186.83602	0.89062
1184.77911	0.88814
1182.72221	0.88591
1180.66530	0.88430
1178.60839	0.88307
1176.55148	0.88168
1174.49457	0.88025
1172.43766	0.87905
1170.38076	0.87808
1168.32385	0.87743
1166.26694	0.87708
1164.21003	0.87692
1162.15312	0.87734
1160.09622	0.87887
1158.03931	0.88141
1155.98240	0.88456
1153.92549	0.88843
1151.86858	0.89296
1149.81167	0.89766
1147.75477	0.90226
1145.69786	0.90647
1143.64095	0.90983
1141.58404	0.91216
1139.52713	0.91351
1137.47023	0.91408
1135.41332	0.91416
1133.35641	0.91380
1131.29950	0.91285
1129.24259	0.91152
1127.18568	0.90995
1125.12878	0.90808
1123.07187	0.90650
1121.01496	0.90567
1118.95805	0.90472
1116.90114	0.90298
1114.84424	0.90088
1112.78733	0.89855
1110.73042	0.89593
1108.67351	0.89354
1106.61660	0.89142
1104.55969	0.88906
1102.50279	0.88662
1100.44588	0.88451
1098.38897	0.88265
1096.33206	0.88066
1094.27515	0.87812
1092.21825	0.87510
1090.16134	0.87191
1088.10443	0.86836
1086.04752	0.86427
1083.99061	0.85995
1081.93370	0.85528
1079.87680	0.85041
1077.81989	0.84596
1075.76298	0.84190
1073.70607	0.83815
1071.64916	0.83493
1069.59226	0.83230
1067.53535	0.82982
1065.47844	0.82714
1063.42153	0.82444
1061.36462	0.82198
1059.30771	0.81973
1057.25081	0.81719
1055.19390	0.81411
1053.13699	0.81095
1051.08008	0.80817
1049.02317	0.80548
1046.96627	0.80258
1044.90936	0.80003
1042.85245	0.79817
1040.79554	0.79653
1038.73863	0.79495
1036.68172	0.79370
1034.62482	0.79294
1032.56791	0.79288
1030.51100	0.79371
1028.45409	0.79527
1026.39718	0.79735
1024.34028	0.80010
1022.28337	0.80348
1020.22646	0.80738
1018.16955	0.81178
1016.11264	0.81642
1014.05573	0.82098
1011.99883	0.82551
1009.94192	0.82998
1007.88501	0.83409
1005.82810	0.83814
1003.77119	0.84252
1001.71429	0.84699
999.65738	0.85115
997.60047	0.85459
995.54356	0.85755
993.48665	0.86088
991.42974	0.86453
989.37284	0.86797
987.31593	0.87152
985.25902	0.87558
983.20211	0.87998
981.14520	0.88452
979.08830	0.88903
977.03139	0.89355
974.97448	0.89796
972.91757	0.90207
970.86066	0.90644
968.80375	0.91107
966.74685	0.91535
964.68994	0.91943
962.63303	0.92330
960.57612	0.92626
958.51921	0.92813
956.46231	0.92974
954.40540	0.93162
952.34849	0.93310
950.29158	0.93380
948.23467	0.93446
946.17776	0.93524
944.12086	0.93588
942.06395	0.93643
940.00704	0.93673
937.95013	0.93660
935.89322	0.93636
933.83632	0.93591
931.77941	0.93485
929.72250	0.93384
927.66559	0.93329
925.60868	0.93258
923.55177	0.93175
921.49487	0.93166
919.43796	0.93190
917.38105	0.93128
915.32414	0.93031
913.26723	0.93018
911.21033	0.93039
909.15342	0.93023
907.09651	0.93027
905.03960	0.93076
902.98269	0.93104
900.92578	0.93114
898.86888	0.93154
896.81197	0.93198
894.75506	0.93237
892.69815	0.93338
890.64124	0.93498
888.58434	0.93648
886.52743	0.93792
884.47052	0.93968
882.41361	0.94153
880.35670	0.94296
878.29979	0.94442
876.24289	0.94624
874.18598	0.94810
872.12907	0.95006
870.07216	0.95178
868.01525	0.95307
865.95835	0.95443
863.90144	0.95586
861.84453	0.95710
859.78762	0.95836
857.73071	0.95968
855.67380	0.96041
853.61690	0.96071
851.55999	0.96168
849.50308	0.96313
847.44617	0.96395
845.38926	0.96405
843.33236	0.96367
841.27545	0.96307
839.21854	0.96287
837.16163	0.96325
835.10472	0.96376
833.04781	0.96438
830.99091	0.96525
828.93400	0.96589
826.87709	0.96643
824.82018	0.96735
822.76327	0.96837
820.70637	0.96930
818.64946	0.97000
816.59255	0.97059
814.53564	0.97122
812.47873	0.97138
810.42182	0.97057
808.36492	0.96908
806.30801	0.96747
804.25110	0.96599
802.19419	0.96492
800.13728	0.96430
798.08038	0.96415
796.02347	0.96458
793.96656	0.96511
791.90965	0.96550
789.85274	0.96599
787.79583	0.96669
785.73893	0.96778
783.68202	0.96924
781.62511	0.97056
779.56820	0.97107
777.51129	0.97101
775.45439	0.97119
773.39748	0.97154
771.34057	0.97163
769.28366	0.97163
767.22675	0.97171
765.16984	0.97158
763.11294	0.97094
761.05603	0.96947
758.99912	0.96729
756.94221	0.96519
754.88530	0.96373
752.82839	0.96318
750.77149	0.96396
748.71458	0.96548
746.65767	0.96659
744.60076	0.96717
742.54385	0.96756
740.48695	0.96780
738.43004	0.96767
736.37313	0.96729
734.31622	0.96704
732.25931	0.96707
730.20240	0.96709
728.14550	0.96669
726.08859	0.96609
724.03168	0.96582
721.97477	0.96606
719.91786	0.96615
717.86096	0.96527
715.80405	0.96361
713.74714	0.96235
711.69023	0.96222
709.63332	0.96295
707.57641	0.96347
705.51951	0.96308
703.46260	0.96231
701.40569	0.96176
699.34878	0.96151
697.29187	0.96092
695.23497	0.95967
693.17806	0.95820
691.12115	0.95677
689.06424	0.95608
687.00733	0.95583
684.95042	0.95517
682.89352	0.95444
680.83661	0.95391
678.77970	0.95338
676.72279	0.95269
674.66588	0.95190
672.60898	0.95148
670.55207	0.95199
668.49516	0.95294
666.43825	0.95328
664.38134	0.95327
662.32443	0.95320
660.26753	0.95251
658.21062	0.95162
656.15371	0.95155
654.09680	0.95122
652.03989	0.94960
649.98299	0.94777
647.92608	0.94664
645.86917	0.94619
643.81226	0.94556
641.75535	0.94402
639.69844	0.94239
637.64154	0.94161
635.58463	0.94117
633.52772	0.94064
631.47081	0.94004
629.41390	0.93929
627.35700	0.93861
625.30009	0.93749
623.24318	0.93509
621.18627	0.93257
619.12936	0.93128
617.07245	0.93012
615.01555	0.92812
612.95864	0.92655
610.90173	0.92558
608.84482	0.92354
606.78791	0.92047
604.73101	0.91783
602.67410	0.91702
600.61719	0.91771
598.56028	0.91876
596.50337	0.92018
594.44646	0.92168
592.38956	0.92354
590.33265	0.92583
588.27574	0.92694
586.21883	0.92660
584.16192	0.92625
582.10502	0.92661
580.04811	0.92724
577.99120	0.92804
575.93429	0.92960
573.87738	0.93100
571.82047	0.93076
569.76357	0.92913
567.70666	0.92701
565.64975	0.92541
563.59284	0.92454
561.53593	0.92467
559.47903	0.92611
557.42212	0.92694
555.36521	0.92597
553.30830	0.92467
551.25139	0.92469
549.19448	0.92595
547.13758	0.92694
545.08067	0.92701
543.02376	0.92694
540.96685	0.92743
538.90994	0.92833
536.85304	0.92857
534.79613	0.92755
532.73922	0.92604
530.68231	0.92465
528.62540	0.92327
526.56849	0.92219
524.51159	0.92137
522.45468	0.92022
520.39777	0.91922
518.34086	0.91937
516.28395	0.92056
514.22705	0.92190
512.17014	0.92289
510.11323	0.92274
508.05632	0.92067
505.99941	0.91861
503.94250	0.91849
501.88560	0.91825
499.82869	0.91627
497.77178	0.91440
495.71487	0.91340
493.65796	0.91334
491.60106	0.91462
489.54415	0.91652
487.48724	0.91773
485.43033	0.91630
483.37342	0.91306
481.31651	0.91191
479.25961	0.91240
477.20270	0.91204
475.14579	0.91137
473.08888	0.91074
471.03197	0.90915
468.97507	0.90687
466.91816	0.90488
464.86125	0.90447
462.80434	0.90506
460.74743	0.90518
458.69052	0.90530
456.63362	0.90542
454.57671	0.90546
452.51980	0.90590
450.46289	0.90592
448.40598	0.90644
446.34908	0.90857
444.29217	0.90901
442.23526	0.90569
440.17835	0.90287
438.12144	0.90392
436.06453	0.90679
434.00763	0.90726
431.95072	0.90487
429.89381	0.90313
427.83690	0.90371
425.77999	0.90576
423.72309	0.90756
421.66618	0.90574
419.60927	0.90001
417.55236	0.90044
415.49545	0.90577
413.43854	0.90847
411.38164	0.91062
409.32473	0.91059
407.26782	0.90752
405.21091	0.90559
403.15400	0.90384
401.09710	0.89807
399.04019	0.89109
