3996.57260	0.97520
3994.51569	0.97517
3992.45878	0.97570
3990.40188	0.97617
3988.34497	0.97598
3986.28806	0.97549
3984.23115	0.97539
3982.17424	0.97553
3980.11733	0.97570
3978.06043	0.97563
3976.00352	0.97491
3973.94661	0.97411
3971.88970	0.97396
3969.83279	0.97444
3967.77589	0.97514
3965.71898	0.97564
3963.66207	0.97556
3961.60516	0.97470
3959.54825	0.97400
3957.49134	0.97407
3955.43444	0.97439
3953.37753	0.97485
3951.32062	0.97522
3949.26371	0.97520
3947.20680	0.97518
3945.14990	0.97525
3943.09299	0.97517
3941.03608	0.97514
3938.97917	0.97522
3936.92226	0.97504
3934.86535	0.97486
3932.80845	0.97485
3930.75154	0.97463
3928.69463	0.97465
3926.63772	0.97514
3924.58081	0.97518
3922.52391	0.97450
3920.46700	0.97430
3918.41009	0.97516
3916.35318	0.97611
3914.29627	0.97641
3912.23936	0.97669
3910.18246	0.97716
3908.12555	0.97705
3906.06864	0.97621
3904.01173	0.97550
3901.95482	0.97530
3899.89792	0.97492
3897.84101	0.97446
3895.78410	0.97451
3893.72719	0.97527
3891.67028	0.97624
3889.61337	0.97657
3887.55647	0.97659
3885.49956	0.97622
3883.44265	0.97545
3881.38574	0.97527
3879.32883	0.97562
3877.27193	0.97595
3875.21502	0.97617
3873.15811	0.97575
3871.10120	0.97473
3869.04429	0.97449
3866.98738	0.97506
3864.93048	0.97541
3862.87357	0.97524
3860.81666	0.97487
3858.75975	0.97476
3856.70284	0.97509
3854.64594	0.97584
3852.58903	0.97608
3850.53212	0.97538
3848.47521	0.97510
3846.41830	0.97542
3844.36139	0.97587
3842.30449	0.97618
3840.24758	0.97620
3838.19067	0.97578
3836.13376	0.97530
3834.07685	0.97504
3832.01995	0.97491
3829.96304	0.97491
3827.90613	0.97502
3825.84922	0.97515
3823.79231	0.97540
3821.73540	0.97530
3819.67850	0.97522
3817.62159	0.97575
3815.56468	0.97541
3813.50777	0.97460
3811.45086	0.97500
3809.39396	0.97643
3807.33705	0.97722
3805.28014	0.97662
3803.22323	0.97640
3801.16632	0.97653
3799.10941	0.97666
3797.05251	0.97708
3794.99560	0.97691
3792.93869	0.97591
3790.88178	0.97489
3788.82487	0.97441
3786.76796	0.97419
3784.71106	0.97403
3782.65415	0.97443
3780.59724	0.97489
3778.54033	0.97451
3776.48342	0.97405
3774.42652	0.97417
3772.36961	0.97476
3770.31270	0.97582
3768.25579	0.97657
3766.19888	0.97635
3764.14197	0.97585
3762.08507	0.97573
3760.02816	0.97585
3757.97125	0.97582
3755.91434	0.97589
3753.85743	0.97609
3751.80053	0.97534
3749.74362	0.97387
3747.68671	0.97437
3745.62980	0.97636
3743.57289	0.97742
3741.51598	0.97662
3739.45908	0.97628
3737.40217	0.97736
3735.34526	0.97864
3733.28835	0.97825
3731.23144	0.97692
3729.17454	0.97598
3727.11763	0.97607
3725.06072	0.97678
3723.00381	0.97712
3720.94690	0.97689
3718.88999	0.97612
3716.83309	0.97568
3714.77618	0.97627
3712.71927	0.97747
3710.66236	0.97779
3708.60545	0.97680
3706.54855	0.97644
3704.49164	0.97673
3702.43473	0.97640
3700.37782	0.97538
3698.32091	0.97471
3696.26400	0.97504
3694.20710	0.97569
3692.15019	0.97604
3690.09328	0.97695
3688.03637	0.97711
3685.97946	0.97564
3683.92256	0.97477
3681.86565	0.97479
3679.80874	0.97528
3677.75183	0.97591
3675.69492	0.97556
3673.63801	0.97432
3671.58111	0.97455
3669.52420	0.97561
3667.46729	0.97558
3665.41038	0.97518
3663.35347	0.97512
3661.29657	0.97492
3659.23966	0.97412
3657.18275	0.97346
3655.12584	0.97395
3653.06893	0.97459
3651.01202	0.97458
3648.95512	0.97395
3646.89821	0.97303
3644.84130	0.97302
3642.78439	0.97330
3640.72748	0.97309
3638.67058	0.97265
3636.61367	0.97202
3634.55676	0.97180
3632.49985	0.97257
3630.44294	0.97277
3628.38603	0.97183
3626.32913	0.97209
3624.27222	0.97242
3622.21531	0.97167
3620.15840	0.97061
3618.10149	0.96991
3616.04459	0.96933
3613.98768	0.96861
3611.93077	0.96843
3609.87386	0.96896
3607.81695	0.96957
3605.76004	0.97014
3603.70314	0.96994
3601.64623	0.96889
3599.58932	0.96798
3597.53241	0.96798
3595.47550	0.96883
3593.41860	0.96923
3591.36169	0.96867
3589.30478	0.96789
3587.24787	0.96739
3585.19096	0.96774
3583.13405	0.96799
3581.07715	0.96743
3579.02024	0.96705
3576.96333	0.96696
3574.90642	0.96655
3572.84951	0.96645
3570.79261	0.96628
3568.73570	0.96478
3566.67879	0.96337
3564.62188	0.96437
3562.56497	0.96548
3560.50806	0.96531
3558.45116	0.96481
3556.39425	0.96434
3554.33734	0.96375
3552.28043	0.96283
3550.22352	0.96163
3548.16662	0.96025
3546.10971	0.95863
3544.05280	0.95802
3541.99589	0.95890
3539.93898	0.95997
3537.88207	0.96010
3535.82517	0.95921
3533.76826	0.95857
3531.71135	0.95866
3529.65444	0.95864
3527.59753	0.95806
3525.54063	0.95726
3523.48372	0.95650
3521.42681	0.95574
3519.36990	0.95492
3517.31299	0.95451
3515.25608	0.95450
3513.19918	0.95396
3511.14227	0.95282
3509.08536	0.95192
3507.02845	0.95170
3504.97154	0.95180
3502.91464	0.95171
3500.85773	0.95141
3498.80082	0.95093
3496.74391	0.95022
3494.68700	0.94957
3492.63009	0.94890
3490.57319	0.94822
3488.51628	0.94814
3486.45937	0.94861
3484.40246	0.94887
3482.34555	0.94861
3480.28865	0.94846
3478.23174	0.94858
3476.17483	0.94837
3474.11792	0.94825
3472.06101	0.94856
3470.00410	0.94870
3467.94720	0.94846
3465.89029	0.94822
3463.83338	0.94845
3461.77647	0.94898
3459.71956	0.94936
3457.66266	0.94939
3455.60575	0.94962
3453.54884	0.95035
3451.49193	0.95063
3449.43502	0.95057
3447.37811	0.95083
3445.32121	0.95084
3443.26430	0.95053
3441.20739	0.95066
3439.15048	0.95137
3437.09357	0.95215
3435.03667	0.95264
3432.97976	0.95269
3430.92285	0.95252
3428.86594	0.95255
3426.80903	0.95288
3424.75212	0.95339
3422.69522	0.95354
3420.63831	0.95322
3418.58140	0.95334
3416.52449	0.95387
3414.46758	0.95405
3412.41068	0.95394
3410.35377	0.95407
3408.29686	0.95471
3406.23995	0.95547
3404.18304	0.95585
3402.12613	0.95589
3400.06923	0.95596
3398.01232	0.95633
3395.95541	0.95686
3393.89850	0.95714
3391.84159	0.95716
3389.78469	0.95745
3387.72778	0.95796
3385.67087	0.95797
3383.61396	0.95755
3381.55705	0.95748
3379.50014	0.95781
3377.44324	0.95815
3375.38633	0.95856
3373.32942	0.95884
3371.27251	0.95894
3369.21560	0.95927
3367.15870	0.95935
3365.10179	0.95899
3363.04488	0.95894
3360.98797	0.95931
3358.93106	0.95958
3356.87415	0.95943
3354.81725	0.95918
3352.76034	0.95970
3350.70343	0.96073
3348.64652	0.96116
3346.58961	0.96104
3344.53271	0.96088
3342.47580	0.96073
3340.41889	0.96048
3338.36198	0.96015
3336.30507	0.96029
3334.24816	0.96091
3332.19126	0.96138
3330.13435	0.96175
3328.07744	0.96215
3326.02053	0.96194
3323.96362	0.96149
3321.90672	0.96164
3319.84981	0.96209
3317.79290	0.96253
3315.73599	0.96287
3313.67908	0.96322
3311.62217	0.96358
3309.56527	0.96372
3307.50836	0.96371
3305.45145	0.96379
3303.39454	0.96391
3301.33763	0.96412
3299.28073	0.96457
3297.22382	0.96484
3295.16691	0.96479
3293.11000	0.96480
3291.05309	0.96517
3288.99618	0.96596
3286.93928	0.96675
3284.88237	0.96693
3282.82546	0.96650
3280.76855	0.96569
3278.71164	0.96467
3276.65474	0.96421
3274.59783	0.96458
3272.54092	0.96504
3270.48401	0.96528
3268.42710	0.96528
3266.37019	0.96522
3264.31329	0.96531
3262.25638	0.96539
3260.19947	0.96557
3258.14256	0.96608
3256.08565	0.96689
3254.02875	0.96778
3251.97184	0.96770
3249.91493	0.96662
3247.85802	0.96604
3245.80111	0.96632
3243.74420	0.96668
3241.68730	0.96695
3239.63039	0.96726
3237.57348	0.96735
3235.51657	0.96724
3233.45966	0.96711
3231.40276	0.96707
3229.34585	0.96739
3227.28894	0.96783
3225.23203	0.96788
3223.17512	0.96788
3221.11821	0.96847
3219.06131	0.96914
3217.00440	0.96892
3214.94749	0.96817
3212.89058	0.96800
3210.83367	0.96855
3208.77677	0.96897
3206.71986	0.96895
3204.66295	0.96866
3202.60604	0.96828
3200.54913	0.96797
3198.49222	0.96764
3196.43532	0.96773
3194.37841	0.96859
3192.32150	0.96940
3190.26459	0.96967
3188.20768	0.96967
3186.15078	0.96967
3184.09387	0.96986
3182.03696	0.97002
3179.98005	0.97006
3177.92314	0.97024
3175.86623	0.97029
3173.80933	0.97003
3171.75242	0.97002
3169.69551	0.97049
3167.63860	0.97091
3165.58169	0.97111
3163.52479	0.97106
3161.46788	0.97071
3159.41097	0.97067
3157.35406	0.97110
3155.29715	0.97135
3153.24024	0.97121
3151.18334	0.97131
3149.12643	0.97163
3147.06952	0.97137
3145.01261	0.97069
3142.95570	0.97027
3140.89880	0.97067
3138.84189	0.97156
3136.78498	0.97193
3134.72807	0.97185
3132.67116	0.97173
3130.61425	0.97162
3128.55735	0.97157
3126.50044	0.97154
3124.44353	0.97154
3122.38662	0.97172
3120.32971	0.97189
3118.27281	0.97179
3116.21590	0.97159
3114.15899	0.97168
3112.10208	0.97199
3110.04517	0.97210
3107.98826	0.97205
3105.93136	0.97211
3103.87445	0.97223
3101.81754	0.97246
3099.76063	0.97288
3097.70372	0.97319
3095.64682	0.97312
3093.58991	0.97277
3091.53300	0.97248
3089.47609	0.97256
3087.41918	0.97285
3085.36227	0.97309
3083.30537	0.97290
3081.24846	0.97230
3079.19155	0.97202
3077.13464	0.97226
3075.07773	0.97267
3073.02083	0.97305
3070.96392	0.97312
3068.90701	0.97307
3066.85010	0.97311
3064.79319	0.97303
3062.73628	0.97323
3060.67938	0.97359
3058.62247	0.97316
3056.56556	0.97228
3054.50865	0.97193
3052.45174	0.97223
3050.39484	0.97256
3048.33793	0.97237
3046.28102	0.97210
3044.22411	0.97205
3042.16720	0.97191
3040.11029	0.97198
3038.05339	0.97228
3035.99648	0.97236
3033.93957	0.97242
3031.88266	0.97262
3029.82575	0.97270
3027.76885	0.97250
3025.71194	0.97249
3023.65503	0.97290
3021.59812	0.97292
3019.54121	0.97238
3017.48430	0.97197
3015.42740	0.97156
3013.37049	0.97121
3011.31358	0.97140
3009.25667	0.97178
3007.19976	0.97166
3005.14286	0.97118
3003.08595	0.97101
3001.02904	0.97109
2998.97213	0.97081
2996.91522	0.97027
2994.85831	0.96999
2992.80141	0.96970
2990.74450	0.96906
2988.68759	0.96836
2986.63068	0.96782
2984.57377	0.96710
2982.51687	0.96608
2980.45996	0.96509
2978.40305	0.96363
2976.34614	0.96138
2974.28923	0.95917
2972.23232	0.95710
2970.17542	0.95432
2968.11851	0.95108
2966.06160	0.94817
2964.00469	0.94542
2961.94778	0.94290
2959.89088	0.94124
2957.83397	0.94039
2955.77706	0.94011
2953.72015	0.94047
2951.66324	0.94136
2949.60633	0.94195
2947.54943	0.94195
2945.49252	0.94188
2943.43561	0.94155
2941.37870	0.94048
2939.32179	0.93921
2937.26489	0.93842
2935.20798	0.93782
2933.15107	0.93707
2931.09416	0.93674
2929.03725	0.93732
2926.98034	0.93833
2924.92344	0.93941
2922.86653	0.94082
2920.80962	0.94226
2918.75271	0.94344
2916.69580	0.94446
2914.63890	0.94511
2912.58199	0.94544
2910.52508	0.94619
2908.46817	0.94737
2906.41126	0.94823
2904.35435	0.94876
2902.29745	0.94921
2900.24054	0.94940
2898.18363	0.94942
2896.12672	0.94983
2894.06981	0.95056
2892.01291	0.95110
2889.95600	0.95144
2887.89909	0.95164
2885.84218	0.95159
2883.78527	0.95127
2881.72836	0.95027
2879.67146	0.94865
2877.61455	0.94698
2875.55764	0.94529
2873.50073	0.94397
2871.44382	0.94358
2869.38692	0.94378
2867.33001	0.94401
2865.27310	0.94431
2863.21619	0.94478
2861.15928	0.94564
2859.10237	0.94709
2857.04547	0.94877
2854.98856	0.95033
2852.93165	0.95178
2850.87474	0.95315
2848.81783	0.95468
2846.76093	0.95656
2844.70402	0.95844
2842.64711	0.96013
2840.59020	0.96155
2838.53329	0.96254
2836.47638	0.96328
2834.41948	0.96402
2832.36257	0.96459
2830.30566	0.96471
2828.24875	0.96476
2826.19184	0.96523
2824.13494	0.96580
2822.07803	0.96617
2820.02112	0.96673
2817.96421	0.96714
2815.90730	0.96696
2813.85039	0.96687
2811.79349	0.96698
2809.73658	0.96715
2807.67967	0.96747
2805.62276	0.96743
2803.56585	0.96713
2801.50895	0.96731
2799.45204	0.96777
2797.39513	0.96794
2795.33822	0.96797
2793.28131	0.96826
2791.22440	0.96869
2789.16750	0.96901
2787.11059	0.96946
2785.05368	0.96992
2782.99677	0.96974
2780.93986	0.96903
2778.88296	0.96875
2776.82605	0.96907
2774.76914	0.96906
2772.71223	0.96883
2770.65532	0.96913
2768.59841	0.96975
2766.54151	0.97013
2764.48460	0.97007
2762.42769	0.96990
2760.37078	0.96994
2758.31387	0.97017
2756.25697	0.97055
2754.20006	0.97091
2752.14315	0.97095
2750.08624	0.97055
2748.02933	0.97018
2745.97242	0.97027
2743.91552	0.97062
2741.85861	0.97080
2739.80170	0.97053
2737.74479	0.97010
2735.68788	0.96985
2733.63098	0.96976
2731.57407	0.96981
2729.51716	0.97003
2727.46025	0.97018
2725.40334	0.97013
2723.34643	0.96986
2721.28953	0.96967
2719.23262	0.96999
2717.17571	0.97056
2715.11880	0.97083
2713.06189	0.97081
2711.00499	0.97064
2708.94808	0.97056
2706.89117	0.97091
2704.83426	0.97139
2702.77735	0.97162
2700.72044	0.97161
2698.66354	0.97147
2696.60663	0.97135
2694.54972	0.97134
2692.49281	0.97123
2690.43590	0.97080
2688.37900	0.97043
2686.32209	0.97059
2684.26518	0.97099
2682.20827	0.97124
2680.15136	0.97138
2678.09445	0.97135
2676.03755	0.97122
2673.98064	0.97121
2671.92373	0.97133
2669.86682	0.97140
2667.80991	0.97119
2665.75301	0.97074
2663.69610	0.97058
2661.63919	0.97062
2659.58228	0.97031
2657.52537	0.97001
2655.46846	0.97018
2653.41156	0.97036
2651.35465	0.97046
2649.29774	0.97070
2647.24083	0.97085
2645.18392	0.97065
2643.12702	0.97044
2641.07011	0.97068
2639.01320	0.97119
2636.95629	0.97135
2634.89938	0.97134
2632.84247	0.97156
2630.78557	0.97200
2628.72866	0.97231
2626.67175	0.97212
2624.61484	0.97203
2622.55793	0.97227
2620.50103	0.97211
2618.44412	0.97178
2616.38721	0.97206
2614.33030	0.97266
2612.27339	0.97285
2610.21648	0.97283
2608.15958	0.97306
2606.10267	0.97312
2604.04576	0.97278
2601.98885	0.97287
2599.93194	0.97345
2597.87504	0.97376
2595.81813	0.97357
2593.76122	0.97288
2591.70431	0.97221
2589.64740	0.97217
2587.59049	0.97208
2585.53359	0.97192
2583.47668	0.97212
2581.41977	0.97226
2579.36286	0.97242
2577.30595	0.97270
2575.24905	0.97278
2573.19214	0.97286
2571.13523	0.97346
2569.07832	0.97404
2567.02141	0.97341
2564.96450	0.97245
2562.90760	0.97244
2560.85069	0.97287
2558.79378	0.97325
2556.73687	0.97372
2554.67996	0.97428
2552.62306	0.97447
2550.56615	0.97414
2548.50924	0.97403
2546.45233	0.97411
2544.39542	0.97376
2542.33851	0.97333
2540.28161	0.97353
2538.22470	0.97408
2536.16779	0.97429
2534.11088	0.97442
2532.05397	0.97453
2529.99707	0.97444
2527.94016	0.97425
2525.88325	0.97421
2523.82634	0.97445
2521.76943	0.97439
2519.71252	0.97376
2517.65562	0.97334
2515.59871	0.97343
2513.54180	0.97346
2511.48489	0.97331
2509.42798	0.97330
2507.37108	0.97355
2505.31417	0.97387
2503.25726	0.97423
2501.20035	0.97484
2499.14344	0.97543
2497.08653	0.97549
2495.02963	0.97510
2492.97272	0.97490
2490.91581	0.97500
2488.85890	0.97475
2486.80199	0.97408
2484.74509	0.97340
2482.68818	0.97323
2480.63127	0.97377
2478.57436	0.97436
2476.51745	0.97466
2474.46054	0.97428
2472.40364	0.97312
2470.34673	0.97271
2468.28982	0.97358
2466.23291	0.97440
2464.17600	0.97478
2462.11910	0.97511
2460.06219	0.97527
2458.00528	0.97501
2455.94837	0.97449
2453.89146	0.97413
2451.83455	0.97407
2449.77765	0.97439
2447.72074	0.97476
2445.66383	0.97460
2443.60692	0.97438
2441.55001	0.97456
2439.49311	0.97452
2437.43620	0.97379
2435.37929	0.97316
2433.32238	0.97309
2431.26547	0.97345
2429.20856	0.97421
2427.15166	0.97484
2425.09475	0.97511
2423.03784	0.97531
2420.98093	0.97533
2418.92402	0.97508
2416.86712	0.97487
2414.81021	0.97447
2412.75330	0.97411
2410.69639	0.97430
2408.63948	0.97455
2406.58257	0.97478
2404.52567	0.97503
2402.46876	0.97488
2400.41185	0.97462
2398.35494	0.97442
2396.29803	0.97457
2394.24113	0.97534
2392.18422	0.97571
2390.12731	0.97549
2388.07040	0.97529
2386.01349	0.97508
2383.95658	0.97491
2381.89968	0.97488
2379.84277	0.97496
2377.78586	0.97512
2375.72895	0.97546
2373.67204	0.97599
2371.61514	0.97641
2369.55823	0.97608
2367.50132	0.97582
2365.44441	0.97669
2363.38750	0.97671
2361.33059	0.97518
2359.27369	0.97456
2357.21678	0.97518
2355.15987	0.97562
2353.10296	0.97550
2351.04605	0.97482
2348.98915	0.97446
2346.93224	0.97482
2344.87533	0.97501
2342.81842	0.97437
2340.76151	0.97343
2338.70460	0.97319
2336.64770	0.97417
2334.59079	0.97529
2332.53388	0.97549
2330.47697	0.97549
2328.42006	0.97549
2326.36316	0.97471
2324.30625	0.97378
2322.24934	0.97345
2320.19243	0.97320
2318.13552	0.97276
2316.07861	0.97265
2314.02171	0.97308
2311.96480	0.97369
2309.90789	0.97400
2307.85098	0.97382
2305.79407	0.97327
2303.73717	0.97275
2301.68026	0.97291
2299.62335	0.97384
2297.56644	0.97464
2295.50953	0.97452
2293.45262	0.97371
2291.39572	0.97293
2289.33881	0.97284
2287.28190	0.97344
2285.22499	0.97430
2283.16808	0.97517
2281.11117	0.97538
2279.05427	0.97504
2276.99736	0.97479
2274.94045	0.97472
2272.88354	0.97489
2270.82663	0.97500
2268.76973	0.97480
2266.71282	0.97482
2264.65591	0.97499
2262.59900	0.97487
2260.54209	0.97510
2258.48518	0.97587
2256.42828	0.97655
2254.37137	0.97645
2252.31446	0.97545
2250.25755	0.97489
2248.20064	0.97498
2246.14374	0.97450
2244.08683	0.97405
2242.02992	0.97499
2239.97301	0.97673
2237.91610	0.97792
2235.85919	0.97803
2233.80229	0.97744
2231.74538	0.97708
2229.68847	0.97726
2227.63156	0.97707
2225.57465	0.97634
2223.51775	0.97623
2221.46084	0.97661
2219.40393	0.97661
2217.34702	0.97613
2215.29011	0.97568
2213.23320	0.97609
2211.17630	0.97666
2209.11939	0.97608
2207.06248	0.97462
2205.00557	0.97331
2202.94866	0.97292
2200.89176	0.97317
2198.83485	0.97378
2196.77794	0.97542
2194.72103	0.97802
2192.66412	0.98047
2190.60721	0.98043
2188.55031	0.97731
2186.49340	0.97510
2184.43649	0.97638
2182.37958	0.97860
2180.32267	0.97878
2178.26577	0.97773
2176.20886	0.97740
2174.15195	0.97691
2172.09504	0.97496
2170.03813	0.97315
2167.98122	0.97309
2165.92432	0.97394
2163.86741	0.97441
2161.81050	0.97397
2159.75359	0.97480
2157.69668	0.97784
2155.63978	0.97954
2153.58287	0.97927
2151.52596	0.97889
2149.46905	0.97890
2147.41214	0.97893
2145.35523	0.97862
2143.29833	0.97806
2141.24142	0.97826
2139.18451	0.98003
2137.12760	0.98131
2135.07069	0.97990
2133.01379	0.97704
2130.95688	0.97608
2128.89997	0.97837
2126.84306	0.97961
2124.78615	0.97763
2122.72924	0.97617
2120.67234	0.97578
2118.61543	0.97563
2116.55852	0.97657
2114.50161	0.97698
2112.44470	0.97593
2110.38780	0.97548
2108.33089	0.97579
2106.27398	0.97563
2104.21707	0.97543
2102.16016	0.97552
2100.10325	0.97526
2098.04635	0.97481
2095.98944	0.97530
2093.93253	0.97644
2091.87562	0.97633
2089.81871	0.97535
2087.76181	0.97566
2085.70490	0.97660
2083.64799	0.97634
2081.59108	0.97591
2079.53417	0.97633
2077.47726	0.97746
2075.42036	0.97818
2073.36345	0.97674
2071.30654	0.97516
2069.24963	0.97615
2067.19272	0.97814
2065.13582	0.97894
2063.07891	0.97874
2061.02200	0.97818
2058.96509	0.97738
2056.90818	0.97714
2054.85127	0.97742
2052.79437	0.97676
2050.73746	0.97554
2048.68055	0.97545
2046.62364	0.97668
2044.56673	0.97875
2042.50983	0.98011
2040.45292	0.97895
2038.39601	0.97702
2036.33910	0.97651
2034.28219	0.97659
2032.22528	0.97718
2030.16838	0.97811
2028.11147	0.97834
2026.05456	0.97871
2023.99765	0.97946
2021.94074	0.97939
2019.88384	0.97848
2017.82693	0.97817
2015.77002	0.97891
2013.71311	0.98040
2011.65620	0.98153
2009.59929	0.98037
2007.54239	0.97890
2005.48548	0.97953
2003.42857	0.98027
2001.37166	0.98007
1999.31475	0.97970
1997.25785	0.97895
1995.20094	0.97803
1993.14403	0.97817
1991.08712	0.97915
1989.03021	0.97973
1986.97330	0.98006
1984.91640	0.98024
1982.85949	0.98042
1980.80258	0.98096
1978.74567	0.98156
1976.68876	0.98264
1974.63186	0.98349
1972.57495	0.98218
1970.51804	0.98065
1968.46113	0.98046
1966.40422	0.98002
1964.34731	0.97992
1962.29041	0.98097
1960.23350	0.98217
1958.17659	0.98181
1956.11968	0.98022
1954.06277	0.97961
1952.00587	0.97963
1949.94896	0.97909
1947.89205	0.97896
1945.83514	0.97914
1943.77823	0.97838
1941.72132	0.97777
1939.66442	0.97868
1937.60751	0.97957
1935.55060	0.97870
1933.49369	0.97714
1931.43678	0.97682
1929.37988	0.97771
1927.32297	0.97863
1925.26606	0.97886
1923.20915	0.97881
1921.15224	0.97919
1919.09533	0.97968
1917.03843	0.97967
1914.98152	0.97914
1912.92461	0.97873
1910.86770	0.97919
1908.81079	0.97953
1906.75389	0.97930
1904.69698	0.97976
1902.64007	0.98040
1900.58316	0.97968
1898.52625	0.97805
1896.46934	0.97731
1894.41244	0.97793
1892.35553	0.97884
1890.29862	0.97934
1888.24171	0.97942
1886.18480	0.97924
1884.12790	0.97927
1882.07099	0.97901
1880.01408	0.97838
1877.95717	0.97836
1875.90026	0.97877
1873.84335	0.97912
1871.78645	0.97954
1869.72954	0.98047
1867.67263	0.98118
1865.61572	0.98047
1863.55881	0.97965
1861.50191	0.97945
1859.44500	0.97937
1857.38809	0.97963
1855.33118	0.98020
1853.27427	0.98063
1851.21736	0.98075
1849.16046	0.98060
1847.10355	0.98048
1845.04664	0.98069
1842.98973	0.98089
1840.93282	0.98071
1838.87592	0.98048
1836.81901	0.98003
1834.76210	0.97941
1832.70519	0.97918
1830.64828	0.97934
1828.59137	0.97916
1826.53447	0.97877
1824.47756	0.97895
1822.42065	0.97946
1820.36374	0.97957
1818.30683	0.97930
1816.24993	0.97902
1814.19302	0.97881
1812.13611	0.97873
1810.07920	0.97838
1808.02229	0.97801
1805.96538	0.97787
1803.90848	0.97780
1801.85157	0.97772
1799.79466	0.97754
1797.73775	0.97770
1795.68084	0.97817
1793.62394	0.97797
1791.56703	0.97669
1789.51012	0.97600
1787.45321	0.97570
1785.39630	0.97493
1783.33939	0.97400
1781.28249	0.97296
1779.22558	0.97097
1777.16867	0.96861
1775.11176	0.96624
1773.05485	0.96227
1770.99795	0.95583
1768.94104	0.94825
1766.88413	0.93894
1764.82722	0.92819
1762.77031	0.91469
1760.71340	0.89838
1758.65650	0.88391
1756.59959	0.86995
1754.54268	0.85789
1752.48577	0.84797
1750.42886	0.83577
1748.37196	0.82287
1746.31505	0.81354
1744.25814	0.80654
1742.20123	0.80063
1740.14432	0.79553
1738.08741	0.79289
1736.03051	0.79301
1733.97360	0.79275
1731.91669	0.79310
1729.85978	0.79650
1727.80287	0.80167
1725.74597	0.80782
1723.68906	0.81518
1721.63215	0.82302
1719.57524	0.83132
1717.51833	0.84221
1715.46142	0.85525
1713.40452	0.86709
1711.34761	0.87759
1709.29070	0.88715
1707.23379	0.89645
1705.17688	0.90570
1703.11998	0.91304
1701.06307	0.91904
1699.00616	0.92463
1696.94925	0.92893
1694.89234	0.93305
1692.83543	0.93668
1690.77853	0.93976
1688.72162	0.94254
1686.66471	0.94484
1684.60780	0.94697
1682.55089	0.94847
1680.49399	0.94952
1678.43708	0.95068
1676.38017	0.95191
1674.32326	0.95278
1672.26635	0.95312
1670.20944	0.95341
1668.15254	0.95385
1666.09563	0.95459
1664.03872	0.95534
1661.98181	0.95568
1659.92490	0.95575
1657.86800	0.95589
1655.81109	0.95618
1653.75418	0.95649
1651.69727	0.95639
1649.64036	0.95619
1647.58345	0.95562
1645.52655	0.95491
1643.46964	0.95501
1641.41273	0.95529
1639.35582	0.95526
1637.29891	0.95496
1635.24201	0.95474
1633.18510	0.95479
1631.12819	0.95510
1629.07128	0.95574
1627.01437	0.95657
1624.95746	0.95753
1622.90056	0.95836
1620.84365	0.95891
1618.78674	0.95958
1616.72983	0.96026
1614.67292	0.96072
1612.61602	0.96130
1610.55911	0.96212
1608.50220	0.96300
1606.44529	0.96379
1604.38838	0.96455
1602.33147	0.96505
1600.27457	0.96536
1598.21766	0.96593
1596.16075	0.96640
1594.10384	0.96656
1592.04693	0.96713
1589.99003	0.96795
1587.93312	0.96825
1585.87621	0.96820
1583.81930	0.96817
1581.76239	0.96833
1579.70548	0.96868
1577.64858	0.96896
1575.59167	0.96902
1573.53476	0.96939
1571.47785	0.96989
1569.42094	0.96975
1567.36404	0.96930
1565.30713	0.96937
1563.25022	0.96974
1561.19331	0.96989
1559.13640	0.96925
1557.07949	0.96937
1555.02259	0.97035
1552.96568	0.97056
1550.90877	0.97037
1548.85186	0.97066
1546.79495	0.97131
1544.73805	0.97167
1542.68114	0.97136
1540.62423	0.97067
1538.56732	0.97051
1536.51041	0.97071
1534.45350	0.97083
1532.39660	0.97126
1530.33969	0.97217
1528.28278	0.97282
1526.22587	0.97270
1524.16896	0.97231
1522.11206	0.97240
1520.05515	0.97278
1517.99824	0.97277
1515.94133	0.97239
1513.88442	0.97213
1511.82751	0.97234
1509.77061	0.97290
1507.71370	0.97304
1505.65679	0.97229
1503.59988	0.97224
1501.54297	0.97260
1499.48607	0.97294
1497.42916	0.97289
1495.37225	0.97238
1493.31534	0.97212
1491.25843	0.97206
1489.20152	0.97195
1487.14462	0.97191
1485.08771	0.97172
1483.03080	0.97143
1480.97389	0.97099
1478.91698	0.97006
1476.86008	0.96841
1474.80317	0.96573
1472.74626	0.96062
1470.68935	0.95487
1468.63244	0.95163
1466.57553	0.94965
1464.51863	0.94776
1462.46172	0.94616
1460.40481	0.94530
1458.34790	0.94489
1456.29099	0.94410
1454.23409	0.94364
1452.17718	0.94402
1450.12027	0.94438
1448.06336	0.94420
1446.00645	0.94366
1443.94954	0.94313
1441.89264	0.94271
1439.83573	0.94224
1437.77882	0.94141
1435.72191	0.94035
1433.66500	0.93993
1431.60810	0.93964
1429.55119	0.93888
1427.49428	0.93821
1425.43737	0.93789
1423.38046	0.93770
1421.32355	0.93762
1419.26665	0.93726
1417.20974	0.93704
1415.15283	0.93779
1413.09592	0.93901
1411.03901	0.94050
1408.98211	0.94234
1406.92520	0.94416
1404.86829	0.94542
1402.81138	0.94619
1400.75447	0.94681
1398.69756	0.94683
1396.64066	0.94573
1394.58375	0.94329
1392.52684	0.93995
1390.46993	0.93605
1388.41302	0.93022
1386.35612	0.92210
1384.29921	0.91416
1382.24230	0.90688
1380.18539	0.89987
1378.12848	0.89379
1376.07157	0.88859
1374.01467	0.88360
1371.95776	0.87990
1369.90085	0.87840
1367.84394	0.87860
1365.78703	0.88074
1363.73013	0.88567
1361.67322	0.89325
1359.61631	0.90108
1357.55940	0.90830
1355.50249	0.91500
1353.44558	0.92069
1351.38868	0.92517
1349.33177	0.92861
1347.27486	0.93110
1345.21795	0.93273
1343.16104	0.93388
1341.10414	0.93503
1339.04723	0.93629
1336.99032	0.93729
1334.93341	0.93786
1332.87650	0.93799
1330.81959	0.93765
1328.76269	0.93704
1326.70578	0.93626
1324.64887	0.93507
1322.59196	0.93356
1320.53505	0.93203
1318.47815	0.93073
1316.42124	0.93015
1314.36433	0.93063
1312.30742	0.93173
1310.25051	0.93293
1308.19360	0.93391
1306.13670	0.93452
1304.07979	0.93481
1302.02288	0.93479
1299.96597	0.93431
1297.90906	0.93342
1295.85216	0.93247
1293.79525	0.93141
1291.73834	0.93017
1289.68143	0.92913
1287.62452	0.92844
1285.56761	0.92794
1283.51071	0.92704
1281.45380	0.92516
1279.39689	0.92261
1277.33998	0.91961
1275.28307	0.91621
1273.22617	0.91278
1271.16926	0.90931
1269.11235	0.90559
1267.05544	0.90137
1264.99853	0.89639
1262.94162	0.89063
1260.88472	0.88392
1258.82781	0.87600
1256.77090	0.86697
1254.71399	0.85720
1252.65708	0.84716
1250.60018	0.83691
1248.54327	0.82645
1246.48636	0.81614
1244.42945	0.80632
1242.37254	0.79709
1240.31563	0.78832
1238.25873	0.77976
1236.20182	0.77148
1234.14491	0.76362
1232.08800	0.75636
1230.03109	0.75033
1227.97419	0.74573
1225.91728	0.74252
1223.86037	0.74147
1221.80346	0.74347
1219.74655	0.74839
1217.68964	0.75599
1215.63274	0.76577
1213.57583	0.77661
1211.51892	0.78801
1209.46201	0.80010
1207.40510	0.81252
1205.34820	0.82472
1203.29129	0.83667
1201.23438	0.84825
1199.17747	0.85864
1197.12056	0.86701
1195.06365	0.87262
1193.00675	0.87500
1190.94984	0.87448
1188.89293	0.87192
1186.83602	0.86785
1184.77911	0.86235
1182.72221	0.85592
1180.66530	0.84908
1178.60839	0.84205
1176.55148	0.83507
1174.49457	0.82838
1172.43766	0.82219
1170.38076	0.81648
1168.32385	0.81103
1166.26694	0.80616
1164.21003	0.80252
1162.15312	0.80019
1160.09622	0.79952
1158.03931	0.80090
1155.98240	0.80394
1153.92549	0.80853
1151.86858	0.81479
1149.81167	0.82230
1147.75477	0.83002
1145.69786	0.83718
1143.64095	0.84346
1141.58404	0.84850
1139.52713	0.85197
1137.47023	0.85381
1135.41332	0.85424
1133.35641	0.85351
1131.29950	0.85172
1129.24259	0.84903
1127.18568	0.84598
1125.12878	0.84264
1123.07187	0.83894
1121.01496	0.83519
1118.95805	0.83129
1116.90114	0.82692
1114.84424	0.82248
1112.78733	0.81880
1110.73042	0.81610
1108.67351	0.81389
1106.61660	0.81160
1104.55969	0.80927
1102.50279	0.80703
1100.44588	0.80478
1098.38897	0.80268
1096.33206	0.80054
1094.27515	0.79789
1092.21825	0.79474
1090.16134	0.79134
1088.10443	0.78742
1086.04752	0.78278
1083.99061	0.77737
1081.93370	0.77105
1079.87680	0.76411
1077.81989	0.75707
1075.76298	0.75030
1073.70607	0.74399
1071.64916	0.73818
1069.59226	0.73272
1067.53535	0.72734
1065.47844	0.72234
1063.42153	0.71781
1061.36462	0.71320
1059.30771	0.70817
1057.25081	0.70309
1055.19390	0.69855
1053.13699	0.69423
1051.08008	0.68969
1049.02317	0.68555
1046.96627	0.68237
1044.90936	0.67959
1042.85245	0.67653
1040.79554	0.67337
1038.73863	0.67035
1036.68172	0.66746
1034.62482	0.66478
1032.56791	0.66277
1030.51100	0.66207
1028.45409	0.66309
1026.39718	0.66585
1024.34028	0.67025
1022.28337	0.67590
1020.22646	0.68218
1018.16955	0.68877
1016.11264	0.69547
1014.05573	0.70239
1011.99883	0.70969
1009.94192	0.71703
1007.88501	0.72434
1005.82810	0.73199
1003.77119	0.73987
1001.71429	0.74766
999.65738	0.75542
997.60047	0.76323
995.54356	0.77078
993.48665	0.77783
991.42974	0.78434
989.37284	0.79041
987.31593	0.79623
985.25902	0.80179
983.20211	0.80700
981.14520	0.81178
979.08830	0.81622
977.03139	0.82076
974.97448	0.82568
972.91757	0.83105
970.86066	0.83657
968.80375	0.84172
966.74685	0.84664
964.68994	0.85181
962.63303	0.85674
960.57612	0.86081
958.51921	0.86423
956.46231	0.86718
954.40540	0.86947
952.34849	0.87141
950.29158	0.87344
948.23467	0.87542
946.17776	0.87749
944.12086	0.87970
942.06395	0.88130
940.00704	0.88204
937.95013	0.88233
935.89322	0.88251
933.83632	0.88287
931.77941	0.88310
929.72250	0.88288
927.66559	0.88241
925.60868	0.88137
923.55177	0.87972
921.49487	0.87826
919.43796	0.87726
917.38105	0.87648
915.32414	0.87591
913.26723	0.87555
911.21033	0.87514
909.15342	0.87465
907.09651	0.87427
905.03960	0.87377
902.98269	0.87335
900.92578	0.87364
898.86888	0.87440
896.81197	0.87532
894.75506	0.87652
892.69815	0.87754
890.64124	0.87846
888.58434	0.88030
886.52743	0.88305
884.47052	0.88570
882.41361	0.88792
880.35670	0.89047
878.29979	0.89369
876.24289	0.89705
874.18598	0.90046
872.12907	0.90382
870.07216	0.90681
868.01525	0.90933
865.95835	0.91127
863.90144	0.91274
861.84453	0.91389
859.78762	0.91514
857.73071	0.91653
855.67380	0.91737
853.61690	0.91760
851.55999	0.91743
849.50308	0.91693
847.44617	0.91668
845.38926	0.91683
843.33236	0.91715
841.27545	0.91747
839.21854	0.91750
837.16163	0.91776
835.10472	0.91862
833.04781	0.91937
830.99091	0.92024
828.93400	0.92213
826.87709	0.92443
824.82018	0.92582
822.76327	0.92630
820.70637	0.92679
818.64946	0.92743
816.59255	0.92760
814.53564	0.92766
812.47873	0.92807
810.42182	0.92780
808.36492	0.92656
806.30801	0.92532
804.25110	0.92431
802.19419	0.92326
800.13728	0.92225
798.08038	0.92129
796.02347	0.92049
793.96656	0.92050
791.90965	0.92124
789.85274	0.92199
787.79583	0.92284
785.73893	0.92391
783.68202	0.92466
781.62511	0.92501
779.56820	0.92576
777.51129	0.92697
775.45439	0.92809
773.39748	0.92887
771.34057	0.92948
769.28366	0.93024
767.22675	0.93085
765.16984	0.93105
763.11294	0.93112
761.05603	0.93139
758.99912	0.93170
756.94221	0.93163
754.88530	0.93131
752.82839	0.93111
750.77149	0.93056
748.71458	0.92909
746.65767	0.92756
744.60076	0.92714
742.54385	0.92692
740.48695	0.92559
738.43004	0.92391
736.37313	0.92250
734.31622	0.92091
732.25931	0.91990
730.20240	0.92015
728.14550	0.92064
726.08859	0.92105
724.03168	0.92214
721.97477	0.92350
719.91786	0.92393
717.86096	0.92338
715.80405	0.92274
713.74714	0.92275
711.69023	0.92303
709.63332	0.92262
707.57641	0.92184
705.51951	0.92181
703.46260	0.92260
701.40569	0.92309
699.34878	0.92226
697.29187	0.92072
695.23497	0.91950
693.17806	0.91795
691.12115	0.91614
689.06424	0.91520
687.00733	0.91437
684.95042	0.91310
682.89352	0.91228
680.83661	0.91244
678.77970	0.91280
676.72279	0.91216
674.66588	0.91108
672.60898	0.91098
670.55207	0.91198
668.49516	0.91307
666.43825	0.91313
664.38134	0.91271
662.32443	0.91223
660.26753	0.91150
658.21062	0.91082
656.15371	0.91052
654.09680	0.91025
652.03989	0.90959
649.98299	0.90746
647.92608	0.90403
645.86917	0.90171
643.81226	0.90062
641.75535	0.89889
639.69844	0.89671
637.64154	0.89512
635.58463	0.89389
633.52772	0.89233
631.47081	0.89027
629.41390	0.88852
627.35700	0.88744
625.30009	0.88604
623.24318	0.88425
621.18627	0.88235
619.12936	0.87948
617.07245	0.87647
615.01555	0.87445
612.95864	0.87211
610.90173	0.86871
608.84482	0.86495
606.78791	0.86142
604.73101	0.85805
602.67410	0.85582
600.61719	0.85675
598.56028	0.86057
596.50337	0.86477
594.44646	0.86779
592.38956	0.86972
590.33265	0.87174
588.27574	0.87443
586.21883	0.87663
584.16192	0.87780
582.10502	0.87829
580.04811	0.87816
577.99120	0.87777
575.93429	0.87711
573.87738	0.87659
571.82047	0.87657
569.76357	0.87597
567.70666	0.87376
565.64975	0.87062
563.59284	0.86887
561.53593	0.86854
559.47903	0.86770
557.42212	0.86706
555.36521	0.86829
553.30830	0.87014
551.25139	0.87021
549.19448	0.86915
547.13758	0.86902
545.08067	0.86957
543.02376	0.86989
540.96685	0.87089
538.90994	0.87175
536.85304	0.87097
534.79613	0.86990
532.73922	0.86915
530.68231	0.86749
528.62540	0.86468
526.56849	0.86220
524.51159	0.86048
522.45468	0.85837
520.39777	0.85647
518.34086	0.85553
516.28395	0.85467
514.22705	0.85331
512.17014	0.85117
510.11323	0.84858
508.05632	0.84640
505.99941	0.84446
503.94250	0.84294
501.88560	0.84167
499.82869	0.83961
497.77178	0.83689
495.71487	0.83463
493.65796	0.83395
491.60106	0.83424
489.54415	0.83358
487.48724	0.83118
485.43033	0.82835
483.37342	0.82700
481.31651	0.82648
479.25961	0.82529
477.20270	0.82449
475.14579	0.82433
473.08888	0.82290
471.03197	0.82091
468.97507	0.82039
466.91816	0.81991
464.86125	0.81920
462.80434	0.81975
460.74743	0.82111
458.69052	0.82251
456.63362	0.82301
454.57671	0.82348
452.51980	0.82511
450.46289	0.82618
448.40598	0.82600
446.34908	0.82610
444.29217	0.82680
442.23526	0.82647
440.17835	0.82629
438.12144	0.82693
436.06453	0.82730
434.00763	0.82990
431.95072	0.83397
429.89381	0.83508
427.83690	0.83344
425.77999	0.83262
423.72309	0.83483
421.66618	0.83939
419.60927	0.84305
417.55236	0.84128
415.49545	0.83900
413.43854	0.83937
411.38164	0.83867
409.32473	0.83716
407.26782	0.83851
405.21091	0.83973
403.15400	0.83738
401.09710	0.83417
399.04019	0.83386
