3996.57260	0.99686
3994.51569	0.99757
3992.45878	0.99768
3990.40188	0.99732
3988.34497	0.99695
3986.28806	0.99667
3984.23115	0.99687
3982.17424	0.99746
3980.11733	0.99787
3978.06043	0.99793
3976.00352	0.99774
3973.94661	0.99755
3971.88970	0.99728
3969.83279	0.99677
3967.77589	0.99657
3965.71898	0.99673
3963.66207	0.99671
3961.60516	0.99674
3959.54825	0.99717
3957.49134	0.99775
3955.43444	0.99786
3953.37753	0.99757
3951.32062	0.99746
3949.26371	0.99733
3947.20680	0.99728
3945.14990	0.99750
3943.09299	0.99751
3941.03608	0.99763
3938.97917	0.99747
3936.92226	0.99681
3934.86535	0.99687
3932.80845	0.99737
3930.75154	0.99699
3928.69463	0.99638
3926.63772	0.99642
3924.58081	0.99650
3922.52391	0.99640
3920.46700	0.99651
3918.41009	0.99663
3916.35318	0.99665
3914.29627	0.99665
3912.23936	0.99683
3910.18246	0.99747
3908.12555	0.99791
3906.06864	0.99789
3904.01173	0.99819
3901.95482	0.99797
3899.89792	0.99711
3897.84101	0.99735
3895.78410	0.99786
3893.72719	0.99760
3891.67028	0.99697
3889.61337	0.99660
3887.55647	0.99656
3885.49956	0.99685
3883.44265	0.99713
3881.38574	0.99696
3879.32883	0.99668
3877.27193	0.99680
3875.21502	0.99706
3873.15811	0.99754
3871.10120	0.99776
3869.04429	0.99672
3866.98738	0.99591
3864.93048	0.99625
3862.87357	0.99662
3860.81666	0.99653
3858.75975	0.99670
3856.70284	0.99722
3854.64594	0.99760
3852.58903	0.99794
3850.53212	0.99733
3848.47521	0.99630
3846.41830	0.99600
3844.36139	0.99628
3842.30449	0.99686
3840.24758	0.99757
3838.19067	0.99760
3836.13376	0.99721
3834.07685	0.99721
3832.01995	0.99746
3829.96304	0.99754
3827.90613	0.99736
3825.84922	0.99718
3823.79231	0.99719
3821.73540	0.99683
3819.67850	0.99612
3817.62159	0.99637
3815.56468	0.99700
3813.50777	0.99683
3811.45086	0.99647
3809.39396	0.99607
3807.33705	0.99597
3805.28014	0.99675
3803.22323	0.99723
3801.16632	0.99712
3799.10941	0.99700
3797.05251	0.99680
3794.99560	0.99654
3792.93869	0.99636
3790.88178	0.99615
3788.82487	0.99613
3786.76796	0.99654
3784.71106	0.99689
3782.65415	0.99684
3780.59724	0.99650
3778.54033	0.99625
3776.48342	0.99640
3774.42652	0.99643
3772.36961	0.99580
3770.31270	0.99488
3768.25579	0.99481
3766.19888	0.99597
3764.14197	0.99757
3762.08507	0.99828
3760.02816	0.99775
3757.97125	0.99671
3755.91434	0.99609
3753.85743	0.99611
3751.80053	0.99574
3749.74362	0.99462
3747.68671	0.99491
3745.62980	0.99583
3743.57289	0.99628
3741.51598	0.99709
3739.45908	0.99842
3737.40217	0.99942
3735.34526	0.99884
3733.28835	0.99734
3731.23144	0.99640
3729.17454	0.99605
3727.11763	0.99632
3725.06072	0.99661
3723.00381	0.99656
3720.94690	0.99705
3718.88999	0.99795
3716.83309	0.99790
3714.77618	0.99687
3712.71927	0.99663
3710.66236	0.99721
3708.60545	0.99675
3706.54855	0.99647
3704.49164	0.99698
3702.43473	0.99734
3700.37782	0.99705
3698.32091	0.99692
3696.26400	0.99705
3694.20710	0.99692
3692.15019	0.99703
3690.09328	0.99786
3688.03637	0.99856
3685.97946	0.99829
3683.92256	0.99769
3681.86565	0.99749
3679.80874	0.99762
3677.75183	0.99728
3675.69492	0.99587
3673.63801	0.99512
3671.58111	0.99575
3669.52420	0.99633
3667.46729	0.99639
3665.41038	0.99608
3663.35347	0.99568
3661.29657	0.99557
3659.23966	0.99560
3657.18275	0.99548
3655.12584	0.99516
3653.06893	0.99479
3651.01202	0.99416
3648.95512	0.99331
3646.89821	0.99372
3644.84130	0.99521
3642.78439	0.99618
3640.72748	0.99583
3638.67058	0.99514
3636.61367	0.99498
3634.55676	0.99467
3632.49985	0.99380
3630.44294	0.99259
3628.38603	0.99177
3626.32913	0.99243
3624.27222	0.99310
3622.21531	0.99289
3620.15840	0.99268
3618.10149	0.99321
3616.04459	0.99331
3613.98768	0.99273
3611.93077	0.99239
3609.87386	0.99205
3607.81695	0.99133
3605.76004	0.99131
3603.70314	0.99161
3601.64623	0.99103
3599.58932	0.99013
3597.53241	0.98996
3595.47550	0.99013
3593.41860	0.99026
3591.36169	0.99067
3589.30478	0.99098
3587.24787	0.99033
3585.19096	0.98919
3583.13405	0.98881
3581.07715	0.98853
3579.02024	0.98756
3576.96333	0.98711
3574.90642	0.98761
3572.84951	0.98772
3570.79261	0.98757
3568.73570	0.98779
3566.67879	0.98771
3564.62188	0.98673
3562.56497	0.98582
3560.50806	0.98519
3558.45116	0.98452
3556.39425	0.98413
3554.33734	0.98352
3552.28043	0.98235
3550.22352	0.98192
3548.16662	0.98259
3546.10971	0.98311
3544.05280	0.98271
3541.99589	0.98208
3539.93898	0.98145
3537.88207	0.98055
3535.82517	0.97960
3533.76826	0.97884
3531.71135	0.97850
3529.65444	0.97842
3527.59753	0.97800
3525.54063	0.97758
3523.48372	0.97753
3521.42681	0.97724
3519.36990	0.97658
3517.31299	0.97585
3515.25608	0.97493
3513.19918	0.97385
3511.14227	0.97334
3509.08536	0.97379
3507.02845	0.97419
3504.97154	0.97383
3502.91464	0.97342
3500.85773	0.97321
3498.80082	0.97276
3496.74391	0.97204
3494.68700	0.97132
3492.63009	0.97129
3490.57319	0.97126
3488.51628	0.97034
3486.45937	0.96972
3484.40246	0.97028
3482.34555	0.97129
3480.28865	0.97207
3478.23174	0.97209
3476.17483	0.97138
3474.11792	0.97061
3472.06101	0.97010
3470.00410	0.97021
3467.94720	0.97080
3465.89029	0.97119
3463.83338	0.97131
3461.77647	0.97119
3459.71956	0.97117
3457.66266	0.97139
3455.60575	0.97176
3453.54884	0.97206
3451.49193	0.97197
3449.43502	0.97199
3447.37811	0.97257
3445.32121	0.97350
3443.26430	0.97434
3441.20739	0.97470
3439.15048	0.97500
3437.09357	0.97529
3435.03667	0.97475
3432.97976	0.97412
3430.92285	0.97452
3428.86594	0.97558
3426.80903	0.97660
3424.75212	0.97704
3422.69522	0.97706
3420.63831	0.97735
3418.58140	0.97813
3416.52449	0.97866
3414.46758	0.97864
3412.41068	0.97870
3410.35377	0.97887
3408.29686	0.97868
3406.23995	0.97831
3404.18304	0.97835
3402.12613	0.97908
3400.06923	0.98011
3398.01232	0.98059
3395.95541	0.98074
3393.89850	0.98090
3391.84159	0.98064
3389.78469	0.98039
3387.72778	0.98052
3385.67087	0.98065
3383.61396	0.98128
3381.55705	0.98270
3379.50014	0.98369
3377.44324	0.98376
3375.38633	0.98376
3373.32942	0.98402
3371.27251	0.98424
3369.21560	0.98407
3367.15870	0.98359
3365.10179	0.98334
3363.04488	0.98353
3360.98797	0.98400
3358.93106	0.98429
3356.87415	0.98414
3354.81725	0.98427
3352.76034	0.98478
3350.70343	0.98475
3348.64652	0.98466
3346.58961	0.98516
3344.53271	0.98558
3342.47580	0.98531
3340.41889	0.98488
3338.36198	0.98531
3336.30507	0.98635
3334.24816	0.98663
3332.19126	0.98638
3330.13435	0.98671
3328.07744	0.98726
3326.02053	0.98746
3323.96362	0.98728
3321.90672	0.98681
3319.84981	0.98663
3317.79290	0.98715
3315.73599	0.98771
3313.67908	0.98763
3311.62217	0.98738
3309.56527	0.98744
3307.50836	0.98770
3305.45145	0.98772
3303.39454	0.98745
3301.33763	0.98713
3299.28073	0.98704
3297.22382	0.98763
3295.16691	0.98853
3293.11000	0.98902
3291.05309	0.98913
3288.99618	0.98910
3286.93928	0.98916
3284.88237	0.98944
3282.82546	0.98927
3280.76855	0.98863
3278.71164	0.98849
3276.65474	0.98867
3274.59783	0.98870
3272.54092	0.98887
3270.48401	0.98936
3268.42710	0.98992
3266.37019	0.99026
3264.31329	0.99031
3262.25638	0.99008
3260.19947	0.98985
3258.14256	0.98979
3256.08565	0.98995
3254.02875	0.99018
3251.97184	0.99018
3249.91493	0.99048
3247.85802	0.99109
3245.80111	0.99143
3243.74420	0.99135
3241.68730	0.99109
3239.63039	0.99101
3237.57348	0.99108
3235.51657	0.99149
3233.45966	0.99194
3231.40276	0.99148
3229.34585	0.99079
3227.28894	0.99091
3225.23203	0.99119
3223.17512	0.99129
3221.11821	0.99158
3219.06131	0.99174
3217.00440	0.99160
3214.94749	0.99163
3212.89058	0.99205
3210.83367	0.99231
3208.77677	0.99233
3206.71986	0.99244
3204.66295	0.99259
3202.60604	0.99276
3200.54913	0.99255
3198.49222	0.99230
3196.43532	0.99266
3194.37841	0.99306
3192.32150	0.99329
3190.26459	0.99341
3188.20768	0.99316
3186.15078	0.99265
3184.09387	0.99234
3182.03696	0.99246
3179.98005	0.99280
3177.92314	0.99297
3175.86623	0.99277
3173.80933	0.99257
3171.75242	0.99279
3169.69551	0.99342
3167.63860	0.99392
3165.58169	0.99401
3163.52479	0.99418
3161.46788	0.99435
3159.41097	0.99403
3157.35406	0.99344
3155.29715	0.99299
3153.24024	0.99289
3151.18334	0.99317
3149.12643	0.99373
3147.06952	0.99437
3145.01261	0.99466
3142.95570	0.99447
3140.89880	0.99410
3138.84189	0.99344
3136.78498	0.99290
3134.72807	0.99319
3132.67116	0.99375
3130.61425	0.99393
3128.55735	0.99398
3126.50044	0.99413
3124.44353	0.99408
3122.38662	0.99403
3120.32971	0.99452
3118.27281	0.99461
3116.21590	0.99377
3114.15899	0.99339
3112.10208	0.99385
3110.04517	0.99409
3107.98826	0.99392
3105.93136	0.99387
3103.87445	0.99392
3101.81754	0.99365
3099.76063	0.99322
3097.70372	0.99333
3095.64682	0.99376
3093.58991	0.99406
3091.53300	0.99431
3089.47609	0.99427
3087.41918	0.99393
3085.36227	0.99372
3083.30537	0.99373
3081.24846	0.99405
3079.19155	0.99433
3077.13464	0.99413
3075.07773	0.99367
3073.02083	0.99347
3070.96392	0.99369
3068.90701	0.99394
3066.85010	0.99405
3064.79319	0.99417
3062.73628	0.99429
3060.67938	0.99436
3058.62247	0.99455
3056.56556	0.99468
3054.50865	0.99429
3052.45174	0.99370
3050.39484	0.99341
3048.33793	0.99351
3046.28102	0.99387
3044.22411	0.99398
3042.16720	0.99365
3040.11029	0.99337
3038.05339	0.99304
3035.99648	0.99268
3033.93957	0.99292
3031.88266	0.99309
3029.82575	0.99276
3027.76885	0.99285
3025.71194	0.99316
3023.65503	0.99270
3021.59812	0.99196
3019.54121	0.99177
3017.48430	0.99188
3015.42740	0.99203
3013.37049	0.99217
3011.31358	0.99225
3009.25667	0.99235
3007.19976	0.99227
3005.14286	0.99201
3003.08595	0.99179
3001.02904	0.99134
2998.97213	0.99067
2996.91522	0.99011
2994.85831	0.99003
2992.80141	0.99024
2990.74450	0.98989
2988.68759	0.98908
2986.63068	0.98845
2984.57377	0.98778
2982.51687	0.98659
2980.45996	0.98495
2978.40305	0.98325
2976.34614	0.98174
2974.28923	0.98001
2972.23232	0.97784
2970.17542	0.97542
2968.11851	0.97261
2966.06160	0.96953
2964.00469	0.96669
2961.94778	0.96437
2959.89088	0.96255
2957.83397	0.96147
2955.77706	0.96082
2953.72015	0.96000
2951.66324	0.95967
2949.60633	0.96016
2947.54943	0.96046
2945.49252	0.95983
2943.43561	0.95856
2941.37870	0.95708
2939.32179	0.95522
2937.26489	0.95276
2935.20798	0.95030
2933.15107	0.94819
2931.09416	0.94630
2929.03725	0.94482
2926.98034	0.94418
2924.92344	0.94449
2922.86653	0.94550
2920.80962	0.94727
2918.75271	0.94953
2916.69580	0.95190
2914.63890	0.95415
2912.58199	0.95612
2910.52508	0.95814
2908.46817	0.96007
2906.41126	0.96128
2904.35435	0.96211
2902.29745	0.96321
2900.24054	0.96449
2898.18363	0.96598
2896.12672	0.96743
2894.06981	0.96842
2892.01291	0.96904
2889.95600	0.96940
2887.89909	0.96962
2885.84218	0.97000
2883.78527	0.97045
2881.72836	0.97025
2879.67146	0.96903
2877.61455	0.96727
2875.55764	0.96571
2873.50073	0.96481
2871.44382	0.96443
2869.38692	0.96415
2867.33001	0.96377
2865.27310	0.96295
2863.21619	0.96169
2861.15928	0.96044
2859.10237	0.95936
2857.04547	0.95888
2854.98856	0.95973
2852.93165	0.96193
2850.87474	0.96472
2848.81783	0.96760
2846.76093	0.97106
2844.70402	0.97528
2842.64711	0.97910
2840.59020	0.98176
2838.53329	0.98343
2836.47638	0.98436
2834.41948	0.98536
2832.36257	0.98674
2830.30566	0.98775
2828.24875	0.98824
2826.19184	0.98870
2824.13494	0.98921
2822.07803	0.98948
2820.02112	0.98957
2817.96421	0.98954
2815.90730	0.98937
2813.85039	0.98932
2811.79349	0.98951
2809.73658	0.98981
2807.67967	0.98991
2805.62276	0.98999
2803.56585	0.99030
2801.50895	0.99052
2799.45204	0.99081
2797.39513	0.99148
2795.33822	0.99184
2793.28131	0.99155
2791.22440	0.99137
2789.16750	0.99157
2787.11059	0.99194
2785.05368	0.99218
2782.99677	0.99198
2780.93986	0.99156
2778.88296	0.99149
2776.82605	0.99183
2774.76914	0.99202
2772.71223	0.99175
2770.65532	0.99155
2768.59841	0.99166
2766.54151	0.99166
2764.48460	0.99169
2762.42769	0.99214
2760.37078	0.99259
2758.31387	0.99253
2756.25697	0.99215
2754.20006	0.99208
2752.14315	0.99258
2750.08624	0.99296
2748.02933	0.99273
2745.97242	0.99243
2743.91552	0.99238
2741.85861	0.99234
2739.80170	0.99233
2737.74479	0.99256
2735.68788	0.99268
2733.63098	0.99244
2731.57407	0.99233
2729.51716	0.99253
2727.46025	0.99256
2725.40334	0.99232
2723.34643	0.99233
2721.28953	0.99256
2719.23262	0.99272
2717.17571	0.99281
2715.11880	0.99288
2713.06189	0.99282
2711.00499	0.99250
2708.94808	0.99228
2706.89117	0.99241
2704.83426	0.99249
2702.77735	0.99232
2700.72044	0.99221
2698.66354	0.99242
2696.60663	0.99282
2694.54972	0.99305
2692.49281	0.99310
2690.43590	0.99303
2688.37900	0.99297
2686.32209	0.99323
2684.26518	0.99346
2682.20827	0.99333
2680.15136	0.99318
2678.09445	0.99330
2676.03755	0.99344
2673.98064	0.99333
2671.92373	0.99326
2669.86682	0.99346
2667.80991	0.99365
2665.75301	0.99364
2663.69610	0.99361
2661.63919	0.99368
2659.58228	0.99366
2657.52537	0.99319
2655.46846	0.99252
2653.41156	0.99207
2651.35465	0.99189
2649.29774	0.99200
2647.24083	0.99233
2645.18392	0.99265
2643.12702	0.99268
2641.07011	0.99237
2639.01320	0.99196
2636.95629	0.99198
2634.89938	0.99252
2632.84247	0.99289
2630.78557	0.99307
2628.72866	0.99360
2626.67175	0.99388
2624.61484	0.99349
2622.55793	0.99318
2620.50103	0.99323
2618.44412	0.99354
2616.38721	0.99411
2614.33030	0.99438
2612.27339	0.99434
2610.21648	0.99447
2608.15958	0.99443
2606.10267	0.99388
2604.04576	0.99335
2601.98885	0.99326
2599.93194	0.99320
2597.87504	0.99291
2595.81813	0.99295
2593.76122	0.99347
2591.70431	0.99365
2589.64740	0.99307
2587.59049	0.99270
2585.53359	0.99302
2583.47668	0.99341
2581.41977	0.99376
2579.36286	0.99389
2577.30595	0.99348
2575.24905	0.99343
2573.19214	0.99401
2571.13523	0.99399
2569.07832	0.99316
2567.02141	0.99282
2564.96450	0.99342
2562.90760	0.99412
2560.85069	0.99453
2558.79378	0.99433
2556.73687	0.99366
2554.67996	0.99349
2552.62306	0.99381
2550.56615	0.99399
2548.50924	0.99384
2546.45233	0.99361
2544.39542	0.99392
2542.33851	0.99476
2540.28161	0.99530
2538.22470	0.99490
2536.16779	0.99418
2534.11088	0.99376
2532.05397	0.99347
2529.99707	0.99384
2527.94016	0.99445
2525.88325	0.99416
2523.82634	0.99356
2521.76943	0.99361
2519.71252	0.99409
2517.65562	0.99446
2515.59871	0.99464
2513.54180	0.99463
2511.48489	0.99446
2509.42798	0.99431
2507.37108	0.99416
2505.31417	0.99403
2503.25726	0.99429
2501.20035	0.99489
2499.14344	0.99510
2497.08653	0.99482
2495.02963	0.99452
2492.97272	0.99418
2490.91581	0.99387
2488.85890	0.99408
2486.80199	0.99468
2484.74509	0.99481
2482.68818	0.99402
2480.63127	0.99356
2478.57436	0.99439
2476.51745	0.99510
2474.46054	0.99488
2472.40364	0.99420
2470.34673	0.99354
2468.28982	0.99325
2466.23291	0.99336
2464.17600	0.99374
2462.11910	0.99387
2460.06219	0.99365
2458.00528	0.99358
2455.94837	0.99372
2453.89146	0.99415
2451.83455	0.99440
2449.77765	0.99392
2447.72074	0.99368
2445.66383	0.99430
2443.60692	0.99462
2441.55001	0.99437
2439.49311	0.99413
2437.43620	0.99395
2435.37929	0.99406
2433.32238	0.99470
2431.26547	0.99548
2429.20856	0.99571
2427.15166	0.99533
2425.09475	0.99491
2423.03784	0.99469
2420.98093	0.99457
2418.92402	0.99456
2416.86712	0.99471
2414.81021	0.99503
2412.75330	0.99522
2410.69639	0.99485
2408.63948	0.99438
2406.58257	0.99468
2404.52567	0.99526
2402.46876	0.99510
2400.41185	0.99446
2398.35494	0.99402
2396.29803	0.99402
2394.24113	0.99449
2392.18422	0.99474
2390.12731	0.99456
2388.07040	0.99458
2386.01349	0.99458
2383.95658	0.99443
2381.89968	0.99441
2379.84277	0.99439
2377.78586	0.99459
2375.72895	0.99503
2373.67204	0.99523
2371.61514	0.99481
2369.55823	0.99355
2367.50132	0.99222
2365.44441	0.99222
2363.38750	0.99317
2361.33059	0.99329
2359.27369	0.99306
2357.21678	0.99368
2355.15987	0.99426
2353.10296	0.99381
2351.04605	0.99334
2348.98915	0.99371
2346.93224	0.99451
2344.87533	0.99512
2342.81842	0.99532
2340.76151	0.99510
2338.70460	0.99469
2336.64770	0.99467
2334.59079	0.99479
2332.53388	0.99452
2330.47697	0.99415
2328.42006	0.99378
2326.36316	0.99266
2324.30625	0.99166
2322.24934	0.99201
2320.19243	0.99240
2318.13552	0.99212
2316.07861	0.99216
2314.02171	0.99258
2311.96480	0.99266
2309.90789	0.99270
2307.85098	0.99353
2305.79407	0.99456
2303.73717	0.99468
2301.68026	0.99424
2299.62335	0.99399
2297.56644	0.99338
2295.50953	0.99266
2293.45262	0.99330
2291.39572	0.99434
2289.33881	0.99369
2287.28190	0.99232
2285.22499	0.99249
2283.16808	0.99368
2281.11117	0.99386
2279.05427	0.99366
2276.99736	0.99432
2274.94045	0.99470
2272.88354	0.99443
2270.82663	0.99436
2268.76973	0.99442
2266.71282	0.99436
2264.65591	0.99401
2262.59900	0.99321
2260.54209	0.99210
2258.48518	0.99157
2256.42828	0.99207
2254.37137	0.99287
2252.31446	0.99366
2250.25755	0.99385
2248.20064	0.99337
2246.14374	0.99366
2244.08683	0.99503
2242.02992	0.99543
2239.97301	0.99376
2237.91610	0.99210
2235.85919	0.99217
2233.80229	0.99394
2231.74538	0.99630
2229.68847	0.99697
2227.63156	0.99585
2225.57465	0.99534
2223.51775	0.99618
2221.46084	0.99740
2219.40393	0.99764
2217.34702	0.99536
2215.29011	0.99238
2213.23320	0.99214
2211.17630	0.99378
2209.11939	0.99457
2207.06248	0.99363
2205.00557	0.99190
2202.94866	0.99086
2200.89176	0.99110
2198.83485	0.99294
2196.77794	0.99519
2194.72103	0.99563
2192.66412	0.99448
2190.60721	0.99398
2188.55031	0.99546
2186.49340	0.99648
2184.43649	0.99506
2182.37958	0.99260
2180.32267	0.99116
2178.26577	0.99183
2176.20886	0.99253
2174.15195	0.99232
2172.09504	0.99249
2170.03813	0.99186
2167.98122	0.99027
2165.92432	0.99002
2163.86741	0.99076
2161.81050	0.99146
2159.75359	0.99380
2157.69668	0.99768
2155.63978	1.00035
2153.58287	0.99933
2151.52596	0.99529
2149.46905	0.99191
2147.41214	0.99095
2145.35523	0.99185
2143.29833	0.99359
2141.24142	0.99483
2139.18451	0.99487
2137.12760	0.99407
2135.07069	0.99399
2133.01379	0.99537
2130.95688	0.99626
2128.89997	0.99651
2126.84306	0.99679
2124.78615	0.99623
2122.72924	0.99547
2120.67234	0.99498
2118.61543	0.99432
2116.55852	0.99356
2114.50161	0.99329
2112.44470	0.99400
2110.38780	0.99441
2108.33089	0.99346
2106.27398	0.99215
2104.21707	0.99126
2102.16016	0.99089
2100.10325	0.99147
2098.04635	0.99277
2095.98944	0.99362
2093.93253	0.99434
2091.87562	0.99555
2089.81871	0.99582
2087.76181	0.99471
2085.70490	0.99333
2083.64799	0.99205
2081.59108	0.99162
2079.53417	0.99226
2077.47726	0.99273
2075.42036	0.99282
2073.36345	0.99302
2071.30654	0.99327
2069.24963	0.99307
2067.19272	0.99227
2065.13582	0.99189
2063.07891	0.99237
2061.02200	0.99278
2058.96509	0.99292
2056.90818	0.99280
2054.85127	0.99250
2052.79437	0.99198
2050.73746	0.99076
2048.68055	0.98993
2046.62364	0.99061
2044.56673	0.99181
2042.50983	0.99304
2040.45292	0.99444
2038.39601	0.99547
2036.33910	0.99510
2034.28219	0.99302
2032.22528	0.99135
2030.16838	0.99118
2028.11147	0.99198
2026.05456	0.99471
2023.99765	0.99724
2021.94074	0.99628
2019.88384	0.99430
2017.82693	0.99351
2015.77002	0.99346
2013.71311	0.99484
2011.65620	0.99708
2009.59929	0.99856
2007.54239	0.99750
2005.48548	0.99486
2003.42857	0.99428
2001.37166	0.99510
1999.31475	0.99518
1997.25785	0.99484
1995.20094	0.99500
1993.14403	0.99561
1991.08712	0.99476
1989.03021	0.99240
1986.97330	0.99167
1984.91640	0.99268
1982.85949	0.99313
1980.80258	0.99306
1978.74567	0.99347
1976.68876	0.99390
1974.63186	0.99391
1972.57495	0.99323
1970.51804	0.99194
1968.46113	0.99137
1966.40422	0.99090
1964.34731	0.99012
1962.29041	0.99100
1960.23350	0.99302
1958.17659	0.99429
1956.11968	0.99441
1954.06277	0.99416
1952.00587	0.99454
1949.94896	0.99491
1947.89205	0.99461
1945.83514	0.99454
1943.77823	0.99466
1941.72132	0.99404
1939.66442	0.99379
1937.60751	0.99419
1935.55060	0.99350
1933.49369	0.99262
1931.43678	0.99341
1929.37988	0.99469
1927.32297	0.99466
1925.26606	0.99376
1923.20915	0.99343
1921.15224	0.99354
1919.09533	0.99365
1917.03843	0.99403
1914.98152	0.99432
1912.92461	0.99463
1910.86770	0.99490
1908.81079	0.99459
1906.75389	0.99421
1904.69698	0.99400
1902.64007	0.99387
1900.58316	0.99444
1898.52625	0.99512
1896.46934	0.99446
1894.41244	0.99371
1892.35553	0.99438
1890.29862	0.99517
1888.24171	0.99481
1886.18480	0.99394
1884.12790	0.99357
1882.07099	0.99380
1880.01408	0.99415
1877.95717	0.99409
1875.90026	0.99416
1873.84335	0.99453
1871.78645	0.99446
1869.72954	0.99391
1867.67263	0.99343
1865.61572	0.99333
1863.55881	0.99350
1861.50191	0.99398
1859.44500	0.99431
1857.38809	0.99424
1855.33118	0.99415
1853.27427	0.99427
1851.21736	0.99435
1849.16046	0.99416
1847.10355	0.99407
1845.04664	0.99391
1842.98973	0.99308
1840.93282	0.99251
1838.87592	0.99267
1836.81901	0.99289
1834.76210	0.99297
1832.70519	0.99299
1830.64828	0.99264
1828.59137	0.99221
1826.53447	0.99248
1824.47756	0.99260
1822.42065	0.99205
1820.36374	0.99157
1818.30683	0.99146
1816.24993	0.99149
1814.19302	0.99129
1812.13611	0.99105
1810.07920	0.99105
1808.02229	0.99113
1805.96538	0.99063
1803.90848	0.98975
1801.85157	0.98933
1799.79466	0.98931
1797.73775	0.98898
1795.68084	0.98852
1793.62394	0.98829
1791.56703	0.98766
1789.51012	0.98665
1787.45321	0.98579
1785.39630	0.98514
1783.33939	0.98435
1781.28249	0.98301
1779.22558	0.98103
1777.16867	0.97891
1775.11176	0.97674
1773.05485	0.97358
1770.99795	0.96857
1768.94104	0.96194
1766.88413	0.95370
1764.82722	0.94470
1762.77031	0.93404
1760.71340	0.92183
1758.65650	0.91124
1756.59959	0.90068
1754.54268	0.89130
1752.48577	0.88366
1750.42886	0.87499
1748.37196	0.86656
1746.31505	0.86056
1744.25814	0.85600
1742.20123	0.85199
1740.14432	0.84846
1738.08741	0.84675
1736.03051	0.84704
1733.97360	0.84804
1731.91669	0.84995
1729.85978	0.85295
1727.80287	0.85679
1725.74597	0.86148
1723.68906	0.86767
1721.63215	0.87466
1719.57524	0.88197
1717.51833	0.89147
1715.46142	0.90247
1713.40452	0.91194
1711.34761	0.92027
1709.29070	0.92813
1707.23379	0.93589
1705.17688	0.94341
1703.11998	0.94920
1701.06307	0.95408
1699.00616	0.95888
1696.94925	0.96256
1694.89234	0.96631
1692.83543	0.96914
1690.77853	0.97081
1688.72162	0.97234
1686.66471	0.97383
1684.60780	0.97525
1682.55089	0.97651
1680.49399	0.97757
1678.43708	0.97854
1676.38017	0.97969
1674.32326	0.98078
1672.26635	0.98093
1670.20944	0.98060
1668.15254	0.98074
1666.09563	0.98109
1664.03872	0.98108
1661.98181	0.98074
1659.92490	0.98057
1657.86800	0.98060
1655.81109	0.98068
1653.75418	0.98080
1651.69727	0.98083
1649.64036	0.98107
1647.58345	0.98097
1645.52655	0.98052
1643.46964	0.98058
1641.41273	0.98059
1639.35582	0.98056
1637.29891	0.98085
1635.24201	0.98112
1633.18510	0.98097
1631.12819	0.98087
1629.07128	0.98095
1627.01437	0.98126
1624.95746	0.98180
1622.90056	0.98236
1620.84365	0.98277
1618.78674	0.98307
1616.72983	0.98376
1614.67292	0.98463
1612.61602	0.98491
1610.55911	0.98492
1608.50220	0.98512
1606.44529	0.98567
1604.38838	0.98621
1602.33147	0.98641
1600.27457	0.98656
1598.21766	0.98688
1596.16075	0.98710
1594.10384	0.98719
1592.04693	0.98747
1589.99003	0.98793
1587.93312	0.98821
1585.87621	0.98818
1583.81930	0.98808
1581.76239	0.98809
1579.70548	0.98821
1577.64858	0.98823
1575.59167	0.98810
1573.53476	0.98809
1571.47785	0.98803
1569.42094	0.98795
1567.36404	0.98817
1565.30713	0.98858
1563.25022	0.98883
1561.19331	0.98889
1559.13640	0.98878
1557.07949	0.98827
1555.02259	0.98799
1552.96568	0.98821
1550.90877	0.98859
1548.85186	0.98867
1546.79495	0.98855
1544.73805	0.98834
1542.68114	0.98807
1540.62423	0.98816
1538.56732	0.98838
1536.51041	0.98808
1534.45350	0.98768
1532.39660	0.98766
1530.33969	0.98781
1528.28278	0.98779
1526.22587	0.98770
1524.16896	0.98778
1522.11206	0.98780
1520.05515	0.98766
1517.99824	0.98765
1515.94133	0.98773
1513.88442	0.98769
1511.82751	0.98749
1509.77061	0.98732
1507.71370	0.98735
1505.65679	0.98786
1503.59988	0.98827
1501.54297	0.98830
1499.48607	0.98829
1497.42916	0.98829
1495.37225	0.98794
1493.31534	0.98749
1491.25843	0.98715
1489.20152	0.98683
1487.14462	0.98657
1485.08771	0.98621
1483.03080	0.98566
1480.97389	0.98499
1478.91698	0.98404
1476.86008	0.98233
1474.80317	0.97935
1472.74626	0.97421
1470.68935	0.96885
1468.63244	0.96593
1466.57553	0.96422
1464.51863	0.96250
1462.46172	0.96107
1460.40481	0.96032
1458.34790	0.95961
1456.29099	0.95904
1454.23409	0.95946
1452.17718	0.96014
1450.12027	0.96073
1448.06336	0.96106
1446.00645	0.96102
1443.94954	0.96091
1441.89264	0.96073
1439.83573	0.96027
1437.77882	0.95942
1435.72191	0.95840
1433.66500	0.95798
1431.60810	0.95787
1429.55119	0.95748
1427.49428	0.95695
1425.43737	0.95641
1423.38046	0.95575
1421.32355	0.95534
1419.26665	0.95521
1417.20974	0.95525
1415.15283	0.95594
1413.09592	0.95714
1411.03901	0.95841
1408.98211	0.95959
1406.92520	0.96074
1404.86829	0.96173
1402.81138	0.96247
1400.75447	0.96289
1398.69756	0.96273
1396.64066	0.96185
1394.58375	0.95998
1392.52684	0.95735
1390.46993	0.95434
1388.41302	0.94979
1386.35612	0.94317
1384.29921	0.93661
1382.24230	0.93067
1380.18539	0.92475
1378.12848	0.91934
1376.07157	0.91493
1374.01467	0.91138
1371.95776	0.90915
1369.90085	0.90848
1367.84394	0.90924
1365.78703	0.91144
1363.73013	0.91543
1361.67322	0.92151
1359.61631	0.92802
1357.55940	0.93396
1355.50249	0.93923
1353.44558	0.94365
1351.38868	0.94724
1349.33177	0.94993
1347.27486	0.95189
1345.21795	0.95335
1343.16104	0.95425
1341.10414	0.95490
1339.04723	0.95558
1336.99032	0.95601
1334.93341	0.95599
1332.87650	0.95545
1330.81959	0.95457
1328.76269	0.95383
1326.70578	0.95325
1324.64887	0.95245
1322.59196	0.95145
1320.53505	0.95066
1318.47815	0.95027
1316.42124	0.95016
1314.36433	0.95010
1312.30742	0.95035
1310.25051	0.95104
1308.19360	0.95152
1306.13670	0.95157
1304.07979	0.95157
1302.02288	0.95145
1299.96597	0.95123
1297.90906	0.95124
1295.85216	0.95139
1293.79525	0.95136
1291.73834	0.95099
1289.68143	0.95031
1287.62452	0.94914
1285.56761	0.94759
1283.51071	0.94626
1281.45380	0.94517
1279.39689	0.94382
1277.33998	0.94196
1275.28307	0.93941
1273.22617	0.93591
1271.16926	0.93142
1269.11235	0.92677
1267.05544	0.92233
1264.99853	0.91762
1262.94162	0.91265
1260.88472	0.90764
1258.82781	0.90243
1256.77090	0.89698
1254.71399	0.89147
1252.65708	0.88576
1250.60018	0.87942
1248.54327	0.87289
1246.48636	0.86705
1244.42945	0.86167
1242.37254	0.85612
1240.31563	0.85052
1238.25873	0.84490
1236.20182	0.83907
1234.14491	0.83323
1232.08800	0.82768
1230.03109	0.82283
1227.97419	0.81895
1225.91728	0.81629
1223.86037	0.81550
1221.80346	0.81698
1219.74655	0.82072
1217.68964	0.82676
1215.63274	0.83450
1213.57583	0.84290
1211.51892	0.85140
1209.46201	0.85978
1207.40510	0.86796
1205.34820	0.87571
1203.29129	0.88277
1201.23438	0.88911
1199.17747	0.89439
1197.12056	0.89837
1195.06365	0.90145
1193.00675	0.90377
1190.94984	0.90530
1188.89293	0.90618
1186.83602	0.90637
1184.77911	0.90577
1182.72221	0.90436
1180.66530	0.90229
1178.60839	0.89946
1176.55148	0.89556
1174.49457	0.89093
1172.43766	0.88601
1170.38076	0.88101
1168.32385	0.87607
1166.26694	0.87126
1164.21003	0.86691
1162.15312	0.86370
1160.09622	0.86177
1158.03931	0.86072
1155.98240	0.86071
1153.92549	0.86248
1151.86858	0.86636
1149.81167	0.87192
1147.75477	0.87826
1145.69786	0.88443
1143.64095	0.89016
1141.58404	0.89542
1139.52713	0.89931
1137.47023	0.90123
1135.41332	0.90162
1133.35641	0.90107
1131.29950	0.89985
1129.24259	0.89808
1127.18568	0.89573
1125.12878	0.89261
1123.07187	0.88878
1121.01496	0.88500
1118.95805	0.88201
1116.90114	0.87964
1114.84424	0.87747
1112.78733	0.87562
1110.73042	0.87432
1108.67351	0.87343
1106.61660	0.87265
1104.55969	0.87197
1102.50279	0.87135
1100.44588	0.87099
1098.38897	0.87102
1096.33206	0.87102
1094.27515	0.87046
1092.21825	0.86881
1090.16134	0.86579
1088.10443	0.86184
1086.04752	0.85757
1083.99061	0.85296
1081.93370	0.84771
1079.87680	0.84219
1077.81989	0.83721
1075.76298	0.83283
1073.70607	0.82869
1071.64916	0.82474
1069.59226	0.82088
1067.53535	0.81716
1065.47844	0.81378
1063.42153	0.81048
1061.36462	0.80707
1059.30771	0.80378
1057.25081	0.80080
1055.19390	0.79797
1053.13699	0.79497
1051.08008	0.79181
1049.02317	0.78898
1046.96627	0.78661
1044.90936	0.78420
1042.85245	0.78175
1040.79554	0.77967
1038.73863	0.77775
1036.68172	0.77568
1034.62482	0.77377
1032.56791	0.77239
1030.51100	0.77151
1028.45409	0.77116
1026.39718	0.77212
1024.34028	0.77455
1022.28337	0.77737
1020.22646	0.78036
1018.16955	0.78418
1016.11264	0.78874
1014.05573	0.79331
1011.99883	0.79768
1009.94192	0.80223
1007.88501	0.80712
1005.82810	0.81228
1003.77119	0.81758
1001.71429	0.82296
999.65738	0.82854
997.60047	0.83439
995.54356	0.84031
993.48665	0.84595
991.42974	0.85099
989.37284	0.85539
987.31593	0.85949
985.25902	0.86344
983.20211	0.86732
981.14520	0.87114
979.08830	0.87469
977.03139	0.87826
974.97448	0.88225
972.91757	0.88644
970.86066	0.89064
968.80375	0.89514
966.74685	0.89976
964.68994	0.90393
962.63303	0.90770
960.57612	0.91095
958.51921	0.91359
956.46231	0.91591
954.40540	0.91797
952.34849	0.91986
950.29158	0.92162
948.23467	0.92296
946.17776	0.92390
944.12086	0.92505
942.06395	0.92609
940.00704	0.92635
937.95013	0.92617
935.89322	0.92587
933.83632	0.92547
931.77941	0.92479
929.72250	0.92383
927.66559	0.92290
925.60868	0.92212
923.55177	0.92112
921.49487	0.91966
919.43796	0.91824
917.38105	0.91721
915.32414	0.91621
913.26723	0.91501
911.21033	0.91413
909.15342	0.91386
907.09651	0.91393
905.03960	0.91402
902.98269	0.91359
900.92578	0.91306
898.86888	0.91342
896.81197	0.91443
894.75506	0.91575
892.69815	0.91751
890.64124	0.91950
888.58434	0.92154
886.52743	0.92355
884.47052	0.92538
882.41361	0.92732
880.35670	0.92946
878.29979	0.93207
876.24289	0.93549
874.18598	0.93894
872.12907	0.94165
870.07216	0.94383
868.01525	0.94566
865.95835	0.94713
863.90144	0.94834
861.84453	0.94950
859.78762	0.95053
857.73071	0.95145
855.67380	0.95228
853.61690	0.95292
851.55999	0.95338
849.50308	0.95349
847.44617	0.95327
845.38926	0.95280
843.33236	0.95236
841.27545	0.95222
839.21854	0.95239
837.16163	0.95297
835.10472	0.95354
833.04781	0.95404
830.99091	0.95528
828.93400	0.95674
826.87709	0.95742
824.82018	0.95788
822.76327	0.95891
820.70637	0.95968
818.64946	0.95970
816.59255	0.96005
814.53564	0.96064
812.47873	0.96117
810.42182	0.96183
808.36492	0.96200
806.30801	0.96188
804.25110	0.96176
802.19419	0.96130
800.13728	0.96095
798.08038	0.96113
796.02347	0.96142
793.96656	0.96142
791.90965	0.96133
789.85274	0.96145
787.79583	0.96161
785.73893	0.96164
783.68202	0.96159
781.62511	0.96144
779.56820	0.96122
777.51129	0.96101
775.45439	0.96071
773.39748	0.96042
771.34057	0.96061
769.28366	0.96086
767.22675	0.96076
765.16984	0.96080
763.11294	0.96090
761.05603	0.96106
758.99912	0.96108
756.94221	0.96063
754.88530	0.96006
752.82839	0.95938
750.77149	0.95882
748.71458	0.95906
746.65767	0.95948
744.60076	0.95901
742.54385	0.95771
740.48695	0.95649
738.43004	0.95591
736.37313	0.95568
734.31622	0.95488
732.25931	0.95286
730.20240	0.95017
728.14550	0.94790
726.08859	0.94646
724.03168	0.94570
721.97477	0.94536
719.91786	0.94568
717.86096	0.94704
715.80405	0.94851
713.74714	0.94916
711.69023	0.94929
709.63332	0.94960
707.57641	0.95036
705.51951	0.95085
703.46260	0.95063
701.40569	0.95034
699.34878	0.94993
697.29187	0.94925
695.23497	0.94858
693.17806	0.94734
691.12115	0.94513
689.06424	0.94287
687.00733	0.94172
684.95042	0.94114
682.89352	0.94012
680.83661	0.93911
678.77970	0.93860
676.72279	0.93857
674.66588	0.93878
672.60898	0.93830
670.55207	0.93682
668.49516	0.93625
666.43825	0.93801
664.38134	0.93931
662.32443	0.93954
660.26753	0.93900
658.21062	0.93788
656.15371	0.93672
654.09680	0.93619
652.03989	0.93609
649.98299	0.93578
647.92608	0.93488
645.86917	0.93292
643.81226	0.93007
641.75535	0.92770
639.69844	0.92642
637.64154	0.92561
635.58463	0.92493
633.52772	0.92422
631.47081	0.92354
629.41390	0.92288
627.35700	0.92182
625.30009	0.92094
623.24318	0.92005
621.18627	0.91843
619.12936	0.91666
617.07245	0.91518
615.01555	0.91328
612.95864	0.91043
610.90173	0.90759
608.84482	0.90531
606.78791	0.90261
604.73101	0.89938
602.67410	0.89686
600.61719	0.89590
598.56028	0.89735
596.50337	0.90035
594.44646	0.90241
592.38956	0.90388
590.33265	0.90597
588.27574	0.90822
586.21883	0.90995
584.16192	0.91020
582.10502	0.90914
580.04811	0.90880
577.99120	0.90951
575.93429	0.90907
573.87738	0.90709
571.82047	0.90544
569.76357	0.90478
567.70666	0.90519
565.64975	0.90603
563.59284	0.90593
561.53593	0.90507
559.47903	0.90473
557.42212	0.90467
555.36521	0.90423
553.30830	0.90467
551.25139	0.90616
549.19448	0.90698
547.13758	0.90688
545.08067	0.90683
543.02376	0.90724
540.96685	0.90685
538.90994	0.90520
536.85304	0.90398
534.79613	0.90285
532.73922	0.90214
530.68231	0.90371
528.62540	0.90490
526.56849	0.90361
524.51159	0.90238
522.45468	0.90169
520.39777	0.90102
518.34086	0.90163
516.28395	0.90193
514.22705	0.90014
512.17014	0.89879
510.11323	0.90019
508.05632	0.90271
505.99941	0.90315
503.94250	0.90183
501.88560	0.89990
499.82869	0.89781
497.77178	0.89744
495.71487	0.89754
493.65796	0.89610
491.60106	0.89446
489.54415	0.89341
487.48724	0.89226
485.43033	0.89115
483.37342	0.89114
481.31651	0.89181
479.25961	0.89199
477.20270	0.89139
475.14579	0.88993
473.08888	0.88852
471.03197	0.88865
468.97507	0.88891
466.91816	0.88700
464.86125	0.88411
462.80434	0.88323
460.74743	0.88568
458.69052	0.88864
456.63362	0.88794
454.57671	0.88599
452.51980	0.88605
450.46289	0.88676
448.40598	0.88686
446.34908	0.88662
444.29217	0.88473
442.23526	0.88151
440.17835	0.88055
438.12144	0.88344
436.06453	0.88758
434.00763	0.88963
431.95072	0.89053
429.89381	0.88985
427.83690	0.88789
425.77999	0.88775
423.72309	0.88749
421.66618	0.88605
419.60927	0.88948
417.55236	0.89654
415.49545	0.89736
413.43854	0.89543
411.38164	0.89449
409.32473	0.89392
407.26782	0.89147
405.21091	0.88614
403.15400	0.88023
401.09710	0.87741
399.04019	0.87454
