3996.57260	0.96856
3994.51569	0.96860
3992.45878	0.96897
3990.40188	0.96881
3988.34497	0.96836
3986.28806	0.96833
3984.23115	0.96881
3982.17424	0.96926
3980.11733	0.96954
3978.06043	0.96990
3976.00352	0.97038
3973.94661	0.97034
3971.88970	0.96965
3969.83279	0.96936
3967.77589	0.96959
3965.71898	0.96941
3963.66207	0.96874
3961.60516	0.96848
3959.54825	0.96905
3957.49134	0.96978
3955.43444	0.96997
3953.37753	0.96978
3951.32062	0.96984
3949.26371	0.96958
3947.20680	0.96832
3945.14990	0.96790
3943.09299	0.96934
3941.03608	0.97065
3938.97917	0.97020
3936.92226	0.96901
3934.86535	0.96842
3932.80845	0.96836
3930.75154	0.96803
3928.69463	0.96769
3926.63772	0.96808
3924.58081	0.96909
3922.52391	0.96988
3920.46700	0.97005
3918.41009	0.96999
3916.35318	0.96982
3914.29627	0.96961
3912.23936	0.96945
3910.18246	0.96959
3908.12555	0.97007
3906.06864	0.97047
3904.01173	0.97074
3901.95482	0.97096
3899.89792	0.97066
3897.84101	0.97012
3895.78410	0.96985
3893.72719	0.96947
3891.67028	0.96877
3889.61337	0.96826
3887.55647	0.96798
3885.49956	0.96812
3883.44265	0.96924
3881.38574	0.97022
3879.32883	0.97001
3877.27193	0.96929
3875.21502	0.96867
3873.15811	0.96840
3871.10120	0.96881
3869.04429	0.96905
3866.98738	0.96823
3864.93048	0.96788
3862.87357	0.96878
3860.81666	0.96936
3858.75975	0.96963
3856.70284	0.97017
3854.64594	0.97025
3852.58903	0.96926
3850.53212	0.96893
3848.47521	0.96936
3846.41830	0.96948
3844.36139	0.96900
3842.30449	0.96888
3840.24758	0.96952
3838.19067	0.97013
3836.13376	0.97047
3834.07685	0.97073
3832.01995	0.97075
3829.96304	0.97059
3827.90613	0.97071
3825.84922	0.97116
3823.79231	0.97114
3821.73540	0.96979
3819.67850	0.96803
3817.62159	0.96722
3815.56468	0.96744
3813.50777	0.96899
3811.45086	0.97005
3809.39396	0.96971
3807.33705	0.96934
3805.28014	0.96965
3803.22323	0.96954
3801.16632	0.96908
3799.10941	0.96890
3797.05251	0.96880
3794.99560	0.96867
3792.93869	0.96893
3790.88178	0.97004
3788.82487	0.97126
3786.76796	0.97149
3784.71106	0.97101
3782.65415	0.97076
3780.59724	0.97080
3778.54033	0.97061
3776.48342	0.97084
3774.42652	0.97151
3772.36961	0.97138
3770.31270	0.97062
3768.25579	0.97012
3766.19888	0.96991
3764.14197	0.97011
3762.08507	0.97058
3760.02816	0.97096
3757.97125	0.97045
3755.91434	0.96946
3753.85743	0.96908
3751.80053	0.96878
3749.74362	0.96849
3747.68671	0.96901
3745.62980	0.96924
3743.57289	0.96850
3741.51598	0.96784
3739.45908	0.96752
3737.40217	0.96726
3735.34526	0.96686
3733.28835	0.96728
3731.23144	0.96860
3729.17454	0.96954
3727.11763	0.97058
3725.06072	0.97157
3723.00381	0.97128
3720.94690	0.97051
3718.88999	0.97009
3716.83309	0.96914
3714.77618	0.96808
3712.71927	0.96902
3710.66236	0.97086
3708.60545	0.97065
3706.54855	0.97006
3704.49164	0.97030
3702.43473	0.97129
3700.37782	0.97145
3698.32091	0.97054
3696.26400	0.97003
3694.20710	0.96981
3692.15019	0.97004
3690.09328	0.97118
3688.03637	0.97195
3685.97946	0.97163
3683.92256	0.97140
3681.86565	0.97113
3679.80874	0.96998
3677.75183	0.96909
3675.69492	0.97024
3673.63801	0.97107
3671.58111	0.96970
3669.52420	0.96828
3667.46729	0.96855
3665.41038	0.96949
3663.35347	0.97008
3661.29657	0.97045
3659.23966	0.97069
3657.18275	0.97030
3655.12584	0.96945
3653.06893	0.96879
3651.01202	0.96813
3648.95512	0.96758
3646.89821	0.96821
3644.84130	0.96842
3642.78439	0.96786
3640.72748	0.96798
3638.67058	0.96905
3636.61367	0.97032
3634.55676	0.97104
3632.49985	0.97064
3630.44294	0.96944
3628.38603	0.96810
3626.32913	0.96787
3624.27222	0.96900
3622.21531	0.96997
3620.15840	0.96983
3618.10149	0.96946
3616.04459	0.96894
3613.98768	0.96759
3611.93077	0.96680
3609.87386	0.96750
3607.81695	0.96759
3605.76004	0.96630
3603.70314	0.96547
3601.64623	0.96574
3599.58932	0.96629
3597.53241	0.96654
3595.47550	0.96700
3593.41860	0.96706
3591.36169	0.96586
3589.30478	0.96465
3587.24787	0.96506
3585.19096	0.96570
3583.13405	0.96482
3581.07715	0.96383
3579.02024	0.96366
3576.96333	0.96330
3574.90642	0.96251
3572.84951	0.96228
3570.79261	0.96244
3568.73570	0.96221
3566.67879	0.96189
3564.62188	0.96164
3562.56497	0.96106
3560.50806	0.96054
3558.45116	0.96014
3556.39425	0.95963
3554.33734	0.95900
3552.28043	0.95804
3550.22352	0.95730
3548.16662	0.95714
3546.10971	0.95722
3544.05280	0.95696
3541.99589	0.95594
3539.93898	0.95469
3537.88207	0.95374
3535.82517	0.95270
3533.76826	0.95165
3531.71135	0.95147
3529.65444	0.95142
3527.59753	0.95047
3525.54063	0.94983
3523.48372	0.95030
3521.42681	0.95043
3519.36990	0.94967
3517.31299	0.94897
3515.25608	0.94893
3513.19918	0.94959
3511.14227	0.94997
3509.08536	0.94940
3507.02845	0.94877
3504.97154	0.94783
3502.91464	0.94616
3500.85773	0.94523
3498.80082	0.94554
3496.74391	0.94585
3494.68700	0.94515
3492.63009	0.94407
3490.57319	0.94412
3488.51628	0.94472
3486.45937	0.94488
3484.40246	0.94517
3482.34555	0.94541
3480.28865	0.94536
3478.23174	0.94530
3476.17483	0.94462
3474.11792	0.94345
3472.06101	0.94314
3470.00410	0.94369
3467.94720	0.94406
3465.89029	0.94404
3463.83338	0.94376
3461.77647	0.94356
3459.71956	0.94359
3457.66266	0.94330
3455.60575	0.94299
3453.54884	0.94304
3451.49193	0.94290
3449.43502	0.94252
3447.37811	0.94224
3445.32121	0.94235
3443.26430	0.94301
3441.20739	0.94407
3439.15048	0.94479
3437.09357	0.94457
3435.03667	0.94427
3432.97976	0.94439
3430.92285	0.94455
3428.86594	0.94517
3426.80903	0.94589
3424.75212	0.94586
3422.69522	0.94549
3420.63831	0.94541
3418.58140	0.94555
3416.52449	0.94569
3414.46758	0.94601
3412.41068	0.94676
3410.35377	0.94765
3408.29686	0.94804
3406.23995	0.94791
3404.18304	0.94811
3402.12613	0.94842
3400.06923	0.94824
3398.01232	0.94810
3395.95541	0.94838
3393.89850	0.94876
3391.84159	0.94893
3389.78469	0.94901
3387.72778	0.94902
3385.67087	0.94905
3383.61396	0.94944
3381.55705	0.95009
3379.50014	0.95048
3377.44324	0.95066
3375.38633	0.95108
3373.32942	0.95123
3371.27251	0.95082
3369.21560	0.95074
3367.15870	0.95122
3365.10179	0.95173
3363.04488	0.95195
3360.98797	0.95212
3358.93106	0.95226
3356.87415	0.95203
3354.81725	0.95177
3352.76034	0.95205
3350.70343	0.95275
3348.64652	0.95358
3346.58961	0.95407
3344.53271	0.95370
3342.47580	0.95275
3340.41889	0.95223
3338.36198	0.95239
3336.30507	0.95295
3334.24816	0.95406
3332.19126	0.95533
3330.13435	0.95599
3328.07744	0.95584
3326.02053	0.95508
3323.96362	0.95458
3321.90672	0.95490
3319.84981	0.95543
3317.79290	0.95570
3315.73599	0.95556
3313.67908	0.95521
3311.62217	0.95507
3309.56527	0.95498
3307.50836	0.95498
3305.45145	0.95519
3303.39454	0.95561
3301.33763	0.95633
3299.28073	0.95707
3297.22382	0.95758
3295.16691	0.95794
3293.11000	0.95779
3291.05309	0.95701
3288.99618	0.95669
3286.93928	0.95727
3284.88237	0.95798
3282.82546	0.95853
3280.76855	0.95884
3278.71164	0.95868
3276.65474	0.95841
3274.59783	0.95853
3272.54092	0.95878
3270.48401	0.95885
3268.42710	0.95914
3266.37019	0.95980
3264.31329	0.96014
3262.25638	0.95976
3260.19947	0.95933
3258.14256	0.95941
3256.08565	0.95966
3254.02875	0.95968
3251.97184	0.95951
3249.91493	0.95934
3247.85802	0.95967
3245.80111	0.96059
3243.74420	0.96089
3241.68730	0.96025
3239.63039	0.95982
3237.57348	0.95982
3235.51657	0.95979
3233.45966	0.95996
3231.40276	0.96041
3229.34585	0.96050
3227.28894	0.96050
3225.23203	0.96109
3223.17512	0.96168
3221.11821	0.96193
3219.06131	0.96205
3217.00440	0.96204
3214.94749	0.96214
3212.89058	0.96213
3210.83367	0.96188
3208.77677	0.96183
3206.71986	0.96189
3204.66295	0.96175
3202.60604	0.96136
3200.54913	0.96101
3198.49222	0.96133
3196.43532	0.96221
3194.37841	0.96282
3192.32150	0.96284
3190.26459	0.96245
3188.20768	0.96210
3186.15078	0.96207
3184.09387	0.96237
3182.03696	0.96295
3179.98005	0.96310
3177.92314	0.96270
3175.86623	0.96259
3173.80933	0.96307
3171.75242	0.96355
3169.69551	0.96353
3167.63860	0.96322
3165.58169	0.96312
3163.52479	0.96319
3161.46788	0.96334
3159.41097	0.96360
3157.35406	0.96339
3155.29715	0.96262
3153.24024	0.96236
3151.18334	0.96299
3149.12643	0.96345
3147.06952	0.96359
3145.01261	0.96394
3142.95570	0.96400
3140.89880	0.96368
3138.84189	0.96354
3136.78498	0.96345
3134.72807	0.96341
3132.67116	0.96376
3130.61425	0.96408
3128.55735	0.96410
3126.50044	0.96443
3124.44353	0.96483
3122.38662	0.96471
3120.32971	0.96480
3118.27281	0.96482
3116.21590	0.96420
3114.15899	0.96409
3112.10208	0.96478
3110.04517	0.96533
3107.98826	0.96539
3105.93136	0.96510
3103.87445	0.96501
3101.81754	0.96537
3099.76063	0.96541
3097.70372	0.96485
3095.64682	0.96426
3093.58991	0.96411
3091.53300	0.96428
3089.47609	0.96433
3087.41918	0.96448
3085.36227	0.96489
3083.30537	0.96522
3081.24846	0.96532
3079.19155	0.96538
3077.13464	0.96558
3075.07773	0.96573
3073.02083	0.96567
3070.96392	0.96551
3068.90701	0.96526
3066.85010	0.96521
3064.79319	0.96529
3062.73628	0.96481
3060.67938	0.96426
3058.62247	0.96440
3056.56556	0.96460
3054.50865	0.96448
3052.45174	0.96464
3050.39484	0.96517
3048.33793	0.96570
3046.28102	0.96600
3044.22411	0.96585
3042.16720	0.96552
3040.11029	0.96520
3038.05339	0.96491
3035.99648	0.96488
3033.93957	0.96485
3031.88266	0.96443
3029.82575	0.96422
3027.76885	0.96450
3025.71194	0.96434
3023.65503	0.96364
3021.59812	0.96310
3019.54121	0.96294
3017.48430	0.96305
3015.42740	0.96306
3013.37049	0.96315
3011.31358	0.96369
3009.25667	0.96424
3007.19976	0.96389
3005.14286	0.96280
3003.08595	0.96194
3001.02904	0.96147
2998.97213	0.96090
2996.91522	0.95984
2994.85831	0.95870
2992.80141	0.95791
2990.74450	0.95719
2988.68759	0.95635
2986.63068	0.95541
2984.57377	0.95496
2982.51687	0.95511
2980.45996	0.95514
2978.40305	0.95513
2976.34614	0.95522
2974.28923	0.95523
2972.23232	0.95529
2970.17542	0.95516
2968.11851	0.95465
2966.06160	0.95421
2964.00469	0.95427
2961.94778	0.95468
2959.89088	0.95484
2957.83397	0.95459
2955.77706	0.95415
2953.72015	0.95339
2951.66324	0.95224
2949.60633	0.95114
2947.54943	0.95045
2945.49252	0.94999
2943.43561	0.94955
2941.37870	0.94937
2939.32179	0.95005
2937.26489	0.95101
2935.20798	0.95131
2933.15107	0.95156
2931.09416	0.95211
2929.03725	0.95228
2926.98034	0.95195
2924.92344	0.95157
2922.86653	0.95172
2920.80962	0.95241
2918.75271	0.95279
2916.69580	0.95255
2914.63890	0.95234
2912.58199	0.95267
2910.52508	0.95333
2908.46817	0.95356
2906.41126	0.95301
2904.35435	0.95226
2902.29745	0.95215
2900.24054	0.95264
2898.18363	0.95266
2896.12672	0.95207
2894.06981	0.95162
2892.01291	0.95138
2889.95600	0.95111
2887.89909	0.95050
2885.84218	0.94994
2883.78527	0.95026
2881.72836	0.95083
2879.67146	0.95088
2877.61455	0.95109
2875.55764	0.95167
2873.50073	0.95213
2871.44382	0.95246
2869.38692	0.95287
2867.33001	0.95371
2865.27310	0.95465
2863.21619	0.95507
2861.15928	0.95513
2859.10237	0.95522
2857.04547	0.95574
2854.98856	0.95681
2852.93165	0.95740
2850.87474	0.95701
2848.81783	0.95689
2846.76093	0.95775
2844.70402	0.95881
2842.64711	0.95942
2840.59020	0.95957
2838.53329	0.95934
2836.47638	0.95916
2834.41948	0.95943
2832.36257	0.95991
2830.30566	0.96050
2828.24875	0.96090
2826.19184	0.96062
2824.13494	0.96029
2822.07803	0.96060
2820.02112	0.96110
2817.96421	0.96124
2815.90730	0.96112
2813.85039	0.96114
2811.79349	0.96132
2809.73658	0.96130
2807.67967	0.96107
2805.62276	0.96128
2803.56585	0.96203
2801.50895	0.96252
2799.45204	0.96258
2797.39513	0.96233
2795.33822	0.96198
2793.28131	0.96223
2791.22440	0.96276
2789.16750	0.96268
2787.11059	0.96229
2785.05368	0.96216
2782.99677	0.96241
2780.93986	0.96283
2778.88296	0.96283
2776.82605	0.96255
2774.76914	0.96252
2772.71223	0.96269
2770.65532	0.96283
2768.59841	0.96270
2766.54151	0.96255
2764.48460	0.96272
2762.42769	0.96290
2760.37078	0.96294
2758.31387	0.96311
2756.25697	0.96322
2754.20006	0.96313
2752.14315	0.96312
2750.08624	0.96324
2748.02933	0.96318
2745.97242	0.96283
2743.91552	0.96253
2741.85861	0.96274
2739.80170	0.96300
2737.74479	0.96293
2735.68788	0.96298
2733.63098	0.96337
2731.57407	0.96372
2729.51716	0.96357
2727.46025	0.96318
2725.40334	0.96291
2723.34643	0.96276
2721.28953	0.96270
2719.23262	0.96289
2717.17571	0.96331
2715.11880	0.96357
2713.06189	0.96357
2711.00499	0.96357
2708.94808	0.96356
2706.89117	0.96348
2704.83426	0.96337
2702.77735	0.96352
2700.72044	0.96391
2698.66354	0.96398
2696.60663	0.96383
2694.54972	0.96388
2692.49281	0.96379
2690.43590	0.96341
2688.37900	0.96327
2686.32209	0.96370
2684.26518	0.96430
2682.20827	0.96447
2680.15136	0.96429
2678.09445	0.96435
2676.03755	0.96479
2673.98064	0.96495
2671.92373	0.96459
2669.86682	0.96423
2667.80991	0.96415
2665.75301	0.96415
2663.69610	0.96389
2661.63919	0.96342
2659.58228	0.96316
2657.52537	0.96330
2655.46846	0.96353
2653.41156	0.96336
2651.35465	0.96321
2649.29774	0.96368
2647.24083	0.96413
2645.18392	0.96409
2643.12702	0.96401
2641.07011	0.96429
2639.01320	0.96472
2636.95629	0.96479
2634.89938	0.96429
2632.84247	0.96388
2630.78557	0.96408
2628.72866	0.96437
2626.67175	0.96433
2624.61484	0.96433
2622.55793	0.96448
2620.50103	0.96450
2618.44412	0.96446
2616.38721	0.96465
2614.33030	0.96496
2612.27339	0.96499
2610.21648	0.96463
2608.15958	0.96427
2606.10267	0.96430
2604.04576	0.96478
2601.98885	0.96515
2599.93194	0.96508
2597.87504	0.96496
2595.81813	0.96482
2593.76122	0.96474
2591.70431	0.96532
2589.64740	0.96611
2587.59049	0.96610
2585.53359	0.96586
2583.47668	0.96593
2581.41977	0.96580
2579.36286	0.96575
2577.30595	0.96610
2575.24905	0.96615
2573.19214	0.96587
2571.13523	0.96617
2569.07832	0.96680
2567.02141	0.96665
2564.96450	0.96587
2562.90760	0.96526
2560.85069	0.96504
2558.79378	0.96492
2556.73687	0.96503
2554.67996	0.96558
2552.62306	0.96624
2550.56615	0.96695
2548.50924	0.96763
2546.45233	0.96758
2544.39542	0.96682
2542.33851	0.96623
2540.28161	0.96637
2538.22470	0.96692
2536.16779	0.96694
2534.11088	0.96629
2532.05397	0.96597
2529.99707	0.96638
2527.94016	0.96711
2525.88325	0.96797
2523.82634	0.96838
2521.76943	0.96766
2519.71252	0.96662
2517.65562	0.96646
2515.59871	0.96703
2513.54180	0.96759
2511.48489	0.96797
2509.42798	0.96834
2507.37108	0.96835
2505.31417	0.96797
2503.25726	0.96783
2501.20035	0.96760
2499.14344	0.96688
2497.08653	0.96616
2495.02963	0.96576
2492.97272	0.96594
2490.91581	0.96674
2488.85890	0.96728
2486.80199	0.96689
2484.74509	0.96655
2482.68818	0.96702
2480.63127	0.96801
2478.57436	0.96911
2476.51745	0.96920
2474.46054	0.96808
2472.40364	0.96735
2470.34673	0.96754
2468.28982	0.96813
2466.23291	0.96853
2464.17600	0.96828
2462.11910	0.96768
2460.06219	0.96709
2458.00528	0.96657
2455.94837	0.96658
2453.89146	0.96721
2451.83455	0.96789
2449.77765	0.96816
2447.72074	0.96811
2445.66383	0.96816
2443.60692	0.96807
2441.55001	0.96758
2439.49311	0.96723
2437.43620	0.96702
2435.37929	0.96682
2433.32238	0.96652
2431.26547	0.96593
2429.20856	0.96575
2427.15166	0.96610
2425.09475	0.96639
2423.03784	0.96668
2420.98093	0.96690
2418.92402	0.96691
2416.86712	0.96688
2414.81021	0.96694
2412.75330	0.96721
2410.69639	0.96774
2408.63948	0.96836
2406.58257	0.96860
2404.52567	0.96809
2402.46876	0.96727
2400.41185	0.96685
2398.35494	0.96677
2396.29803	0.96693
2394.24113	0.96730
2392.18422	0.96793
2390.12731	0.96860
2388.07040	0.96895
2386.01349	0.96900
2383.95658	0.96860
2381.89968	0.96803
2379.84277	0.96776
2377.78586	0.96788
2375.72895	0.96811
2373.67204	0.96819
2371.61514	0.96830
2369.55823	0.96802
2367.50132	0.96731
2365.44441	0.96685
2363.38750	0.96696
2361.33059	0.96720
2359.27369	0.96652
2357.21678	0.96552
2355.15987	0.96564
2353.10296	0.96661
2351.04605	0.96733
2348.98915	0.96734
2346.93224	0.96707
2344.87533	0.96733
2342.81842	0.96752
2340.76151	0.96659
2338.70460	0.96590
2336.64770	0.96622
2334.59079	0.96665
2332.53388	0.96703
2330.47697	0.96725
2328.42006	0.96655
2326.36316	0.96524
2324.30625	0.96498
2322.24934	0.96621
2320.19243	0.96720
2318.13552	0.96677
2316.07861	0.96596
2314.02171	0.96597
2311.96480	0.96680
2309.90789	0.96797
2307.85098	0.96869
2305.79407	0.96850
2303.73717	0.96828
2301.68026	0.96909
2299.62335	0.96979
2297.56644	0.96891
2295.50953	0.96747
2293.45262	0.96700
2291.39572	0.96752
2289.33881	0.96795
2287.28190	0.96794
2285.22499	0.96806
2283.16808	0.96820
2281.11117	0.96786
2279.05427	0.96731
2276.99736	0.96718
2274.94045	0.96742
2272.88354	0.96798
2270.82663	0.96871
2268.76973	0.96883
2266.71282	0.96870
2264.65591	0.96930
2262.59900	0.96988
2260.54209	0.96957
2258.48518	0.96903
2256.42828	0.96864
2254.37137	0.96821
2252.31446	0.96740
2250.25755	0.96665
2248.20064	0.96713
2246.14374	0.96835
2244.08683	0.96963
2242.02992	0.97068
2239.97301	0.97064
2237.91610	0.97015
2235.85919	0.97017
2233.80229	0.96997
2231.74538	0.96882
2229.68847	0.96728
2227.63156	0.96687
2225.57465	0.96826
2223.51775	0.97006
2221.46084	0.97057
2219.40393	0.96953
2217.34702	0.96840
2215.29011	0.96790
2213.23320	0.96774
2211.17630	0.96951
2209.11939	0.97257
2207.06248	0.97402
2205.00557	0.97413
2202.94866	0.97336
2200.89176	0.97188
2198.83485	0.97060
2196.77794	0.96885
2194.72103	0.96747
2192.66412	0.96848
2190.60721	0.96997
2188.55031	0.96884
2186.49340	0.96661
2184.43649	0.96662
2182.37958	0.96825
2180.32267	0.96846
2178.26577	0.96750
2176.20886	0.96834
2174.15195	0.96970
2172.09504	0.96867
2170.03813	0.96737
2167.98122	0.96813
2165.92432	0.97053
2163.86741	0.97268
2161.81050	0.97380
2159.75359	0.97491
2157.69668	0.97478
2155.63978	0.97437
2153.58287	0.97446
2151.52596	0.97319
2149.46905	0.97178
2147.41214	0.97218
2145.35523	0.97321
2143.29833	0.97230
2141.24142	0.96996
2139.18451	0.96932
2137.12760	0.97097
2135.07069	0.97252
2133.01379	0.97349
2130.95688	0.97405
2128.89997	0.97302
2126.84306	0.97123
2124.78615	0.97037
2122.72924	0.97040
2120.67234	0.97098
2118.61543	0.97154
2116.55852	0.97092
2114.50161	0.96999
2112.44470	0.96953
2110.38780	0.96868
2108.33089	0.96821
2106.27398	0.96873
2104.21707	0.96878
2102.16016	0.96805
2100.10325	0.96834
2098.04635	0.96978
2095.98944	0.97073
2093.93253	0.97055
2091.87562	0.97025
2089.81871	0.97049
2087.76181	0.97059
2085.70490	0.97045
2083.64799	0.97021
2081.59108	0.96975
2079.53417	0.96949
2077.47726	0.96985
2075.42036	0.97036
2073.36345	0.97032
2071.30654	0.96918
2069.24963	0.96717
2067.19272	0.96625
2065.13582	0.96693
2063.07891	0.96841
2061.02200	0.97059
2058.96509	0.97203
2056.90818	0.97194
2054.85127	0.97149
2052.79437	0.97064
2050.73746	0.96945
2048.68055	0.96942
2046.62364	0.97005
2044.56673	0.97017
2042.50983	0.97046
2040.45292	0.97135
2038.39601	0.97253
2036.33910	0.97302
2034.28219	0.97320
2032.22528	0.97474
2030.16838	0.97552
2028.11147	0.97313
2026.05456	0.97173
2023.99765	0.97487
2021.94074	0.97825
2019.88384	0.97728
2017.82693	0.97425
2015.77002	0.97237
2013.71311	0.97101
2011.65620	0.97096
2009.59929	0.97289
2007.54239	0.97479
2005.48548	0.97619
2003.42857	0.97634
2001.37166	0.97533
1999.31475	0.97470
1997.25785	0.97383
1995.20094	0.97304
1993.14403	0.97311
1991.08712	0.97296
1989.03021	0.97260
1986.97330	0.97268
1984.91640	0.97281
1982.85949	0.97158
1980.80258	0.96962
1978.74567	0.97044
1976.68876	0.97260
1974.63186	0.97270
1972.57495	0.97271
1970.51804	0.97382
1968.46113	0.97486
1966.40422	0.97487
1964.34731	0.97402
1962.29041	0.97408
1960.23350	0.97536
1958.17659	0.97509
1956.11968	0.97228
1954.06277	0.96966
1952.00587	0.96939
1949.94896	0.97051
1947.89205	0.97182
1945.83514	0.97309
1943.77823	0.97396
1941.72132	0.97433
1939.66442	0.97477
1937.60751	0.97582
1935.55060	0.97641
1933.49369	0.97591
1931.43678	0.97491
1929.37988	0.97393
1927.32297	0.97399
1925.26606	0.97522
1923.20915	0.97607
1921.15224	0.97587
1919.09533	0.97493
1917.03843	0.97384
1914.98152	0.97328
1912.92461	0.97355
1910.86770	0.97401
1908.81079	0.97362
1906.75389	0.97361
1904.69698	0.97435
1902.64007	0.97466
1900.58316	0.97477
1898.52625	0.97467
1896.46934	0.97428
1894.41244	0.97438
1892.35553	0.97560
1890.29862	0.97686
1888.24171	0.97640
1886.18480	0.97525
1884.12790	0.97495
1882.07099	0.97503
1880.01408	0.97521
1877.95717	0.97555
1875.90026	0.97553
1873.84335	0.97519
1871.78645	0.97532
1869.72954	0.97562
1867.67263	0.97538
1865.61572	0.97519
1863.55881	0.97538
1861.50191	0.97602
1859.44500	0.97692
1857.38809	0.97726
1855.33118	0.97688
1853.27427	0.97634
1851.21736	0.97599
1849.16046	0.97623
1847.10355	0.97683
1845.04664	0.97679
1842.98973	0.97644
1840.93282	0.97669
1838.87592	0.97685
1836.81901	0.97649
1834.76210	0.97638
1832.70519	0.97661
1830.64828	0.97682
1828.59137	0.97698
1826.53447	0.97741
1824.47756	0.97779
1822.42065	0.97740
1820.36374	0.97672
1818.30683	0.97634
1816.24993	0.97657
1814.19302	0.97691
1812.13611	0.97680
1810.07920	0.97674
1808.02229	0.97709
1805.96538	0.97693
1803.90848	0.97640
1801.85157	0.97640
1799.79466	0.97658
1797.73775	0.97627
1795.68084	0.97575
1793.62394	0.97530
1791.56703	0.97524
1789.51012	0.97557
1787.45321	0.97562
1785.39630	0.97552
1783.33939	0.97515
1781.28249	0.97440
1779.22558	0.97332
1777.16867	0.97201
1775.11176	0.97010
1773.05485	0.96647
1770.99795	0.96091
1768.94104	0.95429
1766.88413	0.94601
1764.82722	0.93667
1762.77031	0.92565
1760.71340	0.91231
1758.65650	0.89991
1756.59959	0.88818
1754.54268	0.87754
1752.48577	0.86787
1750.42886	0.85692
1748.37196	0.84574
1746.31505	0.83664
1744.25814	0.82942
1742.20123	0.82351
1740.14432	0.81829
1738.08741	0.81392
1736.03051	0.81100
1733.97360	0.80946
1731.91669	0.80981
1729.85978	0.81140
1727.80287	0.81398
1725.74597	0.81752
1723.68906	0.82212
1721.63215	0.82705
1719.57524	0.83272
1717.51833	0.84174
1715.46142	0.85269
1713.40452	0.86187
1711.34761	0.87034
1709.29070	0.87858
1707.23379	0.88696
1705.17688	0.89571
1703.11998	0.90251
1701.06307	0.90858
1699.00616	0.91548
1696.94925	0.92077
1694.89234	0.92555
1692.83543	0.92915
1690.77853	0.93179
1688.72162	0.93432
1686.66471	0.93662
1684.60780	0.93935
1682.55089	0.94144
1680.49399	0.94247
1678.43708	0.94374
1676.38017	0.94514
1674.32326	0.94634
1672.26635	0.94752
1670.20944	0.94881
1668.15254	0.94954
1666.09563	0.94980
1664.03872	0.95045
1661.98181	0.95138
1659.92490	0.95192
1657.86800	0.95214
1655.81109	0.95237
1653.75418	0.95270
1651.69727	0.95253
1649.64036	0.95215
1647.58345	0.95233
1645.52655	0.95346
1643.46964	0.95427
1641.41273	0.95416
1639.35582	0.95390
1637.29891	0.95410
1635.24201	0.95459
1633.18510	0.95495
1631.12819	0.95520
1629.07128	0.95549
1627.01437	0.95586
1624.95746	0.95624
1622.90056	0.95677
1620.84365	0.95731
1618.78674	0.95762
1616.72983	0.95808
1614.67292	0.95882
1612.61602	0.95944
1610.55911	0.95990
1608.50220	0.96041
1606.44529	0.96102
1604.38838	0.96153
1602.33147	0.96186
1600.27457	0.96221
1598.21766	0.96272
1596.16075	0.96322
1594.10384	0.96359
1592.04693	0.96397
1589.99003	0.96419
1587.93312	0.96436
1585.87621	0.96462
1583.81930	0.96471
1581.76239	0.96470
1579.70548	0.96487
1577.64858	0.96528
1575.59167	0.96574
1573.53476	0.96592
1571.47785	0.96588
1569.42094	0.96586
1567.36404	0.96601
1565.30713	0.96619
1563.25022	0.96639
1561.19331	0.96673
1559.13640	0.96717
1557.07949	0.96722
1555.02259	0.96719
1552.96568	0.96733
1550.90877	0.96734
1548.85186	0.96717
1546.79495	0.96725
1544.73805	0.96759
1542.68114	0.96792
1540.62423	0.96824
1538.56732	0.96823
1536.51041	0.96807
1534.45350	0.96801
1532.39660	0.96812
1530.33969	0.96848
1528.28278	0.96889
1526.22587	0.96913
1524.16896	0.96924
1522.11206	0.96939
1520.05515	0.96911
1517.99824	0.96871
1515.94133	0.96899
1513.88442	0.96959
1511.82751	0.96991
1509.77061	0.96981
1507.71370	0.96972
1505.65679	0.97019
1503.59988	0.97025
1501.54297	0.97000
1499.48607	0.96990
1497.42916	0.96997
1495.37225	0.96987
1493.31534	0.96978
1491.25843	0.96993
1489.20152	0.97023
1487.14462	0.97031
1485.08771	0.97006
1483.03080	0.96966
1480.97389	0.96908
1478.91698	0.96815
1476.86008	0.96703
1474.80317	0.96554
1472.74626	0.96238
1470.68935	0.95792
1468.63244	0.95404
1466.57553	0.95022
1464.51863	0.94652
1462.46172	0.94491
1460.40481	0.94511
1458.34790	0.94578
1456.29099	0.94663
1454.23409	0.94731
1452.17718	0.94779
1450.12027	0.94822
1448.06336	0.94857
1446.00645	0.94872
1443.94954	0.94856
1441.89264	0.94801
1439.83573	0.94703
1437.77882	0.94581
1435.72191	0.94460
1433.66500	0.94362
1431.60810	0.94257
1429.55119	0.94126
1427.49428	0.93993
1425.43737	0.93886
1423.38046	0.93822
1421.32355	0.93816
1419.26665	0.93889
1417.20974	0.94023
1415.15283	0.94157
1413.09592	0.94294
1411.03901	0.94405
1408.98211	0.94480
1406.92520	0.94573
1404.86829	0.94679
1402.81138	0.94736
1400.75447	0.94751
1398.69756	0.94739
1396.64066	0.94664
1394.58375	0.94493
1392.52684	0.94224
1390.46993	0.93885
1388.41302	0.93416
1386.35612	0.92802
1384.29921	0.92212
1382.24230	0.91643
1380.18539	0.91047
1378.12848	0.90494
1376.07157	0.89994
1374.01467	0.89530
1371.95776	0.89205
1369.90085	0.89036
1367.84394	0.88999
1365.78703	0.89135
1363.73013	0.89449
1361.67322	0.89897
1359.61631	0.90353
1357.55940	0.90775
1355.50249	0.91179
1353.44558	0.91544
1351.38868	0.91840
1349.33177	0.92087
1347.27486	0.92306
1345.21795	0.92514
1343.16104	0.92718
1341.10414	0.92912
1339.04723	0.93098
1336.99032	0.93259
1334.93341	0.93373
1332.87650	0.93444
1330.81959	0.93468
1328.76269	0.93454
1326.70578	0.93429
1324.64887	0.93424
1322.59196	0.93447
1320.53505	0.93493
1318.47815	0.93570
1316.42124	0.93683
1314.36433	0.93829
1312.30742	0.93995
1310.25051	0.94157
1308.19360	0.94312
1306.13670	0.94435
1304.07979	0.94519
1302.02288	0.94565
1299.96597	0.94538
1297.90906	0.94457
1295.85216	0.94364
1293.79525	0.94241
1291.73834	0.94072
1289.68143	0.93870
1287.62452	0.93624
1285.56761	0.93333
1283.51071	0.93025
1281.45380	0.92710
1279.39689	0.92394
1277.33998	0.92082
1275.28307	0.91771
1273.22617	0.91466
1271.16926	0.91159
1269.11235	0.90855
1267.05544	0.90544
1264.99853	0.90174
1262.94162	0.89736
1260.88472	0.89255
1258.82781	0.88740
1256.77090	0.88186
1254.71399	0.87592
1252.65708	0.86975
1250.60018	0.86327
1248.54327	0.85647
1246.48636	0.84948
1244.42945	0.84216
1242.37254	0.83443
1240.31563	0.82643
1238.25873	0.81852
1236.20182	0.81114
1234.14491	0.80456
1232.08800	0.79875
1230.03109	0.79407
1227.97419	0.79114
1225.91728	0.79018
1223.86037	0.79112
1221.80346	0.79394
1219.74655	0.79867
1217.68964	0.80505
1215.63274	0.81226
1213.57583	0.81931
1211.51892	0.82550
1209.46201	0.83061
1207.40510	0.83470
1205.34820	0.83790
1203.29129	0.84029
1201.23438	0.84180
1199.17747	0.84241
1197.12056	0.84230
1195.06365	0.84183
1193.00675	0.84095
1190.94984	0.83943
1188.89293	0.83779
1186.83602	0.83669
1184.77911	0.83598
1182.72221	0.83568
1180.66530	0.83581
1178.60839	0.83574
1176.55148	0.83516
1174.49457	0.83422
1172.43766	0.83296
1170.38076	0.83147
1168.32385	0.83006
1166.26694	0.82888
1164.21003	0.82792
1162.15312	0.82757
1160.09622	0.82858
1158.03931	0.83117
1155.98240	0.83494
1153.92549	0.83971
1151.86858	0.84538
1149.81167	0.85164
1147.75477	0.85783
1145.69786	0.86336
1143.64095	0.86792
1141.58404	0.87130
1139.52713	0.87348
1137.47023	0.87470
1135.41332	0.87502
1133.35641	0.87430
1131.29950	0.87276
1129.24259	0.87100
1127.18568	0.86931
1125.12878	0.86755
1123.07187	0.86579
1121.01496	0.86469
1118.95805	0.86442
1116.90114	0.86439
1114.84424	0.86421
1112.78733	0.86401
1110.73042	0.86389
1108.67351	0.86349
1106.61660	0.86265
1104.55969	0.86151
1102.50279	0.85963
1100.44588	0.85670
1098.38897	0.85302
1096.33206	0.84849
1094.27515	0.84254
1092.21825	0.83460
1090.16134	0.82490
1088.10443	0.81446
1086.04752	0.80447
1083.99061	0.79593
1081.93370	0.78907
1079.87680	0.78338
1077.81989	0.77839
1075.76298	0.77349
1073.70607	0.76844
1071.64916	0.76322
1069.59226	0.75793
1067.53535	0.75289
1065.47844	0.74824
1063.42153	0.74381
1061.36462	0.73940
1059.30771	0.73528
1057.25081	0.73178
1055.19390	0.72860
1053.13699	0.72539
1051.08008	0.72195
1049.02317	0.71833
1046.96627	0.71484
1044.90936	0.71168
1042.85245	0.70867
1040.79554	0.70556
1038.73863	0.70232
1036.68172	0.69892
1034.62482	0.69555
1032.56791	0.69287
1030.51100	0.69125
1028.45409	0.69058
1026.39718	0.69093
1024.34028	0.69254
1022.28337	0.69525
1020.22646	0.69870
1018.16955	0.70306
1016.11264	0.70839
1014.05573	0.71435
1011.99883	0.72096
1009.94192	0.72827
1007.88501	0.73603
1005.82810	0.74419
1003.77119	0.75261
1001.71429	0.76101
999.65738	0.76931
997.60047	0.77741
995.54356	0.78521
993.48665	0.79254
991.42974	0.79932
989.37284	0.80551
987.31593	0.81098
985.25902	0.81594
983.20211	0.82061
981.14520	0.82479
979.08830	0.82853
977.03139	0.83235
974.97448	0.83632
972.91757	0.84012
970.86066	0.84366
968.80375	0.84693
966.74685	0.84994
964.68994	0.85280
962.63303	0.85589
960.57612	0.85942
958.51921	0.86337
956.46231	0.86764
954.40540	0.87157
952.34849	0.87485
950.29158	0.87809
948.23467	0.88140
946.17776	0.88403
944.12086	0.88569
942.06395	0.88703
940.00704	0.88873
937.95013	0.89050
935.89322	0.89160
933.83632	0.89191
931.77941	0.89202
929.72250	0.89244
927.66559	0.89297
925.60868	0.89316
923.55177	0.89293
921.49487	0.89223
919.43796	0.89129
917.38105	0.89065
915.32414	0.89048
913.26723	0.89022
911.21033	0.88934
909.15342	0.88789
907.09651	0.88614
905.03960	0.88458
902.98269	0.88402
900.92578	0.88463
898.86888	0.88561
896.81197	0.88627
894.75506	0.88674
892.69815	0.88741
890.64124	0.88829
888.58434	0.88925
886.52743	0.89040
884.47052	0.89159
882.41361	0.89259
880.35670	0.89376
878.29979	0.89514
876.24289	0.89641
874.18598	0.89840
872.12907	0.90157
870.07216	0.90537
868.01525	0.90944
865.95835	0.91305
863.90144	0.91576
861.84453	0.91773
859.78762	0.91913
857.73071	0.92044
855.67380	0.92153
853.61690	0.92196
851.55999	0.92200
849.50308	0.92187
847.44617	0.92186
845.38926	0.92249
843.33236	0.92343
841.27545	0.92383
839.21854	0.92373
837.16163	0.92409
835.10472	0.92505
833.04781	0.92596
830.99091	0.92681
828.93400	0.92822
826.87709	0.93025
824.82018	0.93167
822.76327	0.93180
820.70637	0.93099
818.64946	0.92956
816.59255	0.92780
814.53564	0.92554
812.47873	0.92248
810.42182	0.91832
808.36492	0.91383
806.30801	0.91163
804.25110	0.91313
802.19419	0.91724
800.13728	0.92241
798.08038	0.92727
796.02347	0.93069
793.96656	0.93268
791.90965	0.93413
789.85274	0.93543
787.79583	0.93632
785.73893	0.93704
783.68202	0.93795
781.62511	0.93884
779.56820	0.93967
777.51129	0.94019
775.45439	0.94044
773.39748	0.94103
771.34057	0.94149
769.28366	0.94128
767.22675	0.94103
765.16984	0.94124
763.11294	0.94166
761.05603	0.94212
758.99912	0.94248
756.94221	0.94215
754.88530	0.94147
752.82839	0.94148
750.77149	0.94170
748.71458	0.94162
746.65767	0.94165
744.60076	0.94175
742.54385	0.94159
740.48695	0.94100
738.43004	0.94044
736.37313	0.94055
734.31622	0.94120
732.25931	0.94153
730.20240	0.94086
728.14550	0.93974
726.08859	0.93933
724.03168	0.93961
721.97477	0.93950
719.91786	0.93850
717.86096	0.93738
715.80405	0.93702
713.74714	0.93667
711.69023	0.93612
709.63332	0.93661
707.57641	0.93697
705.51951	0.93598
703.46260	0.93508
701.40569	0.93450
699.34878	0.93373
697.29187	0.93296
695.23497	0.93190
693.17806	0.93084
691.12115	0.93003
689.06424	0.92922
687.00733	0.92852
684.95042	0.92796
682.89352	0.92712
680.83661	0.92562
678.77970	0.92416
676.72279	0.92343
674.66588	0.92348
672.60898	0.92451
670.55207	0.92550
668.49516	0.92485
666.43825	0.92361
664.38134	0.92393
662.32443	0.92479
660.26753	0.92512
658.21062	0.92520
656.15371	0.92489
654.09680	0.92369
652.03989	0.92232
649.98299	0.92094
647.92608	0.91941
645.86917	0.91827
643.81226	0.91702
641.75535	0.91535
639.69844	0.91369
637.64154	0.91217
635.58463	0.91060
633.52772	0.90908
631.47081	0.90819
629.41390	0.90761
627.35700	0.90671
625.30009	0.90561
623.24318	0.90399
621.18627	0.90132
619.12936	0.89888
617.07245	0.89780
615.01555	0.89657
612.95864	0.89417
610.90173	0.89050
608.84482	0.88634
606.78791	0.88337
604.73101	0.88114
602.67410	0.87955
600.61719	0.87968
598.56028	0.88104
596.50337	0.88296
594.44646	0.88569
592.38956	0.88880
590.33265	0.89149
588.27574	0.89332
586.21883	0.89326
584.16192	0.89249
582.10502	0.89346
580.04811	0.89488
577.99120	0.89429
575.93429	0.89267
573.87738	0.89207
571.82047	0.89155
569.76357	0.89069
567.70666	0.89160
565.64975	0.89301
563.59284	0.89176
561.53593	0.88948
559.47903	0.88897
557.42212	0.88949
555.36521	0.88926
553.30830	0.88924
551.25139	0.89143
549.19448	0.89378
547.13758	0.89337
545.08067	0.89215
543.02376	0.89227
540.96685	0.89274
538.90994	0.89288
536.85304	0.89205
534.79613	0.89037
532.73922	0.88943
530.68231	0.88997
528.62540	0.89133
526.56849	0.89143
524.51159	0.89024
522.45468	0.89028
520.39777	0.89163
518.34086	0.89179
516.28395	0.89021
514.22705	0.88908
512.17014	0.88844
510.11323	0.88794
508.05632	0.88740
505.99941	0.88585
503.94250	0.88441
501.88560	0.88500
499.82869	0.88646
497.77178	0.88555
495.71487	0.88250
493.65796	0.88036
491.60106	0.88026
489.54415	0.88128
487.48724	0.88327
485.43033	0.88416
483.37342	0.88150
481.31651	0.87931
479.25961	0.88020
477.20270	0.88045
475.14579	0.87827
473.08888	0.87590
471.03197	0.87519
468.97507	0.87580
466.91816	0.87625
464.86125	0.87587
462.80434	0.87493
460.74743	0.87381
458.69052	0.87317
456.63362	0.87240
454.57671	0.87123
452.51980	0.87149
450.46289	0.87424
448.40598	0.87754
446.34908	0.87794
444.29217	0.87660
442.23526	0.87741
440.17835	0.87810
438.12144	0.87697
436.06453	0.87631
434.00763	0.87581
431.95072	0.87562
429.89381	0.87810
427.83690	0.88200
425.77999	0.88363
423.72309	0.88420
421.66618	0.88585
419.60927	0.88539
417.55236	0.88181
415.49545	0.87950
413.43854	0.87994
411.38164	0.88355
409.32473	0.88853
407.26782	0.89101
405.21091	0.88939
403.15400	0.88528
401.09710	0.88126
399.04019	0.87814
