3996.57260	0.98600
3994.51569	0.98617
3992.45878	0.98619
3990.40188	0.98594
3988.34497	0.98619
3986.28806	0.98644
3984.23115	0.98623
3982.17424	0.98605
3980.11733	0.98615
3978.06043	0.98660
3976.00352	0.98694
3973.94661	0.98671
3971.88970	0.98634
3969.83279	0.98621
3967.77589	0.98636
3965.71898	0.98657
3963.66207	0.98646
3961.60516	0.98618
3959.54825	0.98598
3957.49134	0.98571
3955.43444	0.98588
3953.37753	0.98643
3951.32062	0.98643
3949.26371	0.98614
3947.20680	0.98619
3945.14990	0.98634
3943.09299	0.98631
3941.03608	0.98618
3938.97917	0.98610
3936.92226	0.98614
3934.86535	0.98656
3932.80845	0.98715
3930.75154	0.98713
3928.69463	0.98675
3926.63772	0.98651
3924.58081	0.98619
3922.52391	0.98599
3920.46700	0.98597
3918.41009	0.98595
3916.35318	0.98599
3914.29627	0.98591
3912.23936	0.98605
3910.18246	0.98654
3908.12555	0.98668
3906.06864	0.98660
3904.01173	0.98679
3901.95482	0.98668
3899.89792	0.98609
3897.84101	0.98560
3895.78410	0.98538
3893.72719	0.98540
3891.67028	0.98572
3889.61337	0.98618
3887.55647	0.98653
3885.49956	0.98636
3883.44265	0.98601
3881.38574	0.98625
3879.32883	0.98649
3877.27193	0.98614
3875.21502	0.98574
3873.15811	0.98552
3871.10120	0.98509
3869.04429	0.98498
3866.98738	0.98563
3864.93048	0.98621
3862.87357	0.98634
3860.81666	0.98619
3858.75975	0.98625
3856.70284	0.98681
3854.64594	0.98729
3852.58903	0.98684
3850.53212	0.98644
3848.47521	0.98633
3846.41830	0.98621
3844.36139	0.98621
3842.30449	0.98634
3840.24758	0.98653
3838.19067	0.98688
3836.13376	0.98725
3834.07685	0.98716
3832.01995	0.98700
3829.96304	0.98722
3827.90613	0.98742
3825.84922	0.98741
3823.79231	0.98743
3821.73540	0.98751
3819.67850	0.98736
3817.62159	0.98727
3815.56468	0.98741
3813.50777	0.98735
3811.45086	0.98723
3809.39396	0.98697
3807.33705	0.98592
3805.28014	0.98486
3803.22323	0.98513
3801.16632	0.98628
3799.10941	0.98712
3797.05251	0.98727
3794.99560	0.98692
3792.93869	0.98653
3790.88178	0.98651
3788.82487	0.98694
3786.76796	0.98737
3784.71106	0.98729
3782.65415	0.98692
3780.59724	0.98673
3778.54033	0.98686
3776.48342	0.98702
3774.42652	0.98719
3772.36961	0.98748
3770.31270	0.98752
3768.25579	0.98726
3766.19888	0.98696
3764.14197	0.98661
3762.08507	0.98644
3760.02816	0.98656
3757.97125	0.98665
3755.91434	0.98645
3753.85743	0.98605
3751.80053	0.98578
3749.74362	0.98592
3747.68671	0.98642
3745.62980	0.98684
3743.57289	0.98644
3741.51598	0.98584
3739.45908	0.98563
3737.40217	0.98551
3735.34526	0.98562
3733.28835	0.98601
3731.23144	0.98623
3729.17454	0.98648
3727.11763	0.98682
3725.06072	0.98671
3723.00381	0.98618
3720.94690	0.98605
3718.88999	0.98629
3716.83309	0.98656
3714.77618	0.98697
3712.71927	0.98716
3710.66236	0.98667
3708.60545	0.98638
3706.54855	0.98664
3704.49164	0.98690
3702.43473	0.98652
3700.37782	0.98599
3698.32091	0.98597
3696.26400	0.98613
3694.20710	0.98667
3692.15019	0.98749
3690.09328	0.98740
3688.03637	0.98634
3685.97946	0.98596
3683.92256	0.98635
3681.86565	0.98671
3679.80874	0.98636
3677.75183	0.98541
3675.69492	0.98477
3673.63801	0.98490
3671.58111	0.98508
3669.52420	0.98516
3667.46729	0.98517
3665.41038	0.98521
3663.35347	0.98550
3661.29657	0.98587
3659.23966	0.98589
3657.18275	0.98540
3655.12584	0.98511
3653.06893	0.98529
3651.01202	0.98549
3648.95512	0.98570
3646.89821	0.98551
3644.84130	0.98475
3642.78439	0.98384
3640.72748	0.98329
3638.67058	0.98335
3636.61367	0.98369
3634.55676	0.98391
3632.49985	0.98379
3630.44294	0.98326
3628.38603	0.98254
3626.32913	0.98250
3624.27222	0.98278
3622.21531	0.98284
3620.15840	0.98258
3618.10149	0.98208
3616.04459	0.98183
3613.98768	0.98162
3611.93077	0.98104
3609.87386	0.98102
3607.81695	0.98186
3605.76004	0.98222
3603.70314	0.98178
3601.64623	0.98120
3599.58932	0.98078
3597.53241	0.98033
3595.47550	0.97986
3593.41860	0.97965
3591.36169	0.97958
3589.30478	0.97944
3587.24787	0.97900
3585.19096	0.97829
3583.13405	0.97817
3581.07715	0.97839
3579.02024	0.97812
3576.96333	0.97756
3574.90642	0.97710
3572.84951	0.97663
3570.79261	0.97618
3568.73570	0.97564
3566.67879	0.97481
3564.62188	0.97453
3562.56497	0.97463
3560.50806	0.97427
3558.45116	0.97366
3556.39425	0.97309
3554.33734	0.97244
3552.28043	0.97167
3550.22352	0.97100
3548.16662	0.97060
3546.10971	0.97018
3544.05280	0.96970
3541.99589	0.96953
3539.93898	0.96946
3537.88207	0.96890
3535.82517	0.96828
3533.76826	0.96821
3531.71135	0.96798
3529.65444	0.96713
3527.59753	0.96620
3525.54063	0.96559
3523.48372	0.96510
3521.42681	0.96459
3519.36990	0.96432
3517.31299	0.96418
3515.25608	0.96365
3513.19918	0.96304
3511.14227	0.96279
3509.08536	0.96249
3507.02845	0.96223
3504.97154	0.96233
3502.91464	0.96221
3500.85773	0.96163
3498.80082	0.96099
3496.74391	0.96049
3494.68700	0.96023
3492.63009	0.95983
3490.57319	0.95919
3488.51628	0.95898
3486.45937	0.95918
3484.40246	0.95922
3482.34555	0.95914
3480.28865	0.95919
3478.23174	0.95899
3476.17483	0.95837
3474.11792	0.95778
3472.06101	0.95768
3470.00410	0.95792
3467.94720	0.95812
3465.89029	0.95840
3463.83338	0.95886
3461.77647	0.95906
3459.71956	0.95933
3457.66266	0.95990
3455.60575	0.96003
3453.54884	0.95973
3451.49193	0.95971
3449.43502	0.95980
3447.37811	0.95974
3445.32121	0.95997
3443.26430	0.96047
3441.20739	0.96082
3439.15048	0.96108
3437.09357	0.96140
3435.03667	0.96173
3432.97976	0.96203
3430.92285	0.96216
3428.86594	0.96235
3426.80903	0.96276
3424.75212	0.96298
3422.69522	0.96302
3420.63831	0.96319
3418.58140	0.96354
3416.52449	0.96387
3414.46758	0.96403
3412.41068	0.96428
3410.35377	0.96471
3408.29686	0.96490
3406.23995	0.96489
3404.18304	0.96519
3402.12613	0.96578
3400.06923	0.96606
3398.01232	0.96597
3395.95541	0.96587
3393.89850	0.96585
3391.84159	0.96614
3389.78469	0.96669
3387.72778	0.96709
3385.67087	0.96741
3383.61396	0.96765
3381.55705	0.96771
3379.50014	0.96745
3377.44324	0.96725
3375.38633	0.96768
3373.32942	0.96827
3371.27251	0.96828
3369.21560	0.96804
3367.15870	0.96835
3365.10179	0.96900
3363.04488	0.96925
3360.98797	0.96891
3358.93106	0.96879
3356.87415	0.96950
3354.81725	0.97037
3352.76034	0.97077
3350.70343	0.97082
3348.64652	0.97068
3346.58961	0.97040
3344.53271	0.97030
3342.47580	0.97056
3340.41889	0.97070
3338.36198	0.97086
3336.30507	0.97140
3334.24816	0.97165
3332.19126	0.97143
3330.13435	0.97144
3328.07744	0.97169
3326.02053	0.97179
3323.96362	0.97208
3321.90672	0.97254
3319.84981	0.97278
3317.79290	0.97288
3315.73599	0.97299
3313.67908	0.97332
3311.62217	0.97371
3309.56527	0.97372
3307.50836	0.97351
3305.45145	0.97341
3303.39454	0.97329
3301.33763	0.97324
3299.28073	0.97363
3297.22382	0.97413
3295.16691	0.97428
3293.11000	0.97441
3291.05309	0.97484
3288.99618	0.97523
3286.93928	0.97527
3284.88237	0.97509
3282.82546	0.97503
3280.76855	0.97521
3278.71164	0.97541
3276.65474	0.97556
3274.59783	0.97572
3272.54092	0.97574
3270.48401	0.97562
3268.42710	0.97583
3266.37019	0.97637
3264.31329	0.97667
3262.25638	0.97681
3260.19947	0.97684
3258.14256	0.97656
3256.08565	0.97626
3254.02875	0.97611
3251.97184	0.97621
3249.91493	0.97661
3247.85802	0.97711
3245.80111	0.97738
3243.74420	0.97733
3241.68730	0.97727
3239.63039	0.97738
3237.57348	0.97750
3235.51657	0.97749
3233.45966	0.97747
3231.40276	0.97759
3229.34585	0.97791
3227.28894	0.97826
3225.23203	0.97829
3223.17512	0.97807
3221.11821	0.97821
3219.06131	0.97860
3217.00440	0.97863
3214.94749	0.97856
3212.89058	0.97876
3210.83367	0.97903
3208.77677	0.97930
3206.71986	0.97949
3204.66295	0.97937
3202.60604	0.97909
3200.54913	0.97918
3198.49222	0.97971
3196.43532	0.98013
3194.37841	0.98002
3192.32150	0.97974
3190.26459	0.97963
3188.20768	0.97964
3186.15078	0.97977
3184.09387	0.97993
3182.03696	0.98011
3179.98005	0.98031
3177.92314	0.98048
3175.86623	0.98048
3173.80933	0.98018
3171.75242	0.98002
3169.69551	0.98033
3167.63860	0.98060
3165.58169	0.98051
3163.52479	0.98048
3161.46788	0.98078
3159.41097	0.98105
3157.35406	0.98106
3155.29715	0.98103
3153.24024	0.98082
3151.18334	0.98034
3149.12643	0.98026
3147.06952	0.98060
3145.01261	0.98071
3142.95570	0.98068
3140.89880	0.98078
3138.84189	0.98106
3136.78498	0.98149
3134.72807	0.98167
3132.67116	0.98159
3130.61425	0.98168
3128.55735	0.98188
3126.50044	0.98185
3124.44353	0.98145
3122.38662	0.98096
3120.32971	0.98103
3118.27281	0.98161
3116.21590	0.98207
3114.15899	0.98232
3112.10208	0.98228
3110.04517	0.98190
3107.98826	0.98151
3105.93136	0.98133
3103.87445	0.98134
3101.81754	0.98159
3099.76063	0.98195
3097.70372	0.98221
3095.64682	0.98216
3093.58991	0.98188
3091.53300	0.98187
3089.47609	0.98213
3087.41918	0.98216
3085.36227	0.98203
3083.30537	0.98189
3081.24846	0.98163
3079.19155	0.98167
3077.13464	0.98220
3075.07773	0.98255
3073.02083	0.98244
3070.96392	0.98213
3068.90701	0.98197
3066.85010	0.98212
3064.79319	0.98245
3062.73628	0.98264
3060.67938	0.98260
3058.62247	0.98241
3056.56556	0.98209
3054.50865	0.98193
3052.45174	0.98211
3050.39484	0.98228
3048.33793	0.98218
3046.28102	0.98199
3044.22411	0.98193
3042.16720	0.98191
3040.11029	0.98182
3038.05339	0.98178
3035.99648	0.98177
3033.93957	0.98157
3031.88266	0.98131
3029.82575	0.98124
3027.76885	0.98113
3025.71194	0.98080
3023.65503	0.98067
3021.59812	0.98089
3019.54121	0.98094
3017.48430	0.98087
3015.42740	0.98094
3013.37049	0.98111
3011.31358	0.98131
3009.25667	0.98113
3007.19976	0.98050
3005.14286	0.97983
3003.08595	0.97929
3001.02904	0.97896
2998.97213	0.97868
2996.91522	0.97830
2994.85831	0.97808
2992.80141	0.97788
2990.74450	0.97728
2988.68759	0.97631
2986.63068	0.97526
2984.57377	0.97436
2982.51687	0.97325
2980.45996	0.97170
2978.40305	0.97000
2976.34614	0.96820
2974.28923	0.96595
2972.23232	0.96312
2970.17542	0.96007
2968.11851	0.95718
2966.06160	0.95459
2964.00469	0.95244
2961.94778	0.95093
2959.89088	0.95013
2957.83397	0.95013
2955.77706	0.95100
2953.72015	0.95251
2951.66324	0.95400
2949.60633	0.95505
2947.54943	0.95555
2945.49252	0.95536
2943.43561	0.95477
2941.37870	0.95424
2939.32179	0.95374
2937.26489	0.95313
2935.20798	0.95269
2933.15107	0.95277
2931.09416	0.95336
2929.03725	0.95426
2926.98034	0.95540
2924.92344	0.95658
2922.86653	0.95767
2920.80962	0.95856
2918.75271	0.95907
2916.69580	0.95948
2914.63890	0.95994
2912.58199	0.96043
2910.52508	0.96094
2908.46817	0.96136
2906.41126	0.96167
2904.35435	0.96193
2902.29745	0.96217
2900.24054	0.96229
2898.18363	0.96220
2896.12672	0.96226
2894.06981	0.96270
2892.01291	0.96309
2889.95600	0.96289
2887.89909	0.96225
2885.84218	0.96153
2883.78527	0.96072
2881.72836	0.95954
2879.67146	0.95810
2877.61455	0.95676
2875.55764	0.95574
2873.50073	0.95532
2871.44382	0.95577
2869.38692	0.95690
2867.33001	0.95821
2865.27310	0.95926
2863.21619	0.96015
2861.15928	0.96129
2859.10237	0.96289
2857.04547	0.96482
2854.98856	0.96681
2852.93165	0.96866
2850.87474	0.97015
2848.81783	0.97122
2846.76093	0.97214
2844.70402	0.97303
2842.64711	0.97383
2840.59020	0.97439
2838.53329	0.97477
2836.47638	0.97515
2834.41948	0.97535
2832.36257	0.97537
2830.30566	0.97555
2828.24875	0.97609
2826.19184	0.97666
2824.13494	0.97707
2822.07803	0.97738
2820.02112	0.97750
2817.96421	0.97751
2815.90730	0.97753
2813.85039	0.97753
2811.79349	0.97756
2809.73658	0.97769
2807.67967	0.97780
2805.62276	0.97779
2803.56585	0.97789
2801.50895	0.97806
2799.45204	0.97806
2797.39513	0.97812
2795.33822	0.97837
2793.28131	0.97861
2791.22440	0.97870
2789.16750	0.97867
2787.11059	0.97872
2785.05368	0.97882
2782.99677	0.97891
2780.93986	0.97910
2778.88296	0.97928
2776.82605	0.97930
2774.76914	0.97927
2772.71223	0.97925
2770.65532	0.97921
2768.59841	0.97941
2766.54151	0.97978
2764.48460	0.97996
2762.42769	0.97995
2760.37078	0.97987
2758.31387	0.97976
2756.25697	0.97976
2754.20006	0.97986
2752.14315	0.97983
2750.08624	0.97968
2748.02933	0.97966
2745.97242	0.97976
2743.91552	0.97968
2741.85861	0.97957
2739.80170	0.97977
2737.74479	0.98012
2735.68788	0.98026
2733.63098	0.98005
2731.57407	0.97973
2729.51716	0.97957
2727.46025	0.97975
2725.40334	0.98022
2723.34643	0.98040
2721.28953	0.98015
2719.23262	0.98010
2717.17571	0.98030
2715.11880	0.98037
2713.06189	0.98040
2711.00499	0.98045
2708.94808	0.98036
2706.89117	0.98029
2704.83426	0.98032
2702.77735	0.98016
2700.72044	0.97999
2698.66354	0.98013
2696.60663	0.98044
2694.54972	0.98072
2692.49281	0.98078
2690.43590	0.98057
2688.37900	0.98044
2686.32209	0.98057
2684.26518	0.98066
2682.20827	0.98039
2680.15136	0.98014
2678.09445	0.98035
2676.03755	0.98065
2673.98064	0.98061
2671.92373	0.98056
2669.86682	0.98074
2667.80991	0.98087
2665.75301	0.98072
2663.69610	0.98030
2661.63919	0.97984
2659.58228	0.97972
2657.52537	0.97987
2655.46846	0.97998
2653.41156	0.98011
2651.35465	0.98020
2649.29774	0.98015
2647.24083	0.98013
2645.18392	0.98009
2643.12702	0.97997
2641.07011	0.97996
2639.01320	0.98018
2636.95629	0.98047
2634.89938	0.98062
2632.84247	0.98076
2630.78557	0.98108
2628.72866	0.98132
2626.67175	0.98116
2624.61484	0.98073
2622.55793	0.98036
2620.50103	0.98032
2618.44412	0.98048
2616.38721	0.98054
2614.33030	0.98061
2612.27339	0.98086
2610.21648	0.98098
2608.15958	0.98081
2606.10267	0.98088
2604.04576	0.98108
2601.98885	0.98099
2599.93194	0.98102
2597.87504	0.98120
2595.81813	0.98110
2593.76122	0.98094
2591.70431	0.98106
2589.64740	0.98108
2587.59049	0.98088
2585.53359	0.98091
2583.47668	0.98132
2581.41977	0.98176
2579.36286	0.98181
2577.30595	0.98152
2575.24905	0.98138
2573.19214	0.98144
2571.13523	0.98134
2569.07832	0.98124
2567.02141	0.98122
2564.96450	0.98127
2562.90760	0.98155
2560.85069	0.98181
2558.79378	0.98181
2556.73687	0.98178
2554.67996	0.98215
2552.62306	0.98272
2550.56615	0.98265
2548.50924	0.98214
2546.45233	0.98223
2544.39542	0.98283
2542.33851	0.98300
2540.28161	0.98275
2538.22470	0.98251
2536.16779	0.98222
2534.11088	0.98182
2532.05397	0.98169
2529.99707	0.98196
2527.94016	0.98214
2525.88325	0.98214
2523.82634	0.98217
2521.76943	0.98225
2519.71252	0.98243
2517.65562	0.98247
2515.59871	0.98234
2513.54180	0.98240
2511.48489	0.98251
2509.42798	0.98242
2507.37108	0.98260
2505.31417	0.98316
2503.25726	0.98339
2501.20035	0.98290
2499.14344	0.98222
2497.08653	0.98201
2495.02963	0.98236
2492.97272	0.98269
2490.91581	0.98258
2488.85890	0.98237
2486.80199	0.98233
2484.74509	0.98264
2482.68818	0.98290
2480.63127	0.98262
2478.57436	0.98233
2476.51745	0.98245
2474.46054	0.98266
2472.40364	0.98273
2470.34673	0.98258
2468.28982	0.98222
2466.23291	0.98198
2464.17600	0.98206
2462.11910	0.98225
2460.06219	0.98231
2458.00528	0.98217
2455.94837	0.98211
2453.89146	0.98237
2451.83455	0.98258
2449.77765	0.98248
2447.72074	0.98220
2445.66383	0.98202
2443.60692	0.98196
2441.55001	0.98183
2439.49311	0.98157
2437.43620	0.98149
2435.37929	0.98193
2433.32238	0.98253
2431.26547	0.98278
2429.20856	0.98288
2427.15166	0.98273
2425.09475	0.98224
2423.03784	0.98211
2420.98093	0.98233
2418.92402	0.98233
2416.86712	0.98227
2414.81021	0.98235
2412.75330	0.98235
2410.69639	0.98238
2408.63948	0.98252
2406.58257	0.98264
2404.52567	0.98284
2402.46876	0.98297
2400.41185	0.98277
2398.35494	0.98267
2396.29803	0.98303
2394.24113	0.98335
2392.18422	0.98327
2390.12731	0.98305
2388.07040	0.98291
2386.01349	0.98273
2383.95658	0.98256
2381.89968	0.98251
2379.84277	0.98235
2377.78586	0.98213
2375.72895	0.98192
2373.67204	0.98173
2371.61514	0.98203
2369.55823	0.98296
2367.50132	0.98376
2365.44441	0.98393
2363.38750	0.98385
2361.33059	0.98343
2359.27369	0.98258
2357.21678	0.98228
2355.15987	0.98248
2353.10296	0.98246
2351.04605	0.98244
2348.98915	0.98238
2346.93224	0.98213
2344.87533	0.98195
2342.81842	0.98215
2340.76151	0.98278
2338.70460	0.98321
2336.64770	0.98284
2334.59079	0.98231
2332.53388	0.98220
2330.47697	0.98215
2328.42006	0.98177
2326.36316	0.98103
2324.30625	0.98031
2322.24934	0.98025
2320.19243	0.98095
2318.13552	0.98182
2316.07861	0.98222
2314.02171	0.98221
2311.96480	0.98204
2309.90789	0.98169
2307.85098	0.98129
2305.79407	0.98121
2303.73717	0.98157
2301.68026	0.98172
2299.62335	0.98149
2297.56644	0.98177
2295.50953	0.98231
2293.45262	0.98196
2291.39572	0.98095
2289.33881	0.98048
2287.28190	0.98086
2285.22499	0.98144
2283.16808	0.98186
2281.11117	0.98228
2279.05427	0.98236
2276.99736	0.98220
2274.94045	0.98232
2272.88354	0.98223
2270.82663	0.98175
2268.76973	0.98167
2266.71282	0.98194
2264.65591	0.98187
2262.59900	0.98143
2260.54209	0.98142
2258.48518	0.98211
2256.42828	0.98262
2254.37137	0.98261
2252.31446	0.98251
2250.25755	0.98249
2248.20064	0.98224
2246.14374	0.98191
2244.08683	0.98221
2242.02992	0.98305
2239.97301	0.98368
2237.91610	0.98347
2235.85919	0.98250
2233.80229	0.98179
2231.74538	0.98192
2229.68847	0.98254
2227.63156	0.98315
2225.57465	0.98313
2223.51775	0.98282
2221.46084	0.98276
2219.40393	0.98241
2217.34702	0.98204
2215.29011	0.98249
2213.23320	0.98338
2211.17630	0.98412
2209.11939	0.98430
2207.06248	0.98333
2205.00557	0.98230
2202.94866	0.98264
2200.89176	0.98323
2198.83485	0.98328
2196.77794	0.98301
2194.72103	0.98250
2192.66412	0.98255
2190.60721	0.98329
2188.55031	0.98450
2186.49340	0.98502
2184.43649	0.98383
2182.37958	0.98344
2180.32267	0.98489
2178.26577	0.98597
2176.20886	0.98646
2174.15195	0.98644
2172.09504	0.98528
2170.03813	0.98441
2167.98122	0.98476
2165.92432	0.98501
2163.86741	0.98419
2161.81050	0.98434
2159.75359	0.98768
2157.69668	0.99109
2155.63978	0.99124
2153.58287	0.98926
2151.52596	0.98681
2149.46905	0.98517
2147.41214	0.98526
2145.35523	0.98614
2143.29833	0.98602
2141.24142	0.98462
2139.18451	0.98315
2137.12760	0.98296
2135.07069	0.98414
2133.01379	0.98532
2130.95688	0.98507
2128.89997	0.98392
2126.84306	0.98345
2124.78615	0.98366
2122.72924	0.98341
2120.67234	0.98270
2118.61543	0.98236
2116.55852	0.98226
2114.50161	0.98187
2112.44470	0.98145
2110.38780	0.98176
2108.33089	0.98262
2106.27398	0.98296
2104.21707	0.98287
2102.16016	0.98330
2100.10325	0.98391
2098.04635	0.98374
2095.98944	0.98322
2093.93253	0.98309
2091.87562	0.98293
2089.81871	0.98253
2087.76181	0.98229
2085.70490	0.98233
2083.64799	0.98280
2081.59108	0.98336
2079.53417	0.98333
2077.47726	0.98270
2075.42036	0.98192
2073.36345	0.98196
2071.30654	0.98249
2069.24963	0.98231
2067.19272	0.98209
2065.13582	0.98232
2063.07891	0.98228
2061.02200	0.98184
2058.96509	0.98164
2056.90818	0.98242
2054.85127	0.98361
2052.79437	0.98370
2050.73746	0.98274
2048.68055	0.98218
2046.62364	0.98247
2044.56673	0.98299
2042.50983	0.98319
2040.45292	0.98307
2038.39601	0.98249
2036.33910	0.98224
2034.28219	0.98350
2032.22528	0.98472
2030.16838	0.98460
2028.11147	0.98367
2026.05456	0.98318
2023.99765	0.98408
2021.94074	0.98505
2019.88384	0.98521
2017.82693	0.98506
2015.77002	0.98445
2013.71311	0.98424
2011.65620	0.98482
2009.59929	0.98462
2007.54239	0.98426
2005.48548	0.98513
2003.42857	0.98616
2001.37166	0.98648
1999.31475	0.98639
1997.25785	0.98623
1995.20094	0.98602
1993.14403	0.98531
1991.08712	0.98488
1989.03021	0.98540
1986.97330	0.98501
1984.91640	0.98391
1982.85949	0.98365
1980.80258	0.98359
1978.74567	0.98430
1976.68876	0.98628
1974.63186	0.98666
1972.57495	0.98541
1970.51804	0.98542
1968.46113	0.98622
1966.40422	0.98648
1964.34731	0.98701
1962.29041	0.98753
1960.23350	0.98695
1958.17659	0.98564
1956.11968	0.98467
1954.06277	0.98465
1952.00587	0.98538
1949.94896	0.98593
1947.89205	0.98593
1945.83514	0.98581
1943.77823	0.98585
1941.72132	0.98556
1939.66442	0.98488
1937.60751	0.98457
1935.55060	0.98476
1933.49369	0.98476
1931.43678	0.98495
1929.37988	0.98571
1927.32297	0.98586
1925.26606	0.98533
1923.20915	0.98500
1921.15224	0.98513
1919.09533	0.98559
1917.03843	0.98581
1914.98152	0.98554
1912.92461	0.98528
1910.86770	0.98527
1908.81079	0.98557
1906.75389	0.98583
1904.69698	0.98553
1902.64007	0.98515
1900.58316	0.98530
1898.52625	0.98571
1896.46934	0.98572
1894.41244	0.98541
1892.35553	0.98525
1890.29862	0.98520
1888.24171	0.98544
1886.18480	0.98570
1884.12790	0.98534
1882.07099	0.98482
1880.01408	0.98485
1877.95717	0.98505
1875.90026	0.98506
1873.84335	0.98507
1871.78645	0.98500
1869.72954	0.98488
1867.67263	0.98505
1865.61572	0.98537
1863.55881	0.98539
1861.50191	0.98495
1859.44500	0.98441
1857.38809	0.98421
1855.33118	0.98441
1853.27427	0.98488
1851.21736	0.98505
1849.16046	0.98494
1847.10355	0.98516
1845.04664	0.98545
1842.98973	0.98522
1840.93282	0.98487
1838.87592	0.98484
1836.81901	0.98503
1834.76210	0.98518
1832.70519	0.98517
1830.64828	0.98525
1828.59137	0.98523
1826.53447	0.98497
1824.47756	0.98459
1822.42065	0.98421
1820.36374	0.98417
1818.30683	0.98437
1816.24993	0.98453
1814.19302	0.98446
1812.13611	0.98418
1810.07920	0.98381
1808.02229	0.98362
1805.96538	0.98365
1803.90848	0.98371
1801.85157	0.98345
1799.79466	0.98308
1797.73775	0.98282
1795.68084	0.98238
1793.62394	0.98177
1791.56703	0.98109
1789.51012	0.98060
1787.45321	0.98021
1785.39630	0.97964
1783.33939	0.97891
1781.28249	0.97804
1779.22558	0.97667
1777.16867	0.97470
1775.11176	0.97220
1773.05485	0.96866
1770.99795	0.96393
1768.94104	0.95828
1766.88413	0.95073
1764.82722	0.94184
1762.77031	0.93118
1760.71340	0.91839
1758.65650	0.90670
1756.59959	0.89552
1754.54268	0.88549
1752.48577	0.87686
1750.42886	0.86725
1748.37196	0.85773
1746.31505	0.85037
1744.25814	0.84441
1742.20123	0.83904
1740.14432	0.83397
1738.08741	0.83034
1736.03051	0.82864
1733.97360	0.82758
1731.91669	0.82797
1729.85978	0.82989
1727.80287	0.83288
1725.74597	0.83696
1723.68906	0.84209
1721.63215	0.84754
1719.57524	0.85374
1717.51833	0.86235
1715.46142	0.87202
1713.40452	0.88068
1711.34761	0.88914
1709.29070	0.89749
1707.23379	0.90567
1705.17688	0.91366
1703.11998	0.91996
1701.06307	0.92591
1699.00616	0.93276
1696.94925	0.93794
1694.89234	0.94220
1692.83543	0.94552
1690.77853	0.94809
1688.72162	0.95045
1686.66471	0.95247
1684.60780	0.95458
1682.55089	0.95645
1680.49399	0.95764
1678.43708	0.95890
1676.38017	0.96027
1674.32326	0.96130
1672.26635	0.96192
1670.20944	0.96243
1668.15254	0.96294
1666.09563	0.96330
1664.03872	0.96338
1661.98181	0.96335
1659.92490	0.96350
1657.86800	0.96369
1655.81109	0.96380
1653.75418	0.96366
1651.69727	0.96342
1649.64036	0.96359
1647.58345	0.96371
1645.52655	0.96346
1643.46964	0.96338
1641.41273	0.96353
1639.35582	0.96366
1637.29891	0.96368
1635.24201	0.96366
1633.18510	0.96368
1631.12819	0.96378
1629.07128	0.96392
1627.01437	0.96403
1624.95746	0.96416
1622.90056	0.96450
1620.84365	0.96502
1618.78674	0.96558
1616.72983	0.96637
1614.67292	0.96727
1612.61602	0.96791
1610.55911	0.96835
1608.50220	0.96885
1606.44529	0.96952
1604.38838	0.97018
1602.33147	0.97070
1600.27457	0.97116
1598.21766	0.97156
1596.16075	0.97176
1594.10384	0.97184
1592.04693	0.97193
1589.99003	0.97205
1587.93312	0.97227
1585.87621	0.97256
1583.81930	0.97278
1581.76239	0.97291
1579.70548	0.97301
1577.64858	0.97316
1575.59167	0.97335
1573.53476	0.97370
1571.47785	0.97412
1569.42094	0.97427
1567.36404	0.97408
1565.30713	0.97401
1563.25022	0.97425
1561.19331	0.97459
1559.13640	0.97460
1557.07949	0.97460
1555.02259	0.97500
1552.96568	0.97531
1550.90877	0.97537
1548.85186	0.97535
1546.79495	0.97558
1544.73805	0.97604
1542.68114	0.97644
1540.62423	0.97646
1538.56732	0.97616
1536.51041	0.97605
1534.45350	0.97618
1532.39660	0.97629
1530.33969	0.97620
1528.28278	0.97616
1526.22587	0.97630
1524.16896	0.97638
1522.11206	0.97635
1520.05515	0.97631
1517.99824	0.97615
1515.94133	0.97617
1513.88442	0.97644
1511.82751	0.97668
1509.77061	0.97692
1507.71370	0.97700
1505.65679	0.97669
1503.59988	0.97666
1501.54297	0.97677
1499.48607	0.97672
1497.42916	0.97650
1495.37225	0.97632
1493.31534	0.97639
1491.25843	0.97641
1489.20152	0.97616
1487.14462	0.97587
1485.08771	0.97566
1483.03080	0.97529
1480.97389	0.97456
1478.91698	0.97356
1476.86008	0.97219
1474.80317	0.96981
1472.74626	0.96543
1470.68935	0.96042
1468.63244	0.95726
1466.57553	0.95551
1464.51863	0.95434
1462.46172	0.95340
1460.40481	0.95278
1458.34790	0.95194
1456.29099	0.95053
1454.23409	0.95002
1452.17718	0.95028
1450.12027	0.95051
1448.06336	0.95053
1446.00645	0.95050
1443.94954	0.95031
1441.89264	0.94974
1439.83573	0.94909
1437.77882	0.94840
1435.72191	0.94729
1433.66500	0.94646
1431.60810	0.94605
1429.55119	0.94556
1427.49428	0.94513
1425.43737	0.94483
1423.38046	0.94427
1421.32355	0.94369
1419.26665	0.94342
1417.20974	0.94347
1415.15283	0.94416
1413.09592	0.94544
1411.03901	0.94695
1408.98211	0.94837
1406.92520	0.94948
1404.86829	0.95025
1402.81138	0.95094
1400.75447	0.95151
1398.69756	0.95142
1396.64066	0.95048
1394.58375	0.94859
1392.52684	0.94575
1390.46993	0.94228
1388.41302	0.93762
1386.35612	0.93141
1384.29921	0.92512
1382.24230	0.91953
1380.18539	0.91427
1378.12848	0.90944
1376.07157	0.90515
1374.01467	0.90098
1371.95776	0.89762
1369.90085	0.89608
1367.84394	0.89624
1365.78703	0.89804
1363.73013	0.90178
1361.67322	0.90764
1359.61631	0.91423
1357.55940	0.92045
1355.50249	0.92589
1353.44558	0.93014
1351.38868	0.93321
1349.33177	0.93543
1347.27486	0.93691
1345.21795	0.93781
1343.16104	0.93852
1341.10414	0.93917
1339.04723	0.93974
1336.99032	0.94030
1334.93341	0.94067
1332.87650	0.94072
1330.81959	0.94073
1328.76269	0.94083
1326.70578	0.94075
1324.64887	0.94035
1322.59196	0.93990
1320.53505	0.93951
1318.47815	0.93919
1316.42124	0.93908
1314.36433	0.93924
1312.30742	0.93967
1310.25051	0.94024
1308.19360	0.94094
1306.13670	0.94199
1304.07979	0.94325
1302.02288	0.94435
1299.96597	0.94506
1297.90906	0.94513
1295.85216	0.94442
1293.79525	0.94328
1291.73834	0.94221
1289.68143	0.94139
1287.62452	0.94090
1285.56761	0.94071
1283.51071	0.94034
1281.45380	0.93935
1279.39689	0.93770
1277.33998	0.93528
1275.28307	0.93198
1273.22617	0.92775
1271.16926	0.92268
1269.11235	0.91722
1267.05544	0.91152
1264.99853	0.90565
1262.94162	0.89984
1260.88472	0.89413
1258.82781	0.88859
1256.77090	0.88322
1254.71399	0.87783
1252.65708	0.87230
1250.60018	0.86642
1248.54327	0.86013
1246.48636	0.85358
1244.42945	0.84690
1242.37254	0.84031
1240.31563	0.83386
1238.25873	0.82737
1236.20182	0.82110
1234.14491	0.81536
1232.08800	0.81014
1230.03109	0.80553
1227.97419	0.80190
1225.91728	0.79964
1223.86037	0.79902
1221.80346	0.80028
1219.74655	0.80357
1217.68964	0.80903
1215.63274	0.81653
1213.57583	0.82558
1211.51892	0.83573
1209.46201	0.84635
1207.40510	0.85693
1205.34820	0.86692
1203.29129	0.87577
1201.23438	0.88308
1199.17747	0.88841
1197.12056	0.89156
1195.06365	0.89260
1193.00675	0.89172
1190.94984	0.88920
1188.89293	0.88553
1186.83602	0.88129
1184.77911	0.87704
1182.72221	0.87290
1180.66530	0.86868
1178.60839	0.86445
1176.55148	0.86039
1174.49457	0.85654
1172.43766	0.85283
1170.38076	0.84920
1168.32385	0.84576
1166.26694	0.84275
1164.21003	0.84036
1162.15312	0.83875
1160.09622	0.83830
1158.03931	0.83928
1155.98240	0.84179
1153.92549	0.84568
1151.86858	0.85065
1149.81167	0.85636
1147.75477	0.86237
1145.69786	0.86837
1143.64095	0.87405
1141.58404	0.87889
1139.52713	0.88234
1137.47023	0.88423
1135.41332	0.88494
1133.35641	0.88488
1131.29950	0.88406
1129.24259	0.88263
1127.18568	0.88107
1125.12878	0.87960
1123.07187	0.87788
1121.01496	0.87565
1118.95805	0.87293
1116.90114	0.86955
1114.84424	0.86529
1112.78733	0.86068
1110.73042	0.85679
1108.67351	0.85432
1106.61660	0.85342
1104.55969	0.85353
1102.50279	0.85346
1100.44588	0.85236
1098.38897	0.85020
1096.33206	0.84739
1094.27515	0.84447
1092.21825	0.84151
1090.16134	0.83826
1088.10443	0.83477
1086.04752	0.83121
1083.99061	0.82748
1081.93370	0.82341
1079.87680	0.81923
1077.81989	0.81523
1075.76298	0.81116
1073.70607	0.80704
1071.64916	0.80314
1069.59226	0.79904
1067.53535	0.79460
1065.47844	0.79051
1063.42153	0.78678
1061.36462	0.78293
1059.30771	0.77913
1057.25081	0.77550
1055.19390	0.77183
1053.13699	0.76814
1051.08008	0.76465
1049.02317	0.76158
1046.96627	0.75884
1044.90936	0.75623
1042.85245	0.75372
1040.79554	0.75113
1038.73863	0.74833
1036.68172	0.74538
1034.62482	0.74237
1032.56791	0.73959
1030.51100	0.73748
1028.45409	0.73636
1026.39718	0.73635
1024.34028	0.73737
1022.28337	0.73919
1020.22646	0.74142
1018.16955	0.74408
1016.11264	0.74749
1014.05573	0.75140
1011.99883	0.75542
1009.94192	0.75959
1007.88501	0.76414
1005.82810	0.76903
1003.77119	0.77407
1001.71429	0.77923
999.65738	0.78449
997.60047	0.78989
995.54356	0.79519
993.48665	0.80011
991.42974	0.80473
989.37284	0.80905
987.31593	0.81316
985.25902	0.81724
983.20211	0.82100
981.14520	0.82443
979.08830	0.82783
977.03139	0.83127
974.97448	0.83493
972.91757	0.83884
970.86066	0.84266
968.80375	0.84643
966.74685	0.85053
964.68994	0.85487
962.63303	0.85912
960.57612	0.86328
958.51921	0.86728
956.46231	0.87074
954.40540	0.87350
952.34849	0.87555
950.29158	0.87699
948.23467	0.87820
946.17776	0.87917
944.12086	0.87970
942.06395	0.88003
940.00704	0.88038
937.95013	0.88063
935.89322	0.88072
933.83632	0.88088
931.77941	0.88139
929.72250	0.88201
927.66559	0.88226
925.60868	0.88194
923.55177	0.88138
921.49487	0.88118
919.43796	0.88120
917.38105	0.88095
915.32414	0.88060
913.26723	0.88039
911.21033	0.88014
909.15342	0.87961
907.09651	0.87886
905.03960	0.87839
902.98269	0.87835
900.92578	0.87842
898.86888	0.87883
896.81197	0.87963
894.75506	0.88066
892.69815	0.88198
890.64124	0.88359
888.58434	0.88544
886.52743	0.88743
884.47052	0.88955
882.41361	0.89190
880.35670	0.89461
878.29979	0.89756
876.24289	0.90041
874.18598	0.90323
872.12907	0.90605
870.07216	0.90836
868.01525	0.91010
865.95835	0.91162
863.90144	0.91289
861.84453	0.91386
859.78762	0.91461
857.73071	0.91516
855.67380	0.91575
853.61690	0.91672
851.55999	0.91776
849.50308	0.91854
847.44617	0.91914
845.38926	0.91965
843.33236	0.92013
841.27545	0.92049
839.21854	0.92057
837.16163	0.92062
835.10472	0.92094
833.04781	0.92153
830.99091	0.92239
828.93400	0.92344
826.87709	0.92440
824.82018	0.92547
822.76327	0.92667
820.70637	0.92757
818.64946	0.92817
816.59255	0.92870
814.53564	0.92952
812.47873	0.93043
810.42182	0.93089
808.36492	0.93110
806.30801	0.93106
804.25110	0.93091
802.19419	0.93101
800.13728	0.93139
798.08038	0.93203
796.02347	0.93273
793.96656	0.93329
791.90965	0.93364
789.85274	0.93376
787.79583	0.93403
785.73893	0.93444
783.68202	0.93469
781.62511	0.93505
779.56820	0.93552
777.51129	0.93575
775.45439	0.93596
773.39748	0.93602
771.34057	0.93545
769.28366	0.93437
767.22675	0.93317
765.16984	0.93217
763.11294	0.93100
761.05603	0.92924
758.99912	0.92788
756.94221	0.92757
754.88530	0.92768
752.82839	0.92782
750.77149	0.92824
748.71458	0.92905
746.65767	0.92987
744.60076	0.93035
742.54385	0.93037
740.48695	0.93003
738.43004	0.92922
736.37313	0.92823
734.31622	0.92778
732.25931	0.92783
730.20240	0.92801
728.14550	0.92817
726.08859	0.92828
724.03168	0.92853
721.97477	0.92857
719.91786	0.92795
717.86096	0.92734
715.80405	0.92730
713.74714	0.92719
711.69023	0.92688
709.63332	0.92674
707.57641	0.92661
705.51951	0.92648
703.46260	0.92635
701.40569	0.92613
699.34878	0.92585
697.29187	0.92541
695.23497	0.92462
693.17806	0.92333
691.12115	0.92197
689.06424	0.92099
687.00733	0.91994
684.95042	0.91871
682.89352	0.91772
680.83661	0.91698
678.77970	0.91650
676.72279	0.91640
674.66588	0.91639
672.60898	0.91628
670.55207	0.91643
668.49516	0.91651
666.43825	0.91595
664.38134	0.91549
662.32443	0.91540
660.26753	0.91541
658.21062	0.91527
656.15371	0.91492
654.09680	0.91414
652.03989	0.91281
649.98299	0.91132
647.92608	0.91005
645.86917	0.90872
643.81226	0.90713
641.75535	0.90574
639.69844	0.90476
637.64154	0.90395
635.58463	0.90278
633.52772	0.90115
631.47081	0.89982
629.41390	0.89887
627.35700	0.89791
625.30009	0.89683
623.24318	0.89554
621.18627	0.89416
619.12936	0.89272
617.07245	0.89104
615.01555	0.88906
612.95864	0.88645
610.90173	0.88282
608.84482	0.87881
606.78791	0.87540
604.73101	0.87262
602.67410	0.87065
600.61719	0.87009
598.56028	0.87108
596.50337	0.87307
594.44646	0.87514
592.38956	0.87740
590.33265	0.88000
588.27574	0.88197
586.21883	0.88313
584.16192	0.88372
582.10502	0.88378
580.04811	0.88385
577.99120	0.88424
575.93429	0.88437
573.87738	0.88381
571.82047	0.88268
569.76357	0.88120
567.70666	0.87978
565.64975	0.87882
563.59284	0.87846
561.53593	0.87797
559.47903	0.87733
557.42212	0.87763
555.36521	0.87842
553.30830	0.87894
551.25139	0.87944
549.19448	0.87965
547.13758	0.87955
545.08067	0.87998
543.02376	0.88087
540.96685	0.88146
538.90994	0.88134
536.85304	0.88039
534.79613	0.87926
532.73922	0.87872
530.68231	0.87886
528.62540	0.87875
526.56849	0.87725
524.51159	0.87572
522.45468	0.87594
520.39777	0.87696
518.34086	0.87701
516.28395	0.87602
514.22705	0.87552
512.17014	0.87566
510.11323	0.87520
508.05632	0.87404
505.99941	0.87310
503.94250	0.87225
501.88560	0.87157
499.82869	0.87117
497.77178	0.87011
495.71487	0.86845
493.65796	0.86724
491.60106	0.86670
489.54415	0.86613
487.48724	0.86535
485.43033	0.86491
483.37342	0.86473
481.31651	0.86383
479.25961	0.86245
477.20270	0.86189
475.14579	0.86219
473.08888	0.86224
471.03197	0.86136
468.97507	0.86022
466.91816	0.85931
464.86125	0.85838
462.80434	0.85717
460.74743	0.85566
458.69052	0.85445
456.63362	0.85483
454.57671	0.85628
452.51980	0.85650
450.46289	0.85490
448.40598	0.85290
446.34908	0.85184
444.29217	0.85200
442.23526	0.85299
440.17835	0.85403
438.12144	0.85545
436.06453	0.85692
434.00763	0.85659
431.95072	0.85606
429.89381	0.85660
427.83690	0.85632
425.77999	0.85521
423.72309	0.85472
421.66618	0.85533
419.60927	0.85580
417.55236	0.85470
415.49545	0.85525
413.43854	0.85853
411.38164	0.86032
409.32473	0.85756
407.26782	0.85346
405.21091	0.85151
403.15400	0.85166
401.09710	0.85275
399.04019	0.85394
