3996.57260	0.98390
3994.51569	0.98409
3992.45878	0.98404
3990.40188	0.98366
3988.34497	0.98295
3986.28806	0.98293
3984.23115	0.98413
3982.17424	0.98522
3980.11733	0.98540
3978.06043	0.98514
3976.00352	0.98491
3973.94661	0.98452
3971.88970	0.98351
3969.83279	0.98278
3967.77589	0.98300
3965.71898	0.98331
3963.66207	0.98332
3961.60516	0.98326
3959.54825	0.98351
3957.49134	0.98409
3955.43444	0.98418
3953.37753	0.98369
3951.32062	0.98342
3949.26371	0.98319
3947.20680	0.98301
3945.14990	0.98349
3943.09299	0.98397
3941.03608	0.98382
3938.97917	0.98335
3936.92226	0.98331
3934.86535	0.98365
3932.80845	0.98337
3930.75154	0.98304
3928.69463	0.98368
3926.63772	0.98437
3924.58081	0.98405
3922.52391	0.98306
3920.46700	0.98206
3918.41009	0.98154
3916.35318	0.98211
3914.29627	0.98357
3912.23936	0.98470
3910.18246	0.98490
3908.12555	0.98503
3906.06864	0.98503
3904.01173	0.98423
3901.95482	0.98368
3899.89792	0.98373
3897.84101	0.98378
3895.78410	0.98368
3893.72719	0.98350
3891.67028	0.98336
3889.61337	0.98348
3887.55647	0.98375
3885.49956	0.98351
3883.44265	0.98290
3881.38574	0.98304
3879.32883	0.98378
3877.27193	0.98427
3875.21502	0.98438
3873.15811	0.98434
3871.10120	0.98469
3869.04429	0.98536
3866.98738	0.98574
3864.93048	0.98534
3862.87357	0.98416
3860.81666	0.98394
3858.75975	0.98487
3856.70284	0.98555
3854.64594	0.98553
3852.58903	0.98526
3850.53212	0.98455
3848.47521	0.98394
3846.41830	0.98413
3844.36139	0.98450
3842.30449	0.98456
3840.24758	0.98437
3838.19067	0.98368
3836.13376	0.98319
3834.07685	0.98386
3832.01995	0.98502
3829.96304	0.98523
3827.90613	0.98463
3825.84922	0.98389
3823.79231	0.98315
3821.73540	0.98253
3819.67850	0.98229
3817.62159	0.98281
3815.56468	0.98368
3813.50777	0.98414
3811.45086	0.98417
3809.39396	0.98398
3807.33705	0.98325
3805.28014	0.98250
3803.22323	0.98308
3801.16632	0.98391
3799.10941	0.98368
3797.05251	0.98369
3794.99560	0.98394
3792.93869	0.98372
3790.88178	0.98357
3788.82487	0.98361
3786.76796	0.98350
3784.71106	0.98404
3782.65415	0.98514
3780.59724	0.98517
3778.54033	0.98475
3776.48342	0.98536
3774.42652	0.98594
3772.36961	0.98568
3770.31270	0.98534
3768.25579	0.98565
3766.19888	0.98593
3764.14197	0.98562
3762.08507	0.98540
3760.02816	0.98576
3757.97125	0.98607
3755.91434	0.98558
3753.85743	0.98443
3751.80053	0.98300
3749.74362	0.98267
3747.68671	0.98413
3745.62980	0.98539
3743.57289	0.98536
3741.51598	0.98527
3739.45908	0.98502
3737.40217	0.98393
3735.34526	0.98328
3733.28835	0.98397
3731.23144	0.98486
3729.17454	0.98576
3727.11763	0.98637
3725.06072	0.98596
3723.00381	0.98490
3720.94690	0.98451
3718.88999	0.98486
3716.83309	0.98501
3714.77618	0.98475
3712.71927	0.98449
3710.66236	0.98400
3708.60545	0.98353
3706.54855	0.98402
3704.49164	0.98523
3702.43473	0.98620
3700.37782	0.98593
3698.32091	0.98463
3696.26400	0.98353
3694.20710	0.98350
3692.15019	0.98426
3690.09328	0.98494
3688.03637	0.98477
3685.97946	0.98438
3683.92256	0.98442
3681.86565	0.98481
3679.80874	0.98493
3677.75183	0.98429
3675.69492	0.98390
3673.63801	0.98394
3671.58111	0.98345
3669.52420	0.98264
3667.46729	0.98233
3665.41038	0.98282
3663.35347	0.98328
3661.29657	0.98334
3659.23966	0.98348
3657.18275	0.98371
3655.12584	0.98386
3653.06893	0.98373
3651.01202	0.98302
3648.95512	0.98261
3646.89821	0.98286
3644.84130	0.98253
3642.78439	0.98189
3640.72748	0.98128
3638.67058	0.98087
3636.61367	0.98076
3634.55676	0.98065
3632.49985	0.98078
3630.44294	0.98125
3628.38603	0.98120
3626.32913	0.98084
3624.27222	0.98056
3622.21531	0.98015
3620.15840	0.97952
3618.10149	0.97892
3616.04459	0.97887
3613.98768	0.97881
3611.93077	0.97882
3609.87386	0.97938
3607.81695	0.97921
3605.76004	0.97784
3603.70314	0.97721
3601.64623	0.97784
3599.58932	0.97846
3597.53241	0.97828
3595.47550	0.97804
3593.41860	0.97816
3591.36169	0.97782
3589.30478	0.97724
3587.24787	0.97768
3585.19096	0.97824
3583.13405	0.97794
3581.07715	0.97765
3579.02024	0.97759
3576.96333	0.97720
3574.90642	0.97627
3572.84951	0.97547
3570.79261	0.97532
3568.73570	0.97541
3566.67879	0.97582
3564.62188	0.97620
3562.56497	0.97583
3560.50806	0.97530
3558.45116	0.97484
3556.39425	0.97428
3554.33734	0.97388
3552.28043	0.97361
3550.22352	0.97298
3548.16662	0.97225
3546.10971	0.97204
3544.05280	0.97212
3541.99589	0.97211
3539.93898	0.97200
3537.88207	0.97160
3535.82517	0.97109
3533.76826	0.97121
3531.71135	0.97180
3529.65444	0.97174
3527.59753	0.97072
3525.54063	0.96961
3523.48372	0.96894
3521.42681	0.96875
3519.36990	0.96888
3517.31299	0.96876
3515.25608	0.96801
3513.19918	0.96732
3511.14227	0.96740
3509.08536	0.96759
3507.02845	0.96727
3504.97154	0.96739
3502.91464	0.96822
3500.85773	0.96842
3498.80082	0.96756
3496.74391	0.96703
3494.68700	0.96751
3492.63009	0.96807
3490.57319	0.96764
3488.51628	0.96636
3486.45937	0.96521
3484.40246	0.96489
3482.34555	0.96536
3480.28865	0.96599
3478.23174	0.96605
3476.17483	0.96564
3474.11792	0.96565
3472.06101	0.96641
3470.00410	0.96742
3467.94720	0.96796
3465.89029	0.96755
3463.83338	0.96685
3461.77647	0.96683
3459.71956	0.96725
3457.66266	0.96722
3455.60575	0.96689
3453.54884	0.96707
3451.49193	0.96762
3449.43502	0.96780
3447.37811	0.96754
3445.32121	0.96739
3443.26430	0.96757
3441.20739	0.96777
3439.15048	0.96809
3437.09357	0.96829
3435.03667	0.96764
3432.97976	0.96679
3430.92285	0.96709
3428.86594	0.96826
3426.80903	0.96922
3424.75212	0.96966
3422.69522	0.96953
3420.63831	0.96894
3418.58140	0.96853
3416.52449	0.96867
3414.46758	0.96924
3412.41068	0.96975
3410.35377	0.97000
3408.29686	0.97027
3406.23995	0.97063
3404.18304	0.97070
3402.12613	0.97053
3400.06923	0.97060
3398.01232	0.97095
3395.95541	0.97125
3393.89850	0.97143
3391.84159	0.97148
3389.78469	0.97158
3387.72778	0.97173
3385.67087	0.97177
3383.61396	0.97181
3381.55705	0.97175
3379.50014	0.97164
3377.44324	0.97180
3375.38633	0.97213
3373.32942	0.97265
3371.27251	0.97286
3369.21560	0.97243
3367.15870	0.97214
3365.10179	0.97201
3363.04488	0.97203
3360.98797	0.97275
3358.93106	0.97327
3356.87415	0.97277
3354.81725	0.97211
3352.76034	0.97203
3350.70343	0.97216
3348.64652	0.97211
3346.58961	0.97233
3344.53271	0.97312
3342.47580	0.97367
3340.41889	0.97364
3338.36198	0.97397
3336.30507	0.97479
3334.24816	0.97496
3332.19126	0.97470
3330.13435	0.97506
3328.07744	0.97547
3326.02053	0.97522
3323.96362	0.97492
3321.90672	0.97500
3319.84981	0.97510
3317.79290	0.97541
3315.73599	0.97608
3313.67908	0.97658
3311.62217	0.97659
3309.56527	0.97625
3307.50836	0.97593
3305.45145	0.97590
3303.39454	0.97598
3301.33763	0.97613
3299.28073	0.97661
3297.22382	0.97699
3295.16691	0.97688
3293.11000	0.97658
3291.05309	0.97638
3288.99618	0.97637
3286.93928	0.97631
3284.88237	0.97622
3282.82546	0.97663
3280.76855	0.97719
3278.71164	0.97709
3276.65474	0.97693
3274.59783	0.97707
3272.54092	0.97693
3270.48401	0.97689
3268.42710	0.97734
3266.37019	0.97747
3264.31329	0.97681
3262.25638	0.97647
3260.19947	0.97682
3258.14256	0.97695
3256.08565	0.97665
3254.02875	0.97641
3251.97184	0.97651
3249.91493	0.97667
3247.85802	0.97667
3245.80111	0.97680
3243.74420	0.97711
3241.68730	0.97753
3239.63039	0.97815
3237.57348	0.97881
3235.51657	0.97902
3233.45966	0.97861
3231.40276	0.97798
3229.34585	0.97783
3227.28894	0.97820
3225.23203	0.97865
3223.17512	0.97907
3221.11821	0.97949
3219.06131	0.97932
3217.00440	0.97866
3214.94749	0.97892
3212.89058	0.98000
3210.83367	0.98046
3208.77677	0.98023
3206.71986	0.97979
3204.66295	0.97934
3202.60604	0.97935
3200.54913	0.97968
3198.49222	0.97980
3196.43532	0.97946
3194.37841	0.97872
3192.32150	0.97843
3190.26459	0.97874
3188.20768	0.97931
3186.15078	0.98005
3184.09387	0.98027
3182.03696	0.98013
3179.98005	0.98019
3177.92314	0.98002
3175.86623	0.97974
3173.80933	0.97958
3171.75242	0.97942
3169.69551	0.97965
3167.63860	0.97980
3165.58169	0.97943
3163.52479	0.97928
3161.46788	0.97941
3159.41097	0.97957
3157.35406	0.98006
3155.29715	0.98052
3153.24024	0.98068
3151.18334	0.98095
3149.12643	0.98092
3147.06952	0.98034
3145.01261	0.98002
3142.95570	0.98046
3140.89880	0.98105
3138.84189	0.98082
3136.78498	0.98034
3134.72807	0.98073
3132.67116	0.98113
3130.61425	0.98069
3128.55735	0.98032
3126.50044	0.98045
3124.44353	0.98073
3122.38662	0.98097
3120.32971	0.98100
3118.27281	0.98083
3116.21590	0.98064
3114.15899	0.98044
3112.10208	0.98010
3110.04517	0.97994
3107.98826	0.98033
3105.93136	0.98072
3103.87445	0.98073
3101.81754	0.98089
3099.76063	0.98131
3097.70372	0.98176
3095.64682	0.98197
3093.58991	0.98154
3091.53300	0.98077
3089.47609	0.98034
3087.41918	0.98047
3085.36227	0.98109
3083.30537	0.98165
3081.24846	0.98152
3079.19155	0.98119
3077.13464	0.98144
3075.07773	0.98172
3073.02083	0.98158
3070.96392	0.98132
3068.90701	0.98110
3066.85010	0.98094
3064.79319	0.98101
3062.73628	0.98129
3060.67938	0.98142
3058.62247	0.98110
3056.56556	0.98050
3054.50865	0.98048
3052.45174	0.98112
3050.39484	0.98142
3048.33793	0.98127
3046.28102	0.98113
3044.22411	0.98129
3042.16720	0.98166
3040.11029	0.98145
3038.05339	0.98053
3035.99648	0.97991
3033.93957	0.97986
3031.88266	0.97972
3029.82575	0.97953
3027.76885	0.97947
3025.71194	0.97939
3023.65503	0.97931
3021.59812	0.97933
3019.54121	0.97938
3017.48430	0.97934
3015.42740	0.97938
3013.37049	0.97936
3011.31358	0.97897
3009.25667	0.97878
3007.19976	0.97919
3005.14286	0.97964
3003.08595	0.97980
3001.02904	0.97957
2998.97213	0.97911
2996.91522	0.97915
2994.85831	0.97928
2992.80141	0.97893
2990.74450	0.97878
2988.68759	0.97898
2986.63068	0.97905
2984.57377	0.97862
2982.51687	0.97790
2980.45996	0.97762
2978.40305	0.97785
2976.34614	0.97801
2974.28923	0.97779
2972.23232	0.97724
2970.17542	0.97656
2968.11851	0.97580
2966.06160	0.97526
2964.00469	0.97509
2961.94778	0.97480
2959.89088	0.97446
2957.83397	0.97440
2955.77706	0.97441
2953.72015	0.97435
2951.66324	0.97427
2949.60633	0.97423
2947.54943	0.97417
2945.49252	0.97384
2943.43561	0.97337
2941.37870	0.97326
2939.32179	0.97344
2937.26489	0.97362
2935.20798	0.97358
2933.15107	0.97341
2931.09416	0.97357
2929.03725	0.97396
2926.98034	0.97434
2924.92344	0.97471
2922.86653	0.97505
2920.80962	0.97537
2918.75271	0.97538
2916.69580	0.97500
2914.63890	0.97466
2912.58199	0.97453
2910.52508	0.97435
2908.46817	0.97405
2906.41126	0.97374
2904.35435	0.97349
2902.29745	0.97358
2900.24054	0.97418
2898.18363	0.97433
2896.12672	0.97380
2894.06981	0.97354
2892.01291	0.97380
2889.95600	0.97417
2887.89909	0.97421
2885.84218	0.97411
2883.78527	0.97427
2881.72836	0.97440
2879.67146	0.97425
2877.61455	0.97407
2875.55764	0.97402
2873.50073	0.97417
2871.44382	0.97454
2869.38692	0.97493
2867.33001	0.97524
2865.27310	0.97550
2863.21619	0.97578
2861.15928	0.97613
2859.10237	0.97645
2857.04547	0.97680
2854.98856	0.97733
2852.93165	0.97757
2850.87474	0.97746
2848.81783	0.97791
2846.76093	0.97884
2844.70402	0.97934
2842.64711	0.97926
2840.59020	0.97912
2838.53329	0.97926
2836.47638	0.97943
2834.41948	0.97955
2832.36257	0.98000
2830.30566	0.98050
2828.24875	0.98048
2826.19184	0.97999
2824.13494	0.97972
2822.07803	0.98005
2820.02112	0.98060
2817.96421	0.98083
2815.90730	0.98057
2813.85039	0.98018
2811.79349	0.98010
2809.73658	0.98005
2807.67967	0.97989
2805.62276	0.98003
2803.56585	0.98046
2801.50895	0.98060
2799.45204	0.98033
2797.39513	0.98034
2795.33822	0.98082
2793.28131	0.98110
2791.22440	0.98087
2789.16750	0.98061
2787.11059	0.98067
2785.05368	0.98086
2782.99677	0.98086
2780.93986	0.98078
2778.88296	0.98105
2776.82605	0.98141
2774.76914	0.98134
2772.71223	0.98111
2770.65532	0.98106
2768.59841	0.98106
2766.54151	0.98115
2764.48460	0.98138
2762.42769	0.98152
2760.37078	0.98164
2758.31387	0.98186
2756.25697	0.98184
2754.20006	0.98148
2752.14315	0.98124
2750.08624	0.98127
2748.02933	0.98120
2745.97242	0.98092
2743.91552	0.98068
2741.85861	0.98075
2739.80170	0.98093
2737.74479	0.98093
2735.68788	0.98089
2733.63098	0.98107
2731.57407	0.98131
2729.51716	0.98127
2727.46025	0.98127
2725.40334	0.98149
2723.34643	0.98148
2721.28953	0.98131
2719.23262	0.98122
2717.17571	0.98127
2715.11880	0.98156
2713.06189	0.98168
2711.00499	0.98121
2708.94808	0.98072
2706.89117	0.98056
2704.83426	0.98050
2702.77735	0.98072
2700.72044	0.98126
2698.66354	0.98156
2696.60663	0.98131
2694.54972	0.98076
2692.49281	0.98041
2690.43590	0.98064
2688.37900	0.98102
2686.32209	0.98106
2684.26518	0.98111
2682.20827	0.98131
2680.15136	0.98127
2678.09445	0.98124
2676.03755	0.98150
2673.98064	0.98172
2671.92373	0.98201
2669.86682	0.98231
2667.80991	0.98216
2665.75301	0.98180
2663.69610	0.98157
2661.63919	0.98142
2659.58228	0.98134
2657.52537	0.98134
2655.46846	0.98139
2653.41156	0.98142
2651.35465	0.98143
2649.29774	0.98133
2647.24083	0.98121
2645.18392	0.98118
2643.12702	0.98126
2641.07011	0.98151
2639.01320	0.98144
2636.95629	0.98081
2634.89938	0.98024
2632.84247	0.98035
2630.78557	0.98097
2628.72866	0.98162
2626.67175	0.98174
2624.61484	0.98136
2622.55793	0.98109
2620.50103	0.98120
2618.44412	0.98130
2616.38721	0.98094
2614.33030	0.98078
2612.27339	0.98134
2610.21648	0.98218
2608.15958	0.98268
2606.10267	0.98248
2604.04576	0.98182
2601.98885	0.98158
2599.93194	0.98193
2597.87504	0.98196
2595.81813	0.98158
2593.76122	0.98147
2591.70431	0.98160
2589.64740	0.98179
2587.59049	0.98217
2585.53359	0.98261
2583.47668	0.98290
2581.41977	0.98279
2579.36286	0.98237
2577.30595	0.98245
2575.24905	0.98317
2573.19214	0.98343
2571.13523	0.98305
2569.07832	0.98280
2567.02141	0.98277
2564.96450	0.98285
2562.90760	0.98248
2560.85069	0.98179
2558.79378	0.98186
2556.73687	0.98246
2554.67996	0.98277
2552.62306	0.98284
2550.56615	0.98284
2548.50924	0.98289
2546.45233	0.98310
2544.39542	0.98296
2542.33851	0.98237
2540.28161	0.98241
2538.22470	0.98298
2536.16779	0.98304
2534.11088	0.98322
2532.05397	0.98379
2529.99707	0.98394
2527.94016	0.98386
2525.88325	0.98376
2523.82634	0.98363
2521.76943	0.98347
2519.71252	0.98309
2517.65562	0.98286
2515.59871	0.98304
2513.54180	0.98309
2511.48489	0.98295
2509.42798	0.98296
2507.37108	0.98297
2505.31417	0.98281
2503.25726	0.98240
2501.20035	0.98177
2499.14344	0.98146
2497.08653	0.98181
2495.02963	0.98254
2492.97272	0.98326
2490.91581	0.98359
2488.85890	0.98329
2486.80199	0.98295
2484.74509	0.98327
2482.68818	0.98364
2480.63127	0.98358
2478.57436	0.98331
2476.51745	0.98310
2474.46054	0.98324
2472.40364	0.98372
2470.34673	0.98365
2468.28982	0.98276
2466.23291	0.98245
2464.17600	0.98305
2462.11910	0.98331
2460.06219	0.98322
2458.00528	0.98326
2455.94837	0.98327
2453.89146	0.98348
2451.83455	0.98392
2449.77765	0.98388
2447.72074	0.98349
2445.66383	0.98364
2443.60692	0.98395
2441.55001	0.98384
2439.49311	0.98374
2437.43620	0.98376
2435.37929	0.98363
2433.32238	0.98358
2431.26547	0.98340
2429.20856	0.98282
2427.15166	0.98281
2425.09475	0.98340
2423.03784	0.98352
2420.98093	0.98370
2418.92402	0.98413
2416.86712	0.98380
2414.81021	0.98322
2412.75330	0.98322
2410.69639	0.98331
2408.63948	0.98309
2406.58257	0.98297
2404.52567	0.98308
2402.46876	0.98311
2400.41185	0.98321
2398.35494	0.98360
2396.29803	0.98388
2394.24113	0.98390
2392.18422	0.98395
2390.12731	0.98380
2388.07040	0.98357
2386.01349	0.98377
2383.95658	0.98410
2381.89968	0.98398
2379.84277	0.98357
2377.78586	0.98326
2375.72895	0.98318
2373.67204	0.98344
2371.61514	0.98386
2369.55823	0.98392
2367.50132	0.98386
2365.44441	0.98433
2363.38750	0.98496
2361.33059	0.98444
2359.27369	0.98323
2357.21678	0.98288
2355.15987	0.98335
2353.10296	0.98357
2351.04605	0.98337
2348.98915	0.98372
2346.93224	0.98445
2344.87533	0.98414
2342.81842	0.98322
2340.76151	0.98315
2338.70460	0.98305
2336.64770	0.98250
2334.59079	0.98250
2332.53388	0.98319
2330.47697	0.98357
2328.42006	0.98366
2326.36316	0.98370
2324.30625	0.98307
2322.24934	0.98199
2320.19243	0.98139
2318.13552	0.98153
2316.07861	0.98210
2314.02171	0.98278
2311.96480	0.98310
2309.90789	0.98305
2307.85098	0.98288
2305.79407	0.98290
2303.73717	0.98319
2301.68026	0.98326
2299.62335	0.98328
2297.56644	0.98340
2295.50953	0.98329
2293.45262	0.98316
2291.39572	0.98314
2289.33881	0.98276
2287.28190	0.98217
2285.22499	0.98232
2283.16808	0.98330
2281.11117	0.98439
2279.05427	0.98466
2276.99736	0.98399
2274.94045	0.98321
2272.88354	0.98263
2270.82663	0.98272
2268.76973	0.98383
2266.71282	0.98479
2264.65591	0.98454
2262.59900	0.98408
2260.54209	0.98425
2258.48518	0.98483
2256.42828	0.98548
2254.37137	0.98519
2252.31446	0.98419
2250.25755	0.98370
2248.20064	0.98354
2246.14374	0.98367
2244.08683	0.98417
2242.02992	0.98384
2239.97301	0.98277
2237.91610	0.98218
2235.85919	0.98313
2233.80229	0.98538
2231.74538	0.98636
2229.68847	0.98541
2227.63156	0.98399
2225.57465	0.98302
2223.51775	0.98332
2221.46084	0.98440
2219.40393	0.98542
2217.34702	0.98532
2215.29011	0.98377
2213.23320	0.98302
2211.17630	0.98457
2209.11939	0.98624
2207.06248	0.98559
2205.00557	0.98460
2202.94866	0.98458
2200.89176	0.98427
2198.83485	0.98403
2196.77794	0.98473
2194.72103	0.98575
2192.66412	0.98545
2190.60721	0.98410
2188.55031	0.98375
2186.49340	0.98442
2184.43649	0.98481
2182.37958	0.98511
2180.32267	0.98495
2178.26577	0.98464
2176.20886	0.98603
2174.15195	0.98751
2172.09504	0.98706
2170.03813	0.98579
2167.98122	0.98453
2165.92432	0.98343
2163.86741	0.98323
2161.81050	0.98350
2159.75359	0.98490
2157.69668	0.98847
2155.63978	0.99008
2153.58287	0.98751
2151.52596	0.98574
2149.46905	0.98785
2147.41214	0.98924
2145.35523	0.98736
2143.29833	0.98638
2141.24142	0.98788
2139.18451	0.98927
2137.12760	0.98893
2135.07069	0.98714
2133.01379	0.98545
2130.95688	0.98488
2128.89997	0.98475
2126.84306	0.98442
2124.78615	0.98345
2122.72924	0.98209
2120.67234	0.98205
2118.61543	0.98282
2116.55852	0.98267
2114.50161	0.98259
2112.44470	0.98264
2110.38780	0.98220
2108.33089	0.98200
2106.27398	0.98234
2104.21707	0.98358
2102.16016	0.98490
2100.10325	0.98470
2098.04635	0.98423
2095.98944	0.98493
2093.93253	0.98518
2091.87562	0.98470
2089.81871	0.98440
2087.76181	0.98358
2085.70490	0.98264
2083.64799	0.98239
2081.59108	0.98287
2079.53417	0.98379
2077.47726	0.98435
2075.42036	0.98435
2073.36345	0.98467
2071.30654	0.98532
2069.24963	0.98567
2067.19272	0.98589
2065.13582	0.98591
2063.07891	0.98606
2061.02200	0.98704
2058.96509	0.98772
2056.90818	0.98647
2054.85127	0.98449
2052.79437	0.98395
2050.73746	0.98433
2048.68055	0.98473
2046.62364	0.98560
2044.56673	0.98632
2042.50983	0.98599
2040.45292	0.98632
2038.39601	0.98816
2036.33910	0.98893
2034.28219	0.98820
2032.22528	0.98823
2030.16838	0.98835
2028.11147	0.98805
2026.05456	0.98821
2023.99765	0.98719
2021.94074	0.98505
2019.88384	0.98443
2017.82693	0.98640
2015.77002	0.98809
2013.71311	0.98671
2011.65620	0.98430
2009.59929	0.98259
2007.54239	0.98214
2005.48548	0.98259
2003.42857	0.98258
2001.37166	0.98329
1999.31475	0.98472
1997.25785	0.98537
1995.20094	0.98581
1993.14403	0.98634
1991.08712	0.98610
1989.03021	0.98485
1986.97330	0.98373
1984.91640	0.98351
1982.85949	0.98259
1980.80258	0.98169
1978.74567	0.98355
1976.68876	0.98639
1974.63186	0.98794
1972.57495	0.98818
1970.51804	0.98680
1968.46113	0.98565
1966.40422	0.98626
1964.34731	0.98743
1962.29041	0.98816
1960.23350	0.98825
1958.17659	0.98764
1956.11968	0.98734
1954.06277	0.98782
1952.00587	0.98829
1949.94896	0.98870
1947.89205	0.98882
1945.83514	0.98845
1943.77823	0.98849
1941.72132	0.98810
1939.66442	0.98675
1937.60751	0.98611
1935.55060	0.98655
1933.49369	0.98716
1931.43678	0.98744
1929.37988	0.98767
1927.32297	0.98720
1925.26606	0.98632
1923.20915	0.98666
1921.15224	0.98749
1919.09533	0.98726
1917.03843	0.98632
1914.98152	0.98530
1912.92461	0.98520
1910.86770	0.98669
1908.81079	0.98788
1906.75389	0.98779
1904.69698	0.98777
1902.64007	0.98780
1900.58316	0.98756
1898.52625	0.98766
1896.46934	0.98756
1894.41244	0.98703
1892.35553	0.98727
1890.29862	0.98750
1888.24171	0.98666
1886.18480	0.98584
1884.12790	0.98582
1882.07099	0.98649
1880.01408	0.98732
1877.95717	0.98751
1875.90026	0.98723
1873.84335	0.98720
1871.78645	0.98752
1869.72954	0.98798
1867.67263	0.98837
1865.61572	0.98858
1863.55881	0.98839
1861.50191	0.98804
1859.44500	0.98791
1857.38809	0.98777
1855.33118	0.98802
1853.27427	0.98919
1851.21736	0.99000
1849.16046	0.98954
1847.10355	0.98863
1845.04664	0.98834
1842.98973	0.98843
1840.93282	0.98815
1838.87592	0.98793
1836.81901	0.98765
1834.76210	0.98737
1832.70519	0.98766
1830.64828	0.98781
1828.59137	0.98730
1826.53447	0.98721
1824.47756	0.98743
1822.42065	0.98750
1820.36374	0.98730
1818.30683	0.98666
1816.24993	0.98634
1814.19302	0.98661
1812.13611	0.98679
1810.07920	0.98679
1808.02229	0.98651
1805.96538	0.98597
1803.90848	0.98601
1801.85157	0.98631
1799.79466	0.98619
1797.73775	0.98595
1795.68084	0.98574
1793.62394	0.98531
1791.56703	0.98456
1789.51012	0.98403
1787.45321	0.98360
1785.39630	0.98282
1783.33939	0.98163
1781.28249	0.98032
1779.22558	0.97879
1777.16867	0.97724
1775.11176	0.97552
1773.05485	0.97214
1770.99795	0.96664
1768.94104	0.96021
1766.88413	0.95264
1764.82722	0.94468
1762.77031	0.93547
1760.71340	0.92410
1758.65650	0.91319
1756.59959	0.90259
1754.54268	0.89355
1752.48577	0.88611
1750.42886	0.87755
1748.37196	0.86869
1746.31505	0.86165
1744.25814	0.85594
1742.20123	0.85110
1740.14432	0.84651
1738.08741	0.84272
1736.03051	0.84077
1733.97360	0.83988
1731.91669	0.84035
1729.85978	0.84200
1727.80287	0.84458
1725.74597	0.84843
1723.68906	0.85345
1721.63215	0.85892
1719.57524	0.86514
1717.51833	0.87340
1715.46142	0.88255
1713.40452	0.89103
1711.34761	0.89938
1709.29070	0.90733
1707.23379	0.91462
1705.17688	0.92171
1703.11998	0.92806
1701.06307	0.93403
1699.00616	0.93975
1696.94925	0.94418
1694.89234	0.94799
1692.83543	0.95069
1690.77853	0.95257
1688.72162	0.95419
1686.66471	0.95572
1684.60780	0.95771
1682.55089	0.95962
1680.49399	0.96064
1678.43708	0.96126
1676.38017	0.96189
1674.32326	0.96286
1672.26635	0.96389
1670.20944	0.96474
1668.15254	0.96527
1666.09563	0.96552
1664.03872	0.96565
1661.98181	0.96551
1659.92490	0.96536
1657.86800	0.96549
1655.81109	0.96572
1653.75418	0.96549
1651.69727	0.96476
1649.64036	0.96464
1647.58345	0.96464
1645.52655	0.96451
1643.46964	0.96467
1641.41273	0.96480
1639.35582	0.96474
1637.29891	0.96481
1635.24201	0.96516
1633.18510	0.96551
1631.12819	0.96566
1629.07128	0.96583
1627.01437	0.96643
1624.95746	0.96738
1622.90056	0.96826
1620.84365	0.96889
1618.78674	0.96933
1616.72983	0.96961
1614.67292	0.97016
1612.61602	0.97123
1610.55911	0.97226
1608.50220	0.97292
1606.44529	0.97343
1604.38838	0.97398
1602.33147	0.97467
1600.27457	0.97550
1598.21766	0.97615
1596.16075	0.97646
1594.10384	0.97658
1592.04693	0.97663
1589.99003	0.97677
1587.93312	0.97712
1585.87621	0.97757
1583.81930	0.97789
1581.76239	0.97801
1579.70548	0.97810
1577.64858	0.97840
1575.59167	0.97869
1573.53476	0.97866
1571.47785	0.97868
1569.42094	0.97895
1567.36404	0.97937
1565.30713	0.97959
1563.25022	0.97959
1561.19331	0.97964
1559.13640	0.97940
1557.07949	0.97894
1555.02259	0.97900
1552.96568	0.97928
1550.90877	0.97966
1548.85186	0.97992
1546.79495	0.98002
1544.73805	0.97999
1542.68114	0.97971
1540.62423	0.97941
1538.56732	0.97957
1536.51041	0.97999
1534.45350	0.98037
1532.39660	0.98067
1530.33969	0.98089
1528.28278	0.98100
1526.22587	0.98081
1524.16896	0.98064
1522.11206	0.98069
1520.05515	0.98052
1517.99824	0.98047
1515.94133	0.98081
1513.88442	0.98121
1511.82751	0.98131
1509.77061	0.98104
1507.71370	0.98074
1505.65679	0.98079
1503.59988	0.98108
1501.54297	0.98132
1499.48607	0.98134
1497.42916	0.98125
1495.37225	0.98142
1493.31534	0.98148
1491.25843	0.98127
1489.20152	0.98124
1487.14462	0.98134
1485.08771	0.98110
1483.03080	0.98070
1480.97389	0.98040
1478.91698	0.98008
1476.86008	0.97949
1474.80317	0.97871
1472.74626	0.97769
1470.68935	0.97635
1468.63244	0.97527
1466.57553	0.97439
1464.51863	0.97320
1462.46172	0.97174
1460.40481	0.97062
1458.34790	0.96959
1456.29099	0.96774
1454.23409	0.96598
1452.17718	0.96484
1450.12027	0.96378
1448.06336	0.96262
1446.00645	0.96131
1443.94954	0.95976
1441.89264	0.95836
1439.83573	0.95739
1437.77882	0.95632
1435.72191	0.95479
1433.66500	0.95383
1431.60810	0.95371
1429.55119	0.95402
1427.49428	0.95465
1425.43737	0.95566
1423.38046	0.95684
1421.32355	0.95793
1419.26665	0.95921
1417.20974	0.96043
1415.15283	0.96120
1413.09592	0.96189
1411.03901	0.96258
1408.98211	0.96309
1406.92520	0.96343
1404.86829	0.96358
1402.81138	0.96362
1400.75447	0.96351
1398.69756	0.96286
1396.64066	0.96124
1394.58375	0.95834
1392.52684	0.95482
1390.46993	0.95120
1388.41302	0.94664
1386.35612	0.94096
1384.29921	0.93528
1382.24230	0.92968
1380.18539	0.92369
1378.12848	0.91761
1376.07157	0.91177
1374.01467	0.90588
1371.95776	0.90068
1369.90085	0.89707
1367.84394	0.89525
1365.78703	0.89609
1363.73013	0.90047
1361.67322	0.90891
1359.61631	0.91914
1357.55940	0.92894
1355.50249	0.93782
1353.44558	0.94513
1351.38868	0.95053
1349.33177	0.95440
1347.27486	0.95705
1345.21795	0.95890
1343.16104	0.96032
1341.10414	0.96151
1339.04723	0.96254
1336.99032	0.96327
1334.93341	0.96358
1332.87650	0.96366
1330.81959	0.96371
1328.76269	0.96364
1326.70578	0.96332
1324.64887	0.96286
1322.59196	0.96264
1320.53505	0.96255
1318.47815	0.96240
1316.42124	0.96239
1314.36433	0.96254
1312.30742	0.96291
1310.25051	0.96324
1308.19360	0.96330
1306.13670	0.96335
1304.07979	0.96339
1302.02288	0.96329
1299.96597	0.96308
1297.90906	0.96258
1295.85216	0.96175
1293.79525	0.96061
1291.73834	0.95893
1289.68143	0.95687
1287.62452	0.95467
1285.56761	0.95232
1283.51071	0.94996
1281.45380	0.94732
1279.39689	0.94415
1277.33998	0.94069
1275.28307	0.93679
1273.22617	0.93223
1271.16926	0.92752
1269.11235	0.92294
1267.05544	0.91805
1264.99853	0.91287
1262.94162	0.90749
1260.88472	0.90155
1258.82781	0.89514
1256.77090	0.88845
1254.71399	0.88154
1252.65708	0.87464
1250.60018	0.86772
1248.54327	0.86051
1246.48636	0.85318
1244.42945	0.84581
1242.37254	0.83808
1240.31563	0.83030
1238.25873	0.82291
1236.20182	0.81585
1234.14491	0.80906
1232.08800	0.80273
1230.03109	0.79729
1227.97419	0.79280
1225.91728	0.78891
1223.86037	0.78560
1221.80346	0.78328
1219.74655	0.78234
1217.68964	0.78271
1215.63274	0.78425
1213.57583	0.78725
1211.51892	0.79220
1209.46201	0.79925
1207.40510	0.80846
1205.34820	0.81991
1203.29129	0.83316
1201.23438	0.84712
1199.17747	0.86080
1197.12056	0.87374
1195.06365	0.88532
1193.00675	0.89503
1190.94984	0.90290
1188.89293	0.90863
1186.83602	0.91224
1184.77911	0.91453
1182.72221	0.91570
1180.66530	0.91562
1178.60839	0.91463
1176.55148	0.91316
1174.49457	0.91146
1172.43766	0.90961
1170.38076	0.90776
1168.32385	0.90621
1166.26694	0.90506
1164.21003	0.90427
1162.15312	0.90415
1160.09622	0.90502
1158.03931	0.90665
1155.98240	0.90863
1153.92549	0.91046
1151.86858	0.91230
1149.81167	0.91438
1147.75477	0.91621
1145.69786	0.91749
1143.64095	0.91796
1141.58404	0.91737
1139.52713	0.91626
1137.47023	0.91502
1135.41332	0.91357
1133.35641	0.91173
1131.29950	0.90939
1129.24259	0.90673
1127.18568	0.90421
1125.12878	0.90234
1123.07187	0.90121
1121.01496	0.90035
1118.95805	0.89958
1116.90114	0.89900
1114.84424	0.89862
1112.78733	0.89850
1110.73042	0.89849
1108.67351	0.89811
1106.61660	0.89724
1104.55969	0.89617
1102.50279	0.89483
1100.44588	0.89284
1098.38897	0.89029
1096.33206	0.88759
1094.27515	0.88503
1092.21825	0.88216
1090.16134	0.87863
1088.10443	0.87494
1086.04752	0.87121
1083.99061	0.86688
1081.93370	0.86170
1079.87680	0.85642
1077.81989	0.85181
1075.76298	0.84758
1073.70607	0.84338
1071.64916	0.83939
1069.59226	0.83542
1067.53535	0.83131
1065.47844	0.82737
1063.42153	0.82366
1061.36462	0.81971
1059.30771	0.81504
1057.25081	0.80988
1055.19390	0.80500
1053.13699	0.80059
1051.08008	0.79617
1049.02317	0.79157
1046.96627	0.78700
1044.90936	0.78248
1042.85245	0.77806
1040.79554	0.77384
1038.73863	0.76979
1036.68172	0.76611
1034.62482	0.76280
1032.56791	0.75954
1030.51100	0.75701
1028.45409	0.75610
1026.39718	0.75683
1024.34028	0.75904
1022.28337	0.76223
1020.22646	0.76630
1018.16955	0.77156
1016.11264	0.77731
1014.05573	0.78288
1011.99883	0.78871
1009.94192	0.79496
1007.88501	0.80108
1005.82810	0.80697
1003.77119	0.81255
1001.71429	0.81751
999.65738	0.82202
997.60047	0.82673
995.54356	0.83168
993.48665	0.83611
991.42974	0.83979
989.37284	0.84302
987.31593	0.84620
985.25902	0.84953
983.20211	0.85264
981.14520	0.85559
979.08830	0.85887
977.03139	0.86239
974.97448	0.86622
972.91757	0.87058
970.86066	0.87521
968.80375	0.87966
966.74685	0.88371
964.68994	0.88730
962.63303	0.88995
960.57612	0.89149
958.51921	0.89310
956.46231	0.89543
954.40540	0.89767
952.34849	0.89923
950.29158	0.90049
948.23467	0.90184
946.17776	0.90331
944.12086	0.90513
942.06395	0.90719
940.00704	0.90902
937.95013	0.91025
935.89322	0.91101
933.83632	0.91163
931.77941	0.91205
929.72250	0.91213
927.66559	0.91178
925.60868	0.91075
923.55177	0.90905
921.49487	0.90720
919.43796	0.90551
917.38105	0.90419
915.32414	0.90313
913.26723	0.90201
911.21033	0.90107
909.15342	0.90020
907.09651	0.89898
905.03960	0.89759
902.98269	0.89666
900.92578	0.89664
898.86888	0.89749
896.81197	0.89910
894.75506	0.90123
892.69815	0.90346
890.64124	0.90545
888.58434	0.90738
886.52743	0.90947
884.47052	0.91117
882.41361	0.91258
880.35670	0.91446
878.29979	0.91632
876.24289	0.91812
874.18598	0.92083
872.12907	0.92417
870.07216	0.92698
868.01525	0.92924
865.95835	0.93116
863.90144	0.93272
861.84453	0.93427
859.78762	0.93590
857.73071	0.93747
855.67380	0.93843
853.61690	0.93883
851.55999	0.93927
849.50308	0.93962
847.44617	0.93929
845.38926	0.93829
843.33236	0.93705
841.27545	0.93599
839.21854	0.93584
837.16163	0.93632
835.10472	0.93691
833.04781	0.93810
830.99091	0.93979
828.93400	0.94141
826.87709	0.94291
824.82018	0.94432
822.76327	0.94560
820.70637	0.94666
818.64946	0.94738
816.59255	0.94793
814.53564	0.94809
812.47873	0.94806
810.42182	0.94827
808.36492	0.94836
806.30801	0.94863
804.25110	0.94939
802.19419	0.95006
800.13728	0.95053
798.08038	0.95106
796.02347	0.95143
793.96656	0.95183
791.90965	0.95260
789.85274	0.95297
787.79583	0.95298
785.73893	0.95362
783.68202	0.95364
781.62511	0.95240
779.56820	0.95167
777.51129	0.95202
775.45439	0.95261
773.39748	0.95275
771.34057	0.95247
769.28366	0.95255
767.22675	0.95324
765.16984	0.95383
763.11294	0.95394
761.05603	0.95389
758.99912	0.95436
756.94221	0.95496
754.88530	0.95500
752.82839	0.95507
750.77149	0.95533
748.71458	0.95507
746.65767	0.95470
744.60076	0.95488
742.54385	0.95505
740.48695	0.95504
738.43004	0.95506
736.37313	0.95456
734.31622	0.95361
732.25931	0.95291
730.20240	0.95223
728.14550	0.95134
726.08859	0.95064
724.03168	0.95001
721.97477	0.94955
719.91786	0.94923
717.86096	0.94877
715.80405	0.94858
713.74714	0.94849
711.69023	0.94815
709.63332	0.94776
707.57641	0.94733
705.51951	0.94715
703.46260	0.94705
701.40569	0.94635
699.34878	0.94541
697.29187	0.94448
695.23497	0.94358
693.17806	0.94308
691.12115	0.94263
689.06424	0.94171
687.00733	0.94079
684.95042	0.94052
682.89352	0.94053
680.83661	0.94036
678.77970	0.93994
676.72279	0.93970
674.66588	0.94012
672.60898	0.94040
670.55207	0.93969
668.49516	0.93912
666.43825	0.93957
664.38134	0.93982
662.32443	0.93999
660.26753	0.93944
658.21062	0.93790
656.15371	0.93640
654.09680	0.93527
652.03989	0.93447
649.98299	0.93360
647.92608	0.93236
645.86917	0.93142
643.81226	0.93066
641.75535	0.92936
639.69844	0.92807
637.64154	0.92694
635.58463	0.92511
633.52772	0.92329
631.47081	0.92241
629.41390	0.92214
627.35700	0.92168
625.30009	0.92039
623.24318	0.91834
621.18627	0.91634
619.12936	0.91535
617.07245	0.91509
615.01555	0.91350
612.95864	0.90965
610.90173	0.90455
608.84482	0.89893
606.78791	0.89321
604.73101	0.88819
602.67410	0.88555
600.61719	0.88649
598.56028	0.88930
596.50337	0.89190
594.44646	0.89481
592.38956	0.89872
590.33265	0.90282
588.27574	0.90635
586.21883	0.90915
584.16192	0.91099
582.10502	0.91253
580.04811	0.91408
577.99120	0.91537
575.93429	0.91651
573.87738	0.91705
571.82047	0.91612
569.76357	0.91408
567.70666	0.91297
565.64975	0.91336
563.59284	0.91346
561.53593	0.91183
559.47903	0.90962
557.42212	0.90879
555.36521	0.90911
553.30830	0.90983
551.25139	0.91049
549.19448	0.91078
547.13758	0.91126
545.08067	0.91226
543.02376	0.91368
540.96685	0.91475
538.90994	0.91487
536.85304	0.91498
534.79613	0.91466
532.73922	0.91299
530.68231	0.91239
528.62540	0.91363
526.56849	0.91467
524.51159	0.91443
522.45468	0.91305
520.39777	0.91109
518.34086	0.90968
516.28395	0.90940
514.22705	0.90928
512.17014	0.90904
510.11323	0.90843
508.05632	0.90651
505.99941	0.90446
503.94250	0.90359
501.88560	0.90256
499.82869	0.90068
497.77178	0.89912
495.71487	0.89824
493.65796	0.89749
491.60106	0.89586
489.54415	0.89493
487.48724	0.89584
485.43033	0.89612
483.37342	0.89551
481.31651	0.89500
479.25961	0.89365
477.20270	0.89168
475.14579	0.88993
473.08888	0.88823
471.03197	0.88782
468.97507	0.88921
466.91816	0.89007
464.86125	0.88898
462.80434	0.88642
460.74743	0.88345
458.69052	0.88170
456.63362	0.88203
454.57671	0.88250
452.51980	0.88242
450.46289	0.88187
448.40598	0.88110
446.34908	0.88188
444.29217	0.88264
442.23526	0.88113
440.17835	0.88020
438.12144	0.88119
436.06453	0.88177
434.00763	0.88316
431.95072	0.88680
429.89381	0.88873
427.83690	0.88648
425.77999	0.88253
423.72309	0.88064
421.66618	0.88093
419.60927	0.87999
417.55236	0.87877
415.49545	0.88220
413.43854	0.88735
411.38164	0.88859
409.32473	0.88824
407.26782	0.89026
405.21091	0.89115
403.15400	0.89085
401.09710	0.89049
399.04019	0.88700
