3996.56942	0.99086
3994.51251	0.99101
3992.45560	0.99085
3990.39870	0.99087
3988.34179	0.99125
3986.28488	0.99152
3984.22798	0.99158
3982.17107	0.99160
3980.11417	0.99191
3978.05726	0.99239
3976.00035	0.99213
3973.94345	0.99113
3971.88654	0.99037
3969.82963	0.99032
3967.77273	0.99072
3965.71582	0.99089
3963.65891	0.99091
3961.60201	0.99104
3959.54510	0.99085
3957.48819	0.99045
3955.43129	0.99050
3953.37438	0.99069
3951.31747	0.99055
3949.26057	0.99054
3947.20366	0.99102
3945.14675	0.99148
3943.08985	0.99139
3941.03294	0.99135
3938.97603	0.99179
3936.91913	0.99210
3934.86222	0.99201
3932.80531	0.99153
3930.74841	0.99110
3928.69150	0.99146
3926.63459	0.99200
3924.57769	0.99202
3922.52078	0.99177
3920.46388	0.99182
3918.40697	0.99227
3916.35006	0.99231
3914.29316	0.99153
3912.23625	0.99093
3910.17934	0.99113
3908.12244	0.99162
3906.06553	0.99164
3904.00862	0.99116
3901.95172	0.99078
3899.89481	0.99084
3897.83790	0.99127
3895.78100	0.99180
3893.72409	0.99194
3891.66718	0.99147
3889.61028	0.99144
3887.55337	0.99201
3885.49646	0.99202
3883.43956	0.99162
3881.38265	0.99167
3879.32574	0.99197
3877.26884	0.99176
3875.21193	0.99110
3873.15502	0.99074
3871.09812	0.99100
3869.04121	0.99183
3866.98431	0.99237
3864.92740	0.99223
3862.87049	0.99228
3860.81359	0.99253
3858.75668	0.99207
3856.69977	0.99116
3854.64287	0.99085
3852.58596	0.99152
3850.52905	0.99186
3848.47215	0.99192
3846.41524	0.99208
3844.35833	0.99200
3842.30143	0.99152
3840.24452	0.99101
3838.18761	0.99121
3836.13071	0.99175
3834.07380	0.99165
3832.01689	0.99162
3829.95999	0.99212
3827.90308	0.99243
3825.84617	0.99214
3823.78927	0.99200
3821.73236	0.99272
3819.67545	0.99319
3817.61855	0.99258
3815.56164	0.99195
3813.50473	0.99157
3811.44783	0.99122
3809.39092	0.99086
3807.33402	0.99057
3805.27711	0.99074
3803.22020	0.99111
3801.16330	0.99127
3799.10639	0.99086
3797.04948	0.99045
3794.99258	0.99076
3792.93567	0.99123
3790.87876	0.99133
3788.82186	0.99126
3786.76495	0.99149
3784.70804	0.99168
3782.65114	0.99138
3780.59423	0.99161
3778.53732	0.99244
3776.48042	0.99238
3774.42351	0.99167
3772.36660	0.99147
3770.30970	0.99196
3768.25279	0.99241
3766.19588	0.99246
3764.13898	0.99223
3762.08207	0.99175
3760.02516	0.99142
3757.96826	0.99154
3755.91135	0.99151
3753.85445	0.99110
3751.79754	0.99057
3749.74063	0.99008
3747.68373	0.98981
3745.62682	0.98977
3743.56991	0.99032
3741.51301	0.99105
3739.45610	0.99121
3737.39919	0.99091
3735.34229	0.99160
3733.28538	0.99309
3731.22847	0.99225
3729.17157	0.99042
3727.11466	0.98995
3725.05775	0.99040
3723.00085	0.99062
3720.94394	0.99079
3718.88703	0.99125
3716.83013	0.99182
3714.77322	0.99218
3712.71631	0.99234
3710.65941	0.99226
3708.60250	0.99160
3706.54559	0.99119
3704.48869	0.99139
3702.43178	0.99173
3700.37487	0.99211
3698.31797	0.99251
3696.26106	0.99301
3694.20416	0.99338
3692.14725	0.99285
3690.09034	0.99165
3688.03344	0.99109
3685.97653	0.99129
3683.91962	0.99165
3681.86272	0.99178
3679.80581	0.99188
3677.74890	0.99212
3675.69200	0.99147
3673.63509	0.99018
3671.57818	0.99012
3669.52128	0.99137
3667.46437	0.99205
3665.40746	0.99180
3663.35056	0.99166
3661.29365	0.99178
3659.23674	0.99150
3657.17984	0.99032
3655.12293	0.98933
3653.06602	0.98919
3651.00912	0.98890
3648.95221	0.98826
3646.89530	0.98829
3644.83840	0.98856
3642.78149	0.98839
3640.72459	0.98822
3638.66768	0.98862
3636.61077	0.98924
3634.55387	0.98946
3632.49696	0.98933
3630.44005	0.98889
3628.38315	0.98801
3626.32624	0.98739
3624.26933	0.98702
3622.21243	0.98659
3620.15552	0.98621
3618.09861	0.98619
3616.04171	0.98636
3613.98480	0.98602
3611.92789	0.98514
3609.87099	0.98469
3607.81408	0.98508
3605.75717	0.98535
3603.70027	0.98512
3601.64336	0.98498
3599.58645	0.98508
3597.52955	0.98498
3595.47264	0.98467
3593.41573	0.98410
3591.35883	0.98310
3589.30192	0.98228
3587.24501	0.98223
3585.18811	0.98232
3583.13120	0.98225
3581.07430	0.98251
3579.01739	0.98267
3576.96048	0.98230
3574.90358	0.98173
3572.84667	0.98095
3570.78976	0.98011
3568.73286	0.97922
3566.67595	0.97852
3564.61904	0.97860
3562.56214	0.97856
3560.50523	0.97841
3558.44832	0.97892
3556.39142	0.97913
3554.33451	0.97822
3552.27760	0.97731
3550.22070	0.97680
3548.16379	0.97622
3546.10688	0.97582
3544.04998	0.97570
3541.99307	0.97529
3539.93616	0.97461
3537.87926	0.97395
3535.82235	0.97338
3533.76544	0.97311
3531.70854	0.97280
3529.65163	0.97243
3527.59473	0.97226
3525.53782	0.97170
3523.48091	0.97070
3521.42401	0.96996
3519.36710	0.96967
3517.31019	0.96951
3515.25329	0.96949
3513.19638	0.96956
3511.13947	0.96935
3509.08257	0.96881
3507.02566	0.96834
3504.96875	0.96807
3502.91185	0.96758
3500.85494	0.96696
3498.79803	0.96664
3496.74113	0.96683
3494.68422	0.96708
3492.62731	0.96672
3490.57041	0.96591
3488.51350	0.96524
3486.45659	0.96506
3484.39969	0.96532
3482.34278	0.96572
3480.28587	0.96597
3478.22897	0.96565
3476.17206	0.96456
3474.11515	0.96335
3472.05825	0.96282
3470.00134	0.96289
3467.94444	0.96291
3465.88753	0.96241
3463.83062	0.96154
3461.77372	0.96081
3459.71681	0.96083
3457.65990	0.96141
3455.60300	0.96170
3453.54609	0.96137
3451.48918	0.96112
3449.43228	0.96147
3447.37537	0.96161
3445.31846	0.96116
3443.26156	0.96065
3441.20465	0.96017
3439.14774	0.95974
3437.09084	0.95987
3435.03393	0.96084
3432.97702	0.96158
3430.92012	0.96129
3428.86321	0.96107
3426.80630	0.96145
3424.74940	0.96124
3422.69249	0.96028
3420.63558	0.95983
3418.57868	0.96029
3416.52177	0.96089
3414.46487	0.96104
3412.40796	0.96080
3410.35105	0.96041
3408.29415	0.96024
3406.23724	0.96054
3404.18033	0.96107
3402.12343	0.96163
3400.06652	0.96197
3398.00961	0.96150
3395.95271	0.96086
3393.89580	0.96112
3391.83889	0.96156
3389.78199	0.96114
3387.72508	0.96062
3385.66817	0.96085
3383.61127	0.96129
3381.55436	0.96157
3379.49745	0.96198
3377.44055	0.96230
3375.38364	0.96189
3373.32673	0.96091
3371.26983	0.96014
3369.21292	0.96015
3367.15601	0.96083
3365.09911	0.96168
3363.04220	0.96232
3360.98530	0.96238
3358.92839	0.96231
3356.87148	0.96251
3354.81458	0.96260
3352.75767	0.96262
3350.70076	0.96315
3348.64386	0.96399
3346.58695	0.96425
3344.53004	0.96385
3342.47314	0.96363
3340.41623	0.96364
3338.35932	0.96365
3336.30242	0.96392
3334.24551	0.96428
3332.18860	0.96414
3330.13170	0.96387
3328.07479	0.96396
3326.01788	0.96399
3323.96098	0.96395
3321.90407	0.96431
3319.84716	0.96513
3317.79026	0.96585
3315.73335	0.96602
3313.67644	0.96577
3311.61954	0.96575
3309.56263	0.96639
3307.50572	0.96700
3305.44882	0.96714
3303.39191	0.96722
3301.33501	0.96740
3299.27810	0.96756
3297.22119	0.96763
3295.16429	0.96753
3293.10738	0.96735
3291.05047	0.96745
3288.99357	0.96780
3286.93666	0.96812
3284.87975	0.96819
3282.82285	0.96821
3280.76594	0.96861
3278.70903	0.96916
3276.65213	0.96948
3274.59522	0.96951
3272.53831	0.96919
3270.48141	0.96904
3268.42450	0.96955
3266.36759	0.97014
3264.31069	0.97033
3262.25378	0.97040
3260.19687	0.97062
3258.13997	0.97088
3256.08306	0.97069
3254.02615	0.97019
3251.96925	0.97033
3249.91234	0.97119
3247.85544	0.97177
3245.79853	0.97181
3243.74162	0.97175
3241.68472	0.97203
3239.62781	0.97265
3237.57090	0.97314
3235.51400	0.97346
3233.45709	0.97374
3231.40018	0.97384
3229.34328	0.97375
3227.28637	0.97380
3225.22946	0.97410
3223.17256	0.97449
3221.11565	0.97465
3219.05874	0.97435
3217.00184	0.97410
3214.94493	0.97438
3212.88802	0.97484
3210.83112	0.97522
3208.77421	0.97556
3206.71730	0.97560
3204.66040	0.97556
3202.60349	0.97586
3200.54658	0.97631
3198.48968	0.97683
3196.43277	0.97738
3194.37586	0.97763
3192.31896	0.97763
3190.26205	0.97768
3188.20515	0.97801
3186.14824	0.97844
3184.09133	0.97868
3182.03443	0.97857
3179.97752	0.97844
3177.92061	0.97867
3175.86371	0.97904
3173.80680	0.97923
3171.74989	0.97952
3169.69299	0.98004
3167.63608	0.98019
3165.57917	0.97995
3163.52227	0.98007
3161.46536	0.98027
3159.40845	0.98009
3157.35155	0.98027
3155.29464	0.98115
3153.23773	0.98177
3151.18083	0.98138
3149.12392	0.98061
3147.06701	0.98049
3145.01011	0.98080
3142.95320	0.98111
3140.89629	0.98151
3138.83939	0.98167
3136.78248	0.98166
3134.72558	0.98204
3132.66867	0.98229
3130.61176	0.98192
3128.55486	0.98163
3126.49795	0.98169
3124.44104	0.98204
3122.38414	0.98287
3120.32723	0.98348
3118.27032	0.98342
3116.21342	0.98334
3114.15651	0.98351
3112.09960	0.98357
3110.04270	0.98325
3107.98579	0.98299
3105.92888	0.98331
3103.87198	0.98373
3101.81507	0.98384
3099.75816	0.98401
3097.70126	0.98413
3095.64435	0.98410
3093.58744	0.98433
3091.53054	0.98466
3089.47363	0.98479
3087.41672	0.98483
3085.35982	0.98469
3083.30291	0.98456
3081.24600	0.98471
3079.18910	0.98482
3077.13219	0.98465
3075.07529	0.98453
3073.01838	0.98486
3070.96147	0.98554
3068.90457	0.98597
3066.84766	0.98583
3064.79075	0.98535
3062.73385	0.98522
3060.67694	0.98545
3058.62003	0.98538
3056.56313	0.98520
3054.50622	0.98518
3052.44931	0.98515
3050.39241	0.98529
3048.33550	0.98542
3046.27859	0.98558
3044.22169	0.98591
3042.16478	0.98576
3040.10787	0.98535
3038.05097	0.98552
3035.99406	0.98590
3033.93715	0.98624
3031.88025	0.98655
3029.82334	0.98641
3027.76643	0.98602
3025.70953	0.98578
3023.65262	0.98573
3021.59572	0.98593
3019.53881	0.98613
3017.48190	0.98619
3015.42500	0.98639
3013.36809	0.98640
3011.31118	0.98593
3009.25428	0.98553
3007.19737	0.98536
3005.14046	0.98537
3003.08356	0.98557
3001.02665	0.98558
2998.96974	0.98537
2996.91284	0.98554
2994.85593	0.98609
2992.79902	0.98644
2990.74212	0.98603
2988.68521	0.98493
2986.62830	0.98423
2984.57140	0.98434
2982.51449	0.98459
2980.45758	0.98457
2978.40068	0.98430
2976.34377	0.98383
2974.28686	0.98323
2972.22996	0.98267
2970.17305	0.98246
2968.11614	0.98247
2966.05924	0.98231
2964.00233	0.98191
2961.94543	0.98137
2959.88852	0.98083
2957.83161	0.98064
2955.77471	0.98065
2953.71780	0.98029
2951.66089	0.97993
2949.60399	0.97987
2947.54708	0.97974
2945.49017	0.97941
2943.43327	0.97908
2941.37636	0.97889
2939.31945	0.97868
2937.26255	0.97832
2935.20564	0.97812
2933.14873	0.97851
2931.09183	0.97880
2929.03492	0.97829
2926.97801	0.97788
2924.92111	0.97798
2922.86420	0.97808
2920.80729	0.97826
2918.75039	0.97835
2916.69348	0.97798
2914.63657	0.97733
2912.57967	0.97684
2910.52276	0.97697
2908.46586	0.97733
2906.40895	0.97723
2904.35204	0.97681
2902.29514	0.97639
2900.23823	0.97607
2898.18132	0.97597
2896.12442	0.97609
2894.06751	0.97645
2892.01060	0.97675
2889.95370	0.97653
2887.89679	0.97620
2885.83988	0.97627
2883.78298	0.97659
2881.72607	0.97668
2879.66916	0.97636
2877.61226	0.97621
2875.55535	0.97691
2873.49844	0.97783
2871.44154	0.97812
2869.38463	0.97821
2867.32772	0.97864
2865.27082	0.97902
2863.21391	0.97910
2861.15700	0.97925
2859.10010	0.97962
2857.04319	0.98009
2854.98628	0.98039
2852.92938	0.98074
2850.87247	0.98172
2848.81557	0.98282
2846.75866	0.98337
2844.70175	0.98332
2842.64485	0.98285
2840.58794	0.98254
2838.53103	0.98273
2836.47413	0.98335
2834.41722	0.98383
2832.36031	0.98376
2830.30341	0.98341
2828.24650	0.98325
2826.18959	0.98357
2824.13269	0.98398
2822.07578	0.98417
2820.01887	0.98455
2817.96197	0.98510
2815.90506	0.98542
2813.84815	0.98551
2811.79125	0.98533
2809.73434	0.98503
2807.67743	0.98522
2805.62053	0.98575
2803.56362	0.98583
2801.50671	0.98557
2799.44981	0.98550
2797.39290	0.98566
2795.33600	0.98582
2793.27909	0.98569
2791.22218	0.98550
2789.16528	0.98562
2787.10837	0.98574
2785.05146	0.98563
2782.99456	0.98555
2780.93765	0.98560
2778.88074	0.98563
2776.82384	0.98570
2774.76693	0.98592
2772.71002	0.98601
2770.65312	0.98594
2768.59621	0.98605
2766.53930	0.98628
2764.48240	0.98645
2762.42549	0.98645
2760.36858	0.98626
2758.31168	0.98610
2756.25477	0.98606
2754.19786	0.98596
2752.14096	0.98603
2750.08405	0.98626
2748.02714	0.98620
2745.97024	0.98612
2743.91333	0.98641
2741.85642	0.98683
2739.79952	0.98694
2737.74261	0.98683
2735.68571	0.98677
2733.62880	0.98652
2731.57189	0.98624
2729.51499	0.98639
2727.45808	0.98658
2725.40117	0.98657
2723.34427	0.98654
2721.28736	0.98644
2719.23045	0.98659
2717.17355	0.98696
2715.11664	0.98698
2713.05973	0.98678
2711.00283	0.98674
2708.94592	0.98669
2706.88901	0.98674
2704.83211	0.98718
2702.77520	0.98758
2700.71829	0.98762
2698.66139	0.98750
2696.60448	0.98731
2694.54757	0.98726
2692.49067	0.98743
2690.43376	0.98758
2688.37685	0.98733
2686.31995	0.98682
2684.26304	0.98658
2682.20614	0.98661
2680.14923	0.98672
2678.09232	0.98678
2676.03542	0.98678
2673.97851	0.98679
2671.92160	0.98678
2669.86470	0.98684
2667.80779	0.98706
2665.75088	0.98725
2663.69398	0.98721
2661.63707	0.98709
2659.58016	0.98709
2657.52326	0.98710
2655.46635	0.98692
2653.40944	0.98661
2651.35254	0.98622
2649.29563	0.98595
2647.23872	0.98611
2645.18182	0.98647
2643.12491	0.98671
2641.06800	0.98697
2639.01110	0.98712
2636.95419	0.98712
2634.89728	0.98699
2632.84038	0.98678
2630.78347	0.98704
2628.72656	0.98741
2626.66966	0.98724
2624.61275	0.98711
2622.55585	0.98740
2620.49894	0.98762
2618.44203	0.98761
2616.38513	0.98770
2614.32822	0.98752
2612.27131	0.98693
2610.21441	0.98654
2608.15750	0.98665
2606.10059	0.98726
2604.04369	0.98812
2601.98678	0.98846
2599.92987	0.98802
2597.87297	0.98769
2595.81606	0.98792
2593.75915	0.98822
2591.70225	0.98818
2589.64534	0.98762
2587.58843	0.98731
2585.53153	0.98780
2583.47462	0.98834
2581.41771	0.98866
2579.36081	0.98876
2577.30390	0.98848
2575.24699	0.98809
2573.19009	0.98809
2571.13318	0.98849
2569.07628	0.98885
2567.01937	0.98876
2564.96246	0.98822
2562.90556	0.98811
2560.84865	0.98870
2558.79174	0.98878
2556.73484	0.98822
2554.67793	0.98786
2552.62102	0.98784
2550.56412	0.98795
2548.50721	0.98807
2546.45030	0.98846
2544.39340	0.98915
2542.33649	0.98920
2540.27958	0.98859
2538.22268	0.98835
2536.16577	0.98860
2534.10886	0.98908
2532.05196	0.98943
2529.99505	0.98944
2527.93814	0.98951
2525.88124	0.98949
2523.82433	0.98914
2521.76742	0.98902
2519.71052	0.98913
2517.65361	0.98910
2515.59670	0.98911
2513.53980	0.98919
2511.48289	0.98904
2509.42599	0.98853
2507.36908	0.98797
2505.31217	0.98810
2503.25527	0.98903
2501.19836	0.98930
2499.14145	0.98821
2497.08455	0.98725
2495.02764	0.98760
2492.97073	0.98860
2490.91383	0.98903
2488.85692	0.98862
2486.80001	0.98823
2484.74311	0.98828
2482.68620	0.98819
2480.62929	0.98780
2478.57239	0.98745
2476.51548	0.98750
2474.45857	0.98785
2472.40167	0.98834
2470.34476	0.98908
2468.28785	0.98954
2466.23095	0.98930
2464.17404	0.98871
2462.11713	0.98806
2460.06023	0.98774
2458.00332	0.98784
2455.94642	0.98793
2453.88951	0.98827
2451.83260	0.98909
2449.77570	0.98940
2447.71879	0.98914
2445.66188	0.98944
2443.60498	0.98976
2441.54807	0.98956
2439.49116	0.98954
2437.43426	0.98965
2435.37735	0.98938
2433.32044	0.98869
2431.26354	0.98809
2429.20663	0.98810
2427.14972	0.98872
2425.09282	0.98913
2423.03591	0.98884
2420.97900	0.98876
2418.92210	0.98936
2416.86519	0.98969
2414.80828	0.98943
2412.75138	0.98917
2410.69447	0.98931
2408.63756	0.98975
2406.58066	0.98968
2404.52375	0.98897
2402.46684	0.98876
2400.40994	0.98928
2398.35303	0.98966
2396.29613	0.98980
2394.23922	0.99002
2392.18231	0.98984
2390.12541	0.98919
2388.06850	0.98894
2386.01159	0.98916
2383.95469	0.98904
2381.89778	0.98865
2379.84087	0.98855
2377.78397	0.98857
2375.72706	0.98832
2373.67015	0.98794
2371.61325	0.98710
2369.55634	0.98514
2367.49943	0.98355
2365.44253	0.98315
2363.38562	0.98128
2361.32871	0.97985
2359.27181	0.98310
2357.21490	0.98769
2355.15799	0.98968
2353.10109	0.98945
2351.04418	0.98949
2348.98727	0.98990
2346.93037	0.98909
2344.87346	0.98739
2342.81656	0.98831
2340.75965	0.99178
2338.70274	0.99333
2336.64584	0.99154
2334.58893	0.98914
2332.53202	0.98857
2330.47512	0.99016
2328.41821	0.99174
2326.36130	0.98961
2324.30440	0.98684
2322.24749	0.98759
2320.19058	0.98881
2318.13368	0.98852
2316.07677	0.98819
2314.01986	0.98778
2311.96296	0.98669
2309.90605	0.98598
2307.84914	0.98695
2305.79224	0.98864
2303.73533	0.98958
2301.67842	0.98959
2299.62152	0.98897
2297.56461	0.98805
2295.50770	0.98731
2293.45080	0.98704
2291.39389	0.98729
2289.33698	0.98754
2287.28008	0.98761
2285.22317	0.98802
2283.16627	0.98837
2281.10936	0.98857
2279.05245	0.98880
2276.99555	0.98809
2274.93864	0.98693
2272.88173	0.98715
2270.82483	0.98856
2268.76792	0.98911
2266.71101	0.98814
2264.65411	0.98774
2262.59720	0.98856
2260.54029	0.98833
2258.48339	0.98705
2256.42648	0.98733
2254.36957	0.98887
2252.31267	0.98977
2250.25576	0.98970
2248.19885	0.98907
2246.14195	0.98853
2244.08504	0.98832
2242.02813	0.98833
2239.97123	0.98821
2237.91432	0.98827
2235.85741	0.98850
2233.80051	0.98794
2231.74360	0.98735
2229.68670	0.98782
2227.62979	0.98804
2225.57288	0.98717
2223.51598	0.98634
2221.45907	0.98612
2219.40216	0.98705
2217.34526	0.98880
2215.28835	0.99033
2213.23144	0.99088
2211.17454	0.99081
2209.11763	0.99157
2207.06072	0.99183
2205.00382	0.99101
2202.94691	0.98986
2200.89000	0.98837
2198.83310	0.98719
2196.77619	0.98741
2194.71928	0.98980
2192.66238	0.99243
2190.60547	0.99182
2188.54856	0.98804
2186.49166	0.98570
2184.43475	0.98671
2182.37784	0.98762
2180.32094	0.98720
2178.26403	0.98826
2176.20712	0.99079
2174.15022	0.99155
2172.09331	0.99077
2170.03641	0.99111
2167.97950	0.99166
2165.92259	0.98994
2163.86569	0.98694
2161.80878	0.98591
2159.75187	0.98753
2157.69497	0.99049
2155.63806	0.99266
2153.58115	0.99187
2151.52425	0.99018
2149.46734	0.98933
2147.41043	0.98797
2145.35353	0.98739
2143.29662	0.98796
2141.23971	0.98788
2139.18281	0.98873
2137.12590	0.99122
2135.06899	0.99209
2133.01209	0.99075
2130.95518	0.98979
2128.89827	0.98967
2126.84137	0.98980
2124.78446	0.98968
2122.72755	0.98887
2120.67065	0.98856
2118.61374	0.98886
2116.55684	0.98885
2114.49993	0.98908
2112.44302	0.98978
2110.38612	0.99062
2108.32921	0.99069
2106.27230	0.98925
2104.21540	0.98773
2102.15849	0.98738
2100.10158	0.98773
2098.04468	0.98879
2095.98777	0.99005
2093.93086	0.98983
2091.87396	0.98884
2089.81705	0.98840
2087.76014	0.98779
2085.70324	0.98678
2083.64633	0.98638
2081.58942	0.98719
2079.53252	0.98871
2077.47561	0.98980
2075.41870	0.98994
2073.36180	0.98973
2071.30489	0.98993
2069.24798	0.99001
2067.19108	0.98943
2065.13417	0.98946
2063.07726	0.99050
2061.02036	0.99088
2058.96345	0.99007
2056.90655	0.98940
2054.84964	0.98974
2052.79273	0.98947
2050.73583	0.98808
2048.67892	0.98807
2046.62201	0.98925
2044.56511	0.98937
2042.50820	0.98929
2040.45129	0.99081
2038.39439	0.99208
2036.33748	0.99001
2034.28057	0.98684
2032.22367	0.98562
2030.16676	0.98564
2028.10985	0.98685
2026.05295	0.98938
2023.99604	0.99050
2021.93913	0.98904
2019.88223	0.98866
2017.82532	0.99125
2015.76841	0.99264
2013.71151	0.99087
2011.65460	0.98941
2009.59769	0.98976
2007.54079	0.99089
2005.48388	0.99194
2003.42698	0.99164
2001.37007	0.99091
1999.31316	0.99134
1997.25626	0.99108
1995.19935	0.98954
1993.14244	0.98904
1991.08554	0.99010
1989.02863	0.99076
1986.97172	0.98923
1984.91482	0.98810
1982.85791	0.98942
1980.80100	0.99045
1978.74410	0.99053
1976.68719	0.99174
1974.63028	0.99305
1972.57338	0.99219
1970.51647	0.99021
1968.45956	0.98926
1966.40266	0.98959
1964.34575	0.99075
1962.28884	0.99243
1960.23194	0.99318
1958.17503	0.99325
1956.11812	0.99408
1954.06122	0.99361
1952.00431	0.99136
1949.94740	0.99024
1947.89050	0.99115
1945.83359	0.99225
1943.77669	0.99185
1941.71978	0.99046
1939.66287	0.98999
1937.60597	0.99080
1935.54906	0.99140
1933.49215	0.99160
1931.43525	0.99186
1929.37834	0.99215
1927.32143	0.99260
1925.26453	0.99243
1923.20762	0.99107
1921.15071	0.98943
1919.09381	0.98858
1917.03690	0.98892
1914.97999	0.98964
1912.92309	0.99029
1910.86618	0.99145
1908.80927	0.99263
1906.75237	0.99306
1904.69546	0.99283
1902.63855	0.99233
1900.58165	0.99183
1898.52474	0.99139
1896.46783	0.99106
1894.41093	0.99054
1892.35402	0.98988
1890.29712	0.98983
1888.24021	0.99030
1886.18330	0.99040
1884.12640	0.99023
1882.06949	0.99025
1880.01258	0.99035
1877.95568	0.99016
1875.89877	0.99027
1873.84186	0.99102
1871.78496	0.99151
1869.72805	0.99158
1867.67114	0.99125
1865.61424	0.99049
1863.55733	0.99022
1861.50042	0.99040
1859.44352	0.99021
1857.38661	0.99013
1855.32970	0.99048
1853.27280	0.99081
1851.21589	0.99127
1849.15898	0.99166
1847.10208	0.99157
1845.04517	0.99131
1842.98826	0.99144
1840.93136	0.99160
1838.87445	0.99141
1836.81754	0.99119
1834.76064	0.99106
1832.70373	0.99064
1830.64683	0.99033
1828.58992	0.99077
1826.53301	0.99097
1824.47611	0.99061
1822.41920	0.99071
1820.36229	0.99091
1818.30539	0.99085
1816.24848	0.99104
1814.19157	0.99134
1812.13467	0.99116
1810.07776	0.99040
1808.02085	0.98992
1805.96395	0.99000
1803.90704	0.99010
1801.85013	0.98994
1799.79323	0.98969
1797.73632	0.98968
1795.67941	0.98984
1793.62251	0.98981
1791.56560	0.98949
1789.50869	0.98919
1787.45179	0.98889
1785.39488	0.98858
1783.33797	0.98831
1781.28107	0.98791
1779.22416	0.98737
1777.16726	0.98693
1775.11035	0.98617
1773.05344	0.98443
1770.99654	0.98221
1768.93963	0.98038
1766.88272	0.97806
1764.82582	0.97498
1762.76891	0.97106
1760.71200	0.96616
1758.65510	0.96111
1756.59819	0.95576
1754.54128	0.95101
1752.48438	0.94688
1750.42747	0.94199
1748.37056	0.93699
1746.31366	0.93327
1744.25675	0.93012
1742.19984	0.92696
1740.14294	0.92416
1738.08603	0.92218
1736.02912	0.92070
1733.97222	0.91852
1731.91531	0.91669
1729.85840	0.91605
1727.80150	0.91577
1725.74459	0.91585
1723.68768	0.91652
1721.63078	0.91803
1719.57387	0.92028
1717.51697	0.92271
1715.46006	0.92553
1713.40315	0.92926
1711.34625	0.93325
1709.28934	0.93736
1707.23243	0.94198
1705.17553	0.94689
1703.11862	0.95071
1701.06171	0.95418
1699.00481	0.95818
1696.94790	0.96152
1694.89099	0.96458
1692.83409	0.96690
1690.77718	0.96852
1688.72027	0.96997
1686.66337	0.97114
1684.60646	0.97232
1682.54955	0.97372
1680.49265	0.97465
1678.43574	0.97504
1676.37883	0.97525
1674.32193	0.97578
1672.26502	0.97634
1670.20811	0.97637
1668.15121	0.97604
1666.09430	0.97585
1664.03740	0.97577
1661.98049	0.97545
1659.92358	0.97512
1657.86668	0.97510
1655.80977	0.97511
1653.75286	0.97485
1651.69596	0.97487
1649.63905	0.97515
1647.58214	0.97503
1645.52524	0.97462
1643.46833	0.97457
1641.41142	0.97475
1639.35452	0.97487
1637.29761	0.97492
1635.24070	0.97527
1633.18380	0.97578
1631.12689	0.97608
1629.06998	0.97639
1627.01308	0.97685
1624.95617	0.97716
1622.89926	0.97743
1620.84236	0.97789
1618.78545	0.97839
1616.72854	0.97893
1614.67164	0.97947
1612.61473	0.98013
1610.55782	0.98082
1608.50092	0.98117
1606.44401	0.98137
1604.38711	0.98189
1602.33020	0.98262
1600.27329	0.98316
1598.21639	0.98342
1596.15948	0.98341
1594.10257	0.98342
1592.04567	0.98388
1589.98876	0.98443
1587.93185	0.98449
1585.87495	0.98430
1583.81804	0.98433
1581.76113	0.98461
1579.70423	0.98484
1577.64732	0.98482
1575.59041	0.98482
1573.53351	0.98505
1571.47660	0.98540
1569.41969	0.98585
1567.36279	0.98614
1565.30588	0.98611
1563.24897	0.98587
1561.19207	0.98571
1559.13516	0.98583
1557.07825	0.98598
1555.02135	0.98601
1552.96444	0.98593
1550.90754	0.98568
1548.85063	0.98551
1546.79372	0.98560
1544.73682	0.98572
1542.67991	0.98550
1540.62300	0.98500
1538.56610	0.98522
1536.50919	0.98561
1534.45228	0.98570
1532.39538	0.98591
1530.33847	0.98603
1528.28156	0.98571
1526.22466	0.98526
1524.16775	0.98515
1522.11084	0.98545
1520.05394	0.98587
1517.99703	0.98612
1515.94012	0.98625
1513.88322	0.98614
1511.82631	0.98596
1509.76940	0.98590
1507.71250	0.98582
1505.65559	0.98604
1503.59868	0.98630
1501.54178	0.98622
1499.48487	0.98593
1497.42796	0.98558
1495.37106	0.98544
1493.31415	0.98538
1491.25725	0.98503
1489.20034	0.98460
1487.14343	0.98464
1485.08653	0.98478
1483.02962	0.98465
1480.97271	0.98422
1478.91581	0.98350
1476.85890	0.98255
1474.80199	0.98146
1472.74509	0.98022
1470.68818	0.97927
1468.63127	0.97869
1466.57437	0.97791
1464.51746	0.97707
1462.46055	0.97642
1460.40365	0.97559
1458.34674	0.97441
1456.28983	0.97325
1454.23293	0.97247
1452.17602	0.97176
1450.11911	0.97097
1448.06221	0.97004
1446.00530	0.96925
1443.94839	0.96876
1441.89149	0.96822
1439.83458	0.96754
1437.77768	0.96648
1435.72077	0.96496
1433.66386	0.96412
1431.60696	0.96403
1429.55005	0.96417
1427.49314	0.96430
1425.43624	0.96448
1423.37933	0.96476
1421.32242	0.96495
1419.26552	0.96496
1417.20861	0.96540
1415.15170	0.96626
1413.09480	0.96675
1411.03789	0.96672
1408.98098	0.96665
1406.92408	0.96687
1404.86717	0.96716
1402.81026	0.96729
1400.75336	0.96717
1398.69645	0.96671
1396.63954	0.96589
1394.58264	0.96456
1392.52573	0.96288
1390.46882	0.96113
1388.41192	0.95891
1386.35501	0.95595
1384.29810	0.95286
1382.24120	0.94974
1380.18429	0.94660
1378.12739	0.94376
1376.07048	0.94102
1374.01357	0.93805
1371.95667	0.93572
1369.89976	0.93483
1367.84285	0.93514
1365.78595	0.93641
1363.72904	0.93881
1361.67213	0.94260
1359.61523	0.94708
1357.55832	0.95134
1355.50141	0.95494
1353.44451	0.95773
1351.38760	0.95973
1349.33069	0.96116
1347.27379	0.96229
1345.21688	0.96314
1343.15997	0.96369
1341.10307	0.96403
1339.04616	0.96421
1336.98925	0.96437
1334.93235	0.96468
1332.87544	0.96501
1330.81853	0.96526
1328.76163	0.96533
1326.70472	0.96504
1324.64782	0.96456
1322.59091	0.96417
1320.53400	0.96401
1318.47710	0.96407
1316.42019	0.96419
1314.36328	0.96423
1312.30638	0.96430
1310.24947	0.96462
1308.19256	0.96499
1306.13566	0.96510
1304.07875	0.96510
1302.02184	0.96516
1299.96494	0.96503
1297.90803	0.96463
1295.85112	0.96418
1293.79422	0.96364
1291.73731	0.96276
1289.68040	0.96149
1287.62350	0.96015
1285.56659	0.95880
1283.50968	0.95725
1281.45278	0.95547
1279.39587	0.95361
1277.33896	0.95171
1275.28206	0.94937
1273.22515	0.94657
1271.16824	0.94360
1269.11134	0.94047
1267.05443	0.93725
1264.99753	0.93393
1262.94062	0.93044
1260.88371	0.92707
1258.82681	0.92388
1256.76990	0.92058
1254.71299	0.91707
1252.65609	0.91345
1250.59918	0.90985
1248.54227	0.90647
1246.48537	0.90337
1244.42846	0.90028
1242.37155	0.89708
1240.31465	0.89394
1238.25774	0.89094
1236.20083	0.88834
1234.14393	0.88622
1232.08702	0.88432
1230.03011	0.88280
1227.97321	0.88209
1225.91630	0.88225
1223.85939	0.88334
1221.80249	0.88557
1219.74558	0.88907
1217.68867	0.89357
1215.63177	0.89864
1213.57486	0.90435
1211.51796	0.91058
1209.46105	0.91645
1207.40414	0.92157
1205.34724	0.92648
1203.29033	0.93129
1201.23342	0.93581
1199.17652	0.94015
1197.11961	0.94430
1195.06270	0.94785
1193.00580	0.95079
1190.94889	0.95333
1188.89198	0.95522
1186.83508	0.95639
1184.77817	0.95693
1182.72126	0.95676
1180.66436	0.95590
1178.60745	0.95443
1176.55054	0.95270
1174.49364	0.95088
1172.43673	0.94869
1170.37982	0.94618
1168.32292	0.94355
1166.26601	0.94110
1164.20910	0.93904
1162.15220	0.93716
1160.09529	0.93561
1158.03839	0.93489
1155.98148	0.93512
1153.92457	0.93608
1151.86767	0.93726
1149.81076	0.93837
1147.75385	0.93948
1145.69695	0.94058
1143.64004	0.94162
1141.58313	0.94208
1139.52623	0.94134
1137.46932	0.93990
1135.41241	0.93853
1133.35551	0.93721
1131.29860	0.93569
1129.24169	0.93367
1127.18479	0.93109
1125.12788	0.92876
1123.07097	0.92728
1121.01407	0.92604
1118.95716	0.92470
1116.90025	0.92359
1114.84335	0.92263
1112.78644	0.92162
1110.72953	0.92053
1108.67263	0.91952
1106.61572	0.91865
1104.55881	0.91765
1102.50191	0.91652
1100.44500	0.91512
1098.38810	0.91338
1096.33119	0.91164
1094.27428	0.90982
1092.21738	0.90785
1090.16047	0.90593
1088.10356	0.90387
1086.04666	0.90125
1083.98975	0.89828
1081.93284	0.89558
1079.87594	0.89286
1077.81903	0.88960
1075.76212	0.88629
1073.70522	0.88343
1071.64831	0.88077
1069.59140	0.87798
1067.53450	0.87537
1065.47759	0.87327
1063.42068	0.87157
1061.36378	0.86993
1059.30687	0.86799
1057.24996	0.86584
1055.19306	0.86353
1053.13615	0.86083
1051.07924	0.85822
1049.02234	0.85650
1046.96543	0.85524
1044.90853	0.85358
1042.85162	0.85143
1040.79471	0.84899
1038.73781	0.84652
1036.68090	0.84434
1034.62399	0.84248
1032.56709	0.84089
1030.51018	0.83969
1028.45327	0.83855
1026.39637	0.83706
1024.33946	0.83589
1022.28255	0.83568
1020.22565	0.83605
1018.16874	0.83669
1016.11183	0.83774
1014.05493	0.83913
1011.99802	0.84075
1009.94111	0.84266
1007.88421	0.84464
1005.82730	0.84627
1003.77039	0.84772
1001.71349	0.84943
999.65658	0.85109
997.59967	0.85235
995.54277	0.85374
993.48586	0.85552
991.42895	0.85736
989.37205	0.85932
987.31514	0.86162
985.25824	0.86421
983.20133	0.86692
981.14442	0.86972
979.08752	0.87255
977.03061	0.87539
974.97370	0.87830
972.91680	0.88114
970.85989	0.88392
968.80298	0.88690
966.74608	0.88999
964.68917	0.89294
962.63226	0.89590
960.57536	0.89898
958.51845	0.90186
956.46154	0.90428
954.40464	0.90640
952.34773	0.90824
950.29082	0.90999
948.23392	0.91188
946.17701	0.91367
944.12010	0.91524
942.06320	0.91686
940.00629	0.91867
937.94938	0.92005
935.89248	0.92078
933.83557	0.92133
931.77867	0.92198
929.72176	0.92313
927.66485	0.92432
925.60795	0.92450
923.55104	0.92385
921.49413	0.92336
919.43723	0.92338
917.38032	0.92336
915.32341	0.92293
913.26651	0.92221
911.20960	0.92105
909.15269	0.91961
907.09579	0.91857
905.03888	0.91822
902.98197	0.91866
900.92507	0.91922
898.86816	0.91904
896.81125	0.91903
894.75435	0.91987
892.69744	0.92067
890.64053	0.92114
888.58363	0.92185
886.52672	0.92333
884.46981	0.92527
882.41291	0.92715
880.35600	0.92932
878.29909	0.93180
876.24219	0.93399
874.18528	0.93547
872.12838	0.93652
870.07147	0.93790
868.01456	0.93955
865.95766	0.94098
863.90075	0.94231
861.84384	0.94341
859.78694	0.94415
857.73003	0.94473
855.67312	0.94535
853.61622	0.94588
851.55931	0.94602
849.50240	0.94555
847.44550	0.94483
845.38859	0.94458
843.33168	0.94462
841.27478	0.94491
839.21787	0.94551
837.16096	0.94609
835.10406	0.94676
833.04715	0.94769
830.99024	0.94828
828.93334	0.94817
826.87643	0.94833
824.81952	0.94910
822.76262	0.94941
820.70571	0.94934
818.64881	0.94969
816.59190	0.95045
814.53499	0.95133
812.47809	0.95172
810.42118	0.95151
808.36427	0.95144
806.30737	0.95144
804.25046	0.95116
802.19355	0.95117
800.13665	0.95165
798.07974	0.95211
796.02283	0.95235
793.96593	0.95259
791.90902	0.95319
789.85211	0.95379
787.79521	0.95406
785.73830	0.95427
783.68139	0.95404
781.62449	0.95338
779.56758	0.95309
777.51067	0.95309
775.45377	0.95293
773.39686	0.95312
771.33995	0.95341
769.28305	0.95331
767.22614	0.95316
765.16923	0.95269
763.11233	0.95214
761.05542	0.95238
758.99852	0.95307
756.94161	0.95337
754.88470	0.95306
752.82780	0.95208
750.77089	0.95121
748.71398	0.95120
746.65708	0.95138
744.60017	0.95150
742.54326	0.95135
740.48636	0.95057
738.42945	0.95009
736.37254	0.95019
734.31564	0.94997
732.25873	0.94940
730.20182	0.94898
728.14492	0.94893
726.08801	0.94883
724.03110	0.94823
721.97420	0.94727
719.91729	0.94625
717.86038	0.94544
715.80348	0.94480
713.74657	0.94456
711.68966	0.94493
709.63276	0.94546
707.57585	0.94541
705.51895	0.94445
703.46204	0.94336
701.40513	0.94241
699.34823	0.94121
697.29132	0.94045
695.23441	0.94057
693.17751	0.94121
691.12060	0.94150
689.06369	0.94043
687.00679	0.93866
684.94988	0.93746
682.89297	0.93624
680.83607	0.93484
678.77916	0.93404
676.72225	0.93333
674.66535	0.93255
672.60844	0.93212
670.55153	0.93181
668.49463	0.93136
666.43772	0.93195
664.38081	0.93327
662.32391	0.93350
660.26700	0.93182
658.21009	0.92976
656.15319	0.92844
654.09628	0.92717
652.03937	0.92586
649.98247	0.92504
647.92556	0.92422
645.86866	0.92278
643.81175	0.92133
641.75484	0.92054
639.69794	0.92065
637.64103	0.92110
635.58412	0.92052
633.52722	0.91916
631.47031	0.91795
629.41340	0.91709
627.35650	0.91657
625.29959	0.91590
623.24268	0.91501
621.18578	0.91386
619.12887	0.91245
617.07196	0.91126
615.01506	0.91038
612.95815	0.90923
610.90124	0.90691
608.84434	0.90422
606.78743	0.90254
604.73052	0.90143
602.67362	0.90034
600.61671	0.89928
598.55980	0.89873
596.50290	0.89930
594.44599	0.90046
592.38909	0.90166
590.33218	0.90313
588.27527	0.90459
586.21837	0.90504
584.16146	0.90447
582.10455	0.90402
580.04765	0.90380
577.99074	0.90283
575.93383	0.90154
573.87693	0.90169
571.82002	0.90278
569.76311	0.90281
567.70621	0.90183
565.64930	0.90086
563.59239	0.90013
561.53549	0.89944
559.47858	0.89882
557.42167	0.89810
555.36477	0.89730
553.30786	0.89807
551.25095	0.89980
549.19405	0.90025
547.13714	0.90006
545.08023	0.89968
543.02333	0.89841
540.96642	0.89732
538.90951	0.89759
536.85261	0.89883
534.79570	0.89965
532.73880	0.89930
530.68189	0.89877
528.62498	0.89826
526.56808	0.89766
524.51117	0.89782
522.45426	0.89810
520.39736	0.89781
518.34045	0.89716
516.28354	0.89579
514.22664	0.89346
512.16973	0.89177
510.11282	0.89265
508.05592	0.89378
505.99901	0.89270
503.94210	0.89141
501.88520	0.89104
499.82829	0.89054
497.77138	0.88863
495.71448	0.88771
493.65757	0.89002
491.60066	0.89130
489.54376	0.88937
487.48685	0.88692
485.42994	0.88563
483.37304	0.88579
481.31613	0.88684
479.25923	0.88773
477.20232	0.88712
475.14541	0.88539
473.08851	0.88428
471.03160	0.88439
468.97469	0.88538
466.91779	0.88562
464.86088	0.88410
462.80397	0.88341
460.74707	0.88412
458.69016	0.88282
456.63325	0.88073
454.57635	0.88225
452.51944	0.88353
450.46253	0.88100
448.40563	0.87802
446.34872	0.87634
444.29181	0.87698
442.23491	0.87994
440.17800	0.88023
438.12109	0.87786
436.06419	0.87781
434.00728	0.87925
431.95037	0.87890
429.89347	0.87869
427.83656	0.87899
425.77965	0.87774
423.72275	0.87617
421.66584	0.87599
419.60894	0.87530
417.55203	0.87183
415.49512	0.86898
413.43822	0.86920
411.38131	0.87291
409.32440	0.87610
407.26750	0.87529
405.21059	0.87414
403.15368	0.87409
401.09678	0.87442
399.03987	0.87770
