3996.57260	0.98919
3994.51569	0.98893
3992.45878	0.98853
3990.40188	0.98838
3988.34497	0.98858
3986.28806	0.98909
3984.23115	0.98916
3982.17424	0.98865
3980.11733	0.98819
3978.06043	0.98799
3976.00352	0.98837
3973.94661	0.98915
3971.88970	0.98915
3969.83279	0.98853
3967.77589	0.98824
3965.71898	0.98834
3963.66207	0.98868
3961.60516	0.98907
3959.54825	0.98930
3957.49134	0.98923
3955.43444	0.98865
3953.37753	0.98834
3951.32062	0.98897
3949.26371	0.98984
3947.20680	0.99017
3945.14990	0.98973
3943.09299	0.98901
3941.03608	0.98898
3938.97917	0.98925
3936.92226	0.98913
3934.86535	0.98893
3932.80845	0.98871
3930.75154	0.98844
3928.69463	0.98814
3926.63772	0.98758
3924.58081	0.98726
3922.52391	0.98776
3920.46700	0.98826
3918.41009	0.98790
3916.35318	0.98775
3914.29627	0.98850
3912.23936	0.98918
3910.18246	0.98907
3908.12555	0.98855
3906.06864	0.98854
3904.01173	0.98876
3901.95482	0.98852
3899.89792	0.98862
3897.84101	0.98908
3895.78410	0.98916
3893.72719	0.98923
3891.67028	0.98965
3889.61337	0.98979
3887.55647	0.98957
3885.49956	0.98924
3883.44265	0.98853
3881.38574	0.98776
3879.32883	0.98762
3877.27193	0.98795
3875.21502	0.98814
3873.15811	0.98833
3871.10120	0.98866
3869.04429	0.98877
3866.98738	0.98897
3864.93048	0.98917
3862.87357	0.98922
3860.81666	0.98914
3858.75975	0.98820
3856.70284	0.98674
3854.64594	0.98599
3852.58903	0.98690
3850.53212	0.98789
3848.47521	0.98800
3846.41830	0.98809
3844.36139	0.98840
3842.30449	0.98846
3840.24758	0.98800
3838.19067	0.98779
3836.13376	0.98862
3834.07685	0.98901
3832.01995	0.98837
3829.96304	0.98793
3827.90613	0.98810
3825.84922	0.98843
3823.79231	0.98877
3821.73540	0.98934
3819.67850	0.98975
3817.62159	0.98933
3815.56468	0.98845
3813.50777	0.98810
3811.45086	0.98846
3809.39396	0.98883
3807.33705	0.98881
3805.28014	0.98882
3803.22323	0.98931
3801.16632	0.98941
3799.10941	0.98871
3797.05251	0.98804
3794.99560	0.98800
3792.93869	0.98868
3790.88178	0.98935
3788.82487	0.98979
3786.76796	0.98963
3784.71106	0.98856
3782.65415	0.98740
3780.59724	0.98693
3778.54033	0.98712
3776.48342	0.98750
3774.42652	0.98853
3772.36961	0.99002
3770.31270	0.99053
3768.25579	0.98980
3766.19888	0.98918
3764.14197	0.98890
3762.08507	0.98850
3760.02816	0.98826
3757.97125	0.98835
3755.91434	0.98833
3753.85743	0.98880
3751.80053	0.99074
3749.74362	0.99224
3747.68671	0.99119
3745.62980	0.98913
3743.57289	0.98779
3741.51598	0.98798
3739.45908	0.98844
3737.40217	0.98867
3735.34526	0.98913
3733.28835	0.98947
3731.23144	0.98952
3729.17454	0.98982
3727.11763	0.98946
3725.06072	0.98868
3723.00381	0.98879
3720.94690	0.98904
3718.88999	0.98894
3716.83309	0.98884
3714.77618	0.98882
3712.71927	0.98867
3710.66236	0.98811
3708.60545	0.98784
3706.54855	0.98879
3704.49164	0.98991
3702.43473	0.98970
3700.37782	0.98883
3698.32091	0.98819
3696.26400	0.98781
3694.20710	0.98807
3692.15019	0.98836
3690.09328	0.98817
3688.03637	0.98822
3685.97946	0.98858
3683.92256	0.98871
3681.86565	0.98836
3679.80874	0.98806
3677.75183	0.98855
3675.69492	0.98916
3673.63801	0.98884
3671.58111	0.98868
3669.52420	0.98909
3667.46729	0.98961
3665.41038	0.98962
3663.35347	0.98906
3661.29657	0.98823
3659.23966	0.98715
3657.18275	0.98663
3655.12584	0.98716
3653.06893	0.98752
3651.01202	0.98763
3648.95512	0.98699
3646.89821	0.98504
3644.84130	0.98422
3642.78439	0.98477
3640.72748	0.98530
3638.67058	0.98496
3636.61367	0.98441
3634.55676	0.98439
3632.49985	0.98443
3630.44294	0.98370
3628.38603	0.98261
3626.32913	0.98240
3624.27222	0.98278
3622.21531	0.98317
3620.15840	0.98361
3618.10149	0.98430
3616.04459	0.98431
3613.98768	0.98347
3611.93077	0.98311
3609.87386	0.98327
3607.81695	0.98321
3605.76004	0.98305
3603.70314	0.98254
3601.64623	0.98144
3599.58932	0.98021
3597.53241	0.97944
3595.47550	0.97926
3593.41860	0.97912
3591.36169	0.97890
3589.30478	0.97920
3587.24787	0.97965
3585.19096	0.97917
3583.13405	0.97826
3581.07715	0.97786
3579.02024	0.97818
3576.96333	0.97854
3574.90642	0.97864
3572.84951	0.97885
3570.79261	0.97897
3568.73570	0.97881
3566.67879	0.97831
3564.62188	0.97726
3562.56497	0.97607
3560.50806	0.97579
3558.45116	0.97609
3556.39425	0.97556
3554.33734	0.97458
3552.28043	0.97412
3550.22352	0.97404
3548.16662	0.97407
3546.10971	0.97413
3544.05280	0.97377
3541.99589	0.97288
3539.93898	0.97214
3537.88207	0.97206
3535.82517	0.97243
3533.76826	0.97238
3531.71135	0.97178
3529.65444	0.97159
3527.59753	0.97150
3525.54063	0.97050
3523.48372	0.96908
3521.42681	0.96775
3519.36990	0.96712
3517.31299	0.96770
3515.25608	0.96830
3513.19918	0.96791
3511.14227	0.96736
3509.08536	0.96738
3507.02845	0.96759
3504.97154	0.96744
3502.91464	0.96686
3500.85773	0.96662
3498.80082	0.96702
3496.74391	0.96722
3494.68700	0.96671
3492.63009	0.96593
3490.57319	0.96543
3488.51628	0.96544
3486.45937	0.96542
3484.40246	0.96486
3482.34555	0.96449
3480.28865	0.96493
3478.23174	0.96562
3476.17483	0.96529
3474.11792	0.96420
3472.06101	0.96367
3470.00410	0.96356
3467.94720	0.96339
3465.89029	0.96341
3463.83338	0.96374
3461.77647	0.96389
3459.71956	0.96366
3457.66266	0.96344
3455.60575	0.96348
3453.54884	0.96372
3451.49193	0.96404
3449.43502	0.96486
3447.37811	0.96546
3445.32121	0.96514
3443.26430	0.96467
3441.20739	0.96429
3439.15048	0.96407
3437.09357	0.96389
3435.03667	0.96374
3432.97976	0.96432
3430.92285	0.96513
3428.86594	0.96524
3426.80903	0.96494
3424.75212	0.96464
3422.69522	0.96474
3420.63831	0.96520
3418.58140	0.96542
3416.52449	0.96531
3414.46758	0.96490
3412.41068	0.96452
3410.35377	0.96498
3408.29686	0.96603
3406.23995	0.96678
3404.18304	0.96710
3402.12613	0.96714
3400.06923	0.96679
3398.01232	0.96631
3395.95541	0.96630
3393.89850	0.96667
3391.84159	0.96729
3389.78469	0.96812
3387.72778	0.96843
3385.67087	0.96809
3383.61396	0.96771
3381.55705	0.96778
3379.50014	0.96855
3377.44324	0.96945
3375.38633	0.96964
3373.32942	0.96936
3371.27251	0.96954
3369.21560	0.96995
3367.15870	0.96991
3365.10179	0.96977
3363.04488	0.96988
3360.98797	0.97002
3358.93106	0.97018
3356.87415	0.97041
3354.81725	0.97063
3352.76034	0.97057
3350.70343	0.97034
3348.64652	0.97038
3346.58961	0.97046
3344.53271	0.97047
3342.47580	0.97058
3340.41889	0.97075
3338.36198	0.97101
3336.30507	0.97124
3334.24816	0.97120
3332.19126	0.97104
3330.13435	0.97115
3328.07744	0.97117
3326.02053	0.97077
3323.96362	0.97080
3321.90672	0.97191
3319.84981	0.97323
3317.79290	0.97375
3315.73599	0.97387
3313.67908	0.97420
3311.62217	0.97425
3309.56527	0.97403
3307.50836	0.97418
3305.45145	0.97443
3303.39454	0.97411
3301.33763	0.97358
3299.28073	0.97347
3297.22382	0.97362
3295.16691	0.97398
3293.11000	0.97443
3291.05309	0.97443
3288.99618	0.97412
3286.93928	0.97416
3284.88237	0.97485
3282.82546	0.97576
3280.76855	0.97608
3278.71164	0.97619
3276.65474	0.97666
3274.59783	0.97692
3272.54092	0.97672
3270.48401	0.97655
3268.42710	0.97646
3266.37019	0.97634
3264.31329	0.97672
3262.25638	0.97736
3260.19947	0.97747
3258.14256	0.97728
3256.08565	0.97718
3254.02875	0.97706
3251.97184	0.97688
3249.91493	0.97671
3247.85802	0.97674
3245.80111	0.97705
3243.74420	0.97745
3241.68730	0.97743
3239.63039	0.97701
3237.57348	0.97709
3235.51657	0.97774
3233.45966	0.97811
3231.40276	0.97805
3229.34585	0.97808
3227.28894	0.97808
3225.23203	0.97784
3223.17512	0.97793
3221.11821	0.97859
3219.06131	0.97920
3217.00440	0.97956
3214.94749	0.97977
3212.89058	0.97991
3210.83367	0.97983
3208.77677	0.97911
3206.71986	0.97849
3204.66295	0.97855
3202.60604	0.97891
3200.54913	0.97947
3198.49222	0.97998
3196.43532	0.98017
3194.37841	0.98026
3192.32150	0.98016
3190.26459	0.97987
3188.20768	0.97982
3186.15078	0.97994
3184.09387	0.98009
3182.03696	0.98033
3179.98005	0.98070
3177.92314	0.98109
3175.86623	0.98095
3173.80933	0.98057
3171.75242	0.98070
3169.69551	0.98082
3167.63860	0.98076
3165.58169	0.98120
3163.52479	0.98166
3161.46788	0.98145
3159.41097	0.98123
3157.35406	0.98151
3155.29715	0.98209
3153.24024	0.98242
3151.18334	0.98194
3149.12643	0.98152
3147.06952	0.98180
3145.01261	0.98212
3142.95570	0.98214
3140.89880	0.98200
3138.84189	0.98238
3136.78498	0.98305
3134.72807	0.98299
3132.67116	0.98243
3130.61425	0.98206
3128.55735	0.98199
3126.50044	0.98219
3124.44353	0.98256
3122.38662	0.98292
3120.32971	0.98308
3118.27281	0.98309
3116.21590	0.98325
3114.15899	0.98332
3112.10208	0.98291
3110.04517	0.98224
3107.98826	0.98188
3105.93136	0.98201
3103.87445	0.98247
3101.81754	0.98289
3099.76063	0.98323
3097.70372	0.98359
3095.64682	0.98375
3093.58991	0.98376
3091.53300	0.98371
3089.47609	0.98350
3087.41918	0.98323
3085.36227	0.98269
3083.30537	0.98221
3081.24846	0.98239
3079.19155	0.98305
3077.13464	0.98355
3075.07773	0.98353
3073.02083	0.98330
3070.96392	0.98323
3068.90701	0.98339
3066.85010	0.98378
3064.79319	0.98402
3062.73628	0.98412
3060.67938	0.98439
3058.62247	0.98467
3056.56556	0.98467
3054.50865	0.98442
3052.45174	0.98412
3050.39484	0.98379
3048.33793	0.98348
3046.28102	0.98352
3044.22411	0.98367
3042.16720	0.98371
3040.11029	0.98383
3038.05339	0.98383
3035.99648	0.98373
3033.93957	0.98381
3031.88266	0.98399
3029.82575	0.98416
3027.76885	0.98411
3025.71194	0.98369
3023.65503	0.98306
3021.59812	0.98282
3019.54121	0.98302
3017.48430	0.98299
3015.42740	0.98261
3013.37049	0.98229
3011.31358	0.98213
3009.25667	0.98218
3007.19976	0.98231
3005.14286	0.98234
3003.08595	0.98239
3001.02904	0.98235
2998.97213	0.98215
2996.91522	0.98197
2994.85831	0.98180
2992.80141	0.98152
2990.74450	0.98160
2988.68759	0.98217
2986.63068	0.98243
2984.57377	0.98200
2982.51687	0.98167
2980.45996	0.98181
2978.40305	0.98180
2976.34614	0.98119
2974.28923	0.98051
2972.23232	0.98007
2970.17542	0.97952
2968.11851	0.97882
2966.06160	0.97795
2964.00469	0.97702
2961.94778	0.97653
2959.89088	0.97669
2957.83397	0.97716
2955.77706	0.97742
2953.72015	0.97756
2951.66324	0.97744
2949.60633	0.97669
2947.54943	0.97596
2945.49252	0.97550
2943.43561	0.97493
2941.37870	0.97455
2939.32179	0.97456
2937.26489	0.97489
2935.20798	0.97578
2933.15107	0.97675
2931.09416	0.97707
2929.03725	0.97687
2926.98034	0.97635
2924.92344	0.97592
2922.86653	0.97607
2920.80962	0.97638
2918.75271	0.97659
2916.69580	0.97669
2914.63890	0.97650
2912.58199	0.97640
2910.52508	0.97666
2908.46817	0.97658
2906.41126	0.97608
2904.35435	0.97583
2902.29745	0.97570
2900.24054	0.97545
2898.18363	0.97538
2896.12672	0.97558
2894.06981	0.97571
2892.01291	0.97557
2889.95600	0.97525
2887.89909	0.97513
2885.84218	0.97536
2883.78527	0.97562
2881.72836	0.97565
2879.67146	0.97554
2877.61455	0.97547
2875.55764	0.97565
2873.50073	0.97603
2871.44382	0.97622
2869.38692	0.97641
2867.33001	0.97685
2865.27310	0.97709
2863.21619	0.97717
2861.15928	0.97760
2859.10237	0.97834
2857.04547	0.97916
2854.98856	0.97971
2852.93165	0.97975
2850.87474	0.97963
2848.81783	0.97972
2846.76093	0.98003
2844.70402	0.98049
2842.64711	0.98093
2840.59020	0.98107
2838.53329	0.98089
2836.47638	0.98075
2834.41948	0.98089
2832.36257	0.98104
2830.30566	0.98107
2828.24875	0.98157
2826.19184	0.98233
2824.13494	0.98262
2822.07803	0.98241
2820.02112	0.98188
2817.96421	0.98162
2815.90730	0.98199
2813.85039	0.98249
2811.79349	0.98282
2809.73658	0.98305
2807.67967	0.98309
2805.62276	0.98275
2803.56585	0.98239
2801.50895	0.98246
2799.45204	0.98274
2797.39513	0.98270
2795.33822	0.98229
2793.28131	0.98204
2791.22440	0.98216
2789.16750	0.98230
2787.11059	0.98228
2785.05368	0.98244
2782.99677	0.98294
2780.93986	0.98341
2778.88296	0.98365
2776.82605	0.98374
2774.76914	0.98356
2772.71223	0.98326
2770.65532	0.98328
2768.59841	0.98353
2766.54151	0.98367
2764.48460	0.98364
2762.42769	0.98340
2760.37078	0.98315
2758.31387	0.98321
2756.25697	0.98327
2754.20006	0.98310
2752.14315	0.98297
2750.08624	0.98316
2748.02933	0.98366
2745.97242	0.98410
2743.91552	0.98419
2741.85861	0.98394
2739.80170	0.98362
2737.74479	0.98354
2735.68788	0.98383
2733.63098	0.98411
2731.57407	0.98369
2729.51716	0.98302
2727.46025	0.98277
2725.40334	0.98277
2723.34643	0.98306
2721.28953	0.98348
2719.23262	0.98349
2717.17571	0.98335
2715.11880	0.98353
2713.06189	0.98378
2711.00499	0.98393
2708.94808	0.98404
2706.89117	0.98397
2704.83426	0.98369
2702.77735	0.98360
2700.72044	0.98384
2698.66354	0.98403
2696.60663	0.98390
2694.54972	0.98359
2692.49281	0.98336
2690.43590	0.98336
2688.37900	0.98344
2686.32209	0.98366
2684.26518	0.98411
2682.20827	0.98444
2680.15136	0.98431
2678.09445	0.98406
2676.03755	0.98405
2673.98064	0.98418
2671.92373	0.98432
2669.86682	0.98444
2667.80991	0.98436
2665.75301	0.98411
2663.69610	0.98394
2661.63919	0.98405
2659.58228	0.98424
2657.52537	0.98421
2655.46846	0.98400
2653.41156	0.98387
2651.35465	0.98396
2649.29774	0.98396
2647.24083	0.98386
2645.18392	0.98386
2643.12702	0.98385
2641.07011	0.98368
2639.01320	0.98344
2636.95629	0.98330
2634.89938	0.98319
2632.84247	0.98317
2630.78557	0.98326
2628.72866	0.98328
2626.67175	0.98369
2624.61484	0.98442
2622.55793	0.98438
2620.50103	0.98377
2618.44412	0.98368
2616.38721	0.98389
2614.33030	0.98371
2612.27339	0.98332
2610.21648	0.98334
2608.15958	0.98369
2606.10267	0.98405
2604.04576	0.98451
2601.98885	0.98490
2599.93194	0.98480
2597.87504	0.98414
2595.81813	0.98363
2593.76122	0.98396
2591.70431	0.98470
2589.64740	0.98507
2587.59049	0.98500
2585.53359	0.98473
2583.47668	0.98448
2581.41977	0.98427
2579.36286	0.98403
2577.30595	0.98412
2575.24905	0.98463
2573.19214	0.98510
2571.13523	0.98513
2569.07832	0.98469
2567.02141	0.98433
2564.96450	0.98466
2562.90760	0.98531
2560.85069	0.98550
2558.79378	0.98553
2556.73687	0.98567
2554.67996	0.98536
2552.62306	0.98484
2550.56615	0.98477
2548.50924	0.98507
2546.45233	0.98496
2544.39542	0.98440
2542.33851	0.98449
2540.28161	0.98489
2538.22470	0.98484
2536.16779	0.98496
2534.11088	0.98529
2532.05397	0.98543
2529.99707	0.98558
2527.94016	0.98554
2525.88325	0.98546
2523.82634	0.98580
2521.76943	0.98585
2519.71252	0.98526
2517.65562	0.98489
2515.59871	0.98499
2513.54180	0.98516
2511.48489	0.98515
2509.42798	0.98498
2507.37108	0.98477
2505.31417	0.98474
2503.25726	0.98508
2501.20035	0.98519
2499.14344	0.98481
2497.08653	0.98468
2495.02963	0.98493
2492.97272	0.98530
2490.91581	0.98564
2488.85890	0.98557
2486.80199	0.98519
2484.74509	0.98555
2482.68818	0.98652
2480.63127	0.98639
2478.57436	0.98521
2476.51745	0.98450
2474.46054	0.98443
2472.40364	0.98446
2470.34673	0.98463
2468.28982	0.98525
2466.23291	0.98610
2464.17600	0.98673
2462.11910	0.98687
2460.06219	0.98651
2458.00528	0.98609
2455.94837	0.98589
2453.89146	0.98581
2451.83455	0.98592
2449.77765	0.98572
2447.72074	0.98527
2445.66383	0.98543
2443.60692	0.98598
2441.55001	0.98628
2439.49311	0.98627
2437.43620	0.98613
2435.37929	0.98608
2433.32238	0.98623
2431.26547	0.98633
2429.20856	0.98618
2427.15166	0.98613
2425.09475	0.98632
2423.03784	0.98650
2420.98093	0.98645
2418.92402	0.98618
2416.86712	0.98637
2414.81021	0.98681
2412.75330	0.98667
2410.69639	0.98637
2408.63948	0.98609
2406.58257	0.98577
2404.52567	0.98601
2402.46876	0.98655
2400.41185	0.98659
2398.35494	0.98615
2396.29803	0.98570
2394.24113	0.98539
2392.18422	0.98538
2390.12731	0.98598
2388.07040	0.98674
2386.01349	0.98697
2383.95658	0.98668
2381.89968	0.98624
2379.84277	0.98619
2377.78586	0.98685
2375.72895	0.98745
2373.67204	0.98758
2371.61514	0.98841
2369.55823	0.98949
2367.50132	0.98886
2365.44441	0.98740
2363.38750	0.98739
2361.33059	0.98847
2359.27369	0.98882
2357.21678	0.98815
2355.15987	0.98708
2353.10296	0.98579
2351.04605	0.98476
2348.98915	0.98471
2346.93224	0.98566
2344.87533	0.98689
2342.81842	0.98723
2340.76151	0.98665
2338.70460	0.98655
2336.64770	0.98730
2334.59079	0.98743
2332.53388	0.98658
2330.47697	0.98602
2328.42006	0.98549
2326.36316	0.98438
2324.30625	0.98384
2322.24934	0.98465
2320.19243	0.98583
2318.13552	0.98635
2316.07861	0.98657
2314.02171	0.98683
2311.96480	0.98648
2309.90789	0.98574
2307.85098	0.98551
2305.79407	0.98580
2303.73717	0.98605
2301.68026	0.98601
2299.62335	0.98586
2297.56644	0.98557
2295.50953	0.98514
2293.45262	0.98495
2291.39572	0.98492
2289.33881	0.98487
2287.28190	0.98469
2285.22499	0.98441
2283.16808	0.98431
2281.11117	0.98419
2279.05427	0.98413
2276.99736	0.98438
2274.94045	0.98488
2272.88354	0.98578
2270.82663	0.98671
2268.76973	0.98712
2266.71282	0.98697
2264.65591	0.98625
2262.59900	0.98593
2260.54209	0.98689
2258.48518	0.98779
2256.42828	0.98792
2254.37137	0.98743
2252.31446	0.98594
2250.25755	0.98505
2248.20064	0.98581
2246.14374	0.98681
2244.08683	0.98719
2242.02992	0.98710
2239.97301	0.98759
2237.91610	0.98883
2235.85919	0.98938
2233.80229	0.98872
2231.74538	0.98765
2229.68847	0.98771
2227.63156	0.98858
2225.57465	0.98757
2223.51775	0.98540
2221.46084	0.98569
2219.40393	0.98789
2217.34702	0.98946
2215.29011	0.99027
2213.23320	0.99034
2211.17630	0.98943
2209.11939	0.98814
2207.06248	0.98690
2205.00557	0.98610
2202.94866	0.98608
2200.89176	0.98601
2198.83485	0.98621
2196.77794	0.98747
2194.72103	0.98756
2192.66412	0.98635
2190.60721	0.98668
2188.55031	0.98644
2186.49340	0.98390
2184.43649	0.98357
2182.37958	0.98668
2180.32267	0.98946
2178.26577	0.98992
2176.20886	0.98949
2174.15195	0.98979
2172.09504	0.98972
2170.03813	0.98827
2167.98122	0.98632
2165.92432	0.98505
2163.86741	0.98431
2161.81050	0.98481
2159.75359	0.98803
2157.69668	0.99139
2155.63978	0.99227
2153.58287	0.99158
2151.52596	0.99001
2149.46905	0.98831
2147.41214	0.98774
2145.35523	0.98804
2143.29833	0.98840
2141.24142	0.98874
2139.18451	0.98842
2137.12760	0.98743
2135.07069	0.98717
2133.01379	0.98789
2130.95688	0.98854
2128.89997	0.98897
2126.84306	0.98871
2124.78615	0.98738
2122.72924	0.98627
2120.67234	0.98591
2118.61543	0.98563
2116.55852	0.98560
2114.50161	0.98619
2112.44470	0.98664
2110.38780	0.98638
2108.33089	0.98619
2106.27398	0.98634
2104.21707	0.98681
2102.16016	0.98799
2100.10325	0.98893
2098.04635	0.98839
2095.98944	0.98760
2093.93253	0.98770
2091.87562	0.98772
2089.81871	0.98745
2087.76181	0.98751
2085.70490	0.98795
2083.64799	0.98796
2081.59108	0.98706
2079.53417	0.98681
2077.47726	0.98725
2075.42036	0.98626
2073.36345	0.98482
2071.30654	0.98566
2069.24963	0.98774
2067.19272	0.98849
2065.13582	0.98807
2063.07891	0.98751
2061.02200	0.98694
2058.96509	0.98666
2056.90818	0.98721
2054.85127	0.98758
2052.79437	0.98664
2050.73746	0.98548
2048.68055	0.98576
2046.62364	0.98696
2044.56673	0.98765
2042.50983	0.98794
2040.45292	0.98816
2038.39601	0.98749
2036.33910	0.98588
2034.28219	0.98554
2032.22528	0.98674
2030.16838	0.98777
2028.11147	0.98878
2026.05456	0.98962
2023.99765	0.99008
2021.94074	0.99078
2019.88384	0.99127
2017.82693	0.99112
2015.77002	0.99127
2013.71311	0.99149
2011.65620	0.99075
2009.59929	0.98994
2007.54239	0.98905
2005.48548	0.98765
2003.42857	0.98823
2001.37166	0.99093
1999.31475	0.99225
1997.25785	0.99211
1995.20094	0.99134
1993.14403	0.98971
1991.08712	0.98973
1989.03021	0.99133
1986.97330	0.99178
1984.91640	0.99114
1982.85949	0.98968
1980.80258	0.98772
1978.74567	0.98726
1976.68876	0.98851
1974.63186	0.98925
1972.57495	0.98918
1970.51804	0.98874
1968.46113	0.98792
1966.40422	0.98795
1964.34731	0.98968
1962.29041	0.99083
1960.23350	0.99008
1958.17659	0.98966
1956.11968	0.98999
1954.06277	0.98954
1952.00587	0.98809
1949.94896	0.98727
1947.89205	0.98766
1945.83514	0.98762
1943.77823	0.98734
1941.72132	0.98824
1939.66442	0.98924
1937.60751	0.98967
1935.55060	0.99008
1933.49369	0.98965
1931.43678	0.98885
1929.37988	0.98941
1927.32297	0.99011
1925.26606	0.98959
1923.20915	0.98886
1921.15224	0.98899
1919.09533	0.98979
1917.03843	0.99008
1914.98152	0.98982
1912.92461	0.99032
1910.86770	0.99103
1908.81079	0.99067
1906.75389	0.98952
1904.69698	0.98882
1902.64007	0.98938
1900.58316	0.99057
1898.52625	0.99121
1896.46934	0.99086
1894.41244	0.99039
1892.35553	0.99028
1890.29862	0.99010
1888.24171	0.98997
1886.18480	0.98965
1884.12790	0.98915
1882.07099	0.98936
1880.01408	0.99008
1877.95717	0.99011
1875.90026	0.98930
1873.84335	0.98856
1871.78645	0.98896
1869.72954	0.99016
1867.67263	0.99007
1865.61572	0.98901
1863.55881	0.98862
1861.50191	0.98886
1859.44500	0.98945
1857.38809	0.98994
1855.33118	0.98993
1853.27427	0.99007
1851.21736	0.99071
1849.16046	0.99089
1847.10355	0.99023
1845.04664	0.98941
1842.98973	0.98907
1840.93282	0.98928
1838.87592	0.98974
1836.81901	0.99035
1834.76210	0.99075
1832.70519	0.99038
1830.64828	0.98967
1828.59137	0.98908
1826.53447	0.98897
1824.47756	0.98947
1822.42065	0.98974
1820.36374	0.98960
1818.30683	0.98928
1816.24993	0.98869
1814.19302	0.98839
1812.13611	0.98873
1810.07920	0.98895
1808.02229	0.98898
1805.96538	0.98914
1803.90848	0.98887
1801.85157	0.98833
1799.79466	0.98804
1797.73775	0.98775
1795.68084	0.98760
1793.62394	0.98739
1791.56703	0.98670
1789.51012	0.98649
1787.45321	0.98664
1785.39630	0.98611
1783.33939	0.98497
1781.28249	0.98421
1779.22558	0.98367
1777.16867	0.98265
1775.11176	0.98102
1773.05485	0.97828
1770.99795	0.97439
1768.94104	0.97054
1766.88413	0.96607
1764.82722	0.96034
1762.77031	0.95285
1760.71340	0.94379
1758.65650	0.93512
1756.59959	0.92649
1754.54268	0.91879
1752.48577	0.91218
1750.42886	0.90476
1748.37196	0.89728
1746.31505	0.89135
1744.25814	0.88651
1742.20123	0.88228
1740.14432	0.87816
1738.08741	0.87501
1736.03051	0.87360
1733.97360	0.87230
1731.91669	0.87130
1729.85978	0.87156
1727.80287	0.87245
1725.74597	0.87387
1723.68906	0.87613
1721.63215	0.87912
1719.57524	0.88286
1717.51833	0.88798
1715.46142	0.89411
1713.40452	0.90018
1711.34761	0.90645
1709.29070	0.91308
1707.23379	0.91992
1705.17688	0.92676
1703.11998	0.93240
1701.06307	0.93767
1699.00616	0.94341
1696.94925	0.94810
1694.89234	0.95205
1692.83543	0.95485
1690.77853	0.95714
1688.72162	0.95954
1686.66471	0.96149
1684.60780	0.96281
1682.55089	0.96384
1680.49399	0.96493
1678.43708	0.96594
1676.38017	0.96665
1674.32326	0.96718
1672.26635	0.96768
1670.20944	0.96803
1668.15254	0.96825
1666.09563	0.96846
1664.03872	0.96878
1661.98181	0.96913
1659.92490	0.96913
1657.86800	0.96894
1655.81109	0.96890
1653.75418	0.96838
1651.69727	0.96719
1649.64036	0.96732
1647.58345	0.96805
1645.52655	0.96820
1643.46964	0.96807
1641.41273	0.96811
1639.35582	0.96793
1637.29891	0.96745
1635.24201	0.96762
1633.18510	0.96855
1631.12819	0.96920
1629.07128	0.96977
1627.01437	0.97062
1624.95746	0.97142
1622.90056	0.97187
1620.84365	0.97217
1618.78674	0.97262
1616.72983	0.97312
1614.67292	0.97366
1612.61602	0.97438
1610.55911	0.97509
1608.50220	0.97561
1606.44529	0.97607
1604.38838	0.97673
1602.33147	0.97755
1600.27457	0.97808
1598.21766	0.97830
1596.16075	0.97865
1594.10384	0.97900
1592.04693	0.97906
1589.99003	0.97923
1587.93312	0.97972
1585.87621	0.98013
1583.81930	0.98029
1581.76239	0.98035
1579.70548	0.98048
1577.64858	0.98085
1575.59167	0.98128
1573.53476	0.98124
1571.47785	0.98125
1569.42094	0.98165
1567.36404	0.98169
1565.30713	0.98131
1563.25022	0.98098
1561.19331	0.98079
1559.13640	0.98090
1557.07949	0.98149
1555.02259	0.98205
1552.96568	0.98239
1550.90877	0.98228
1548.85186	0.98204
1546.79495	0.98221
1544.73805	0.98259
1542.68114	0.98280
1540.62423	0.98282
1538.56732	0.98259
1536.51041	0.98256
1534.45350	0.98269
1532.39660	0.98276
1530.33969	0.98285
1528.28278	0.98291
1526.22587	0.98290
1524.16896	0.98308
1522.11206	0.98340
1520.05515	0.98354
1517.99824	0.98357
1515.94133	0.98359
1513.88442	0.98359
1511.82751	0.98347
1509.77061	0.98340
1507.71370	0.98369
1505.65679	0.98378
1503.59988	0.98364
1501.54297	0.98367
1499.48607	0.98359
1497.42916	0.98344
1495.37225	0.98370
1493.31534	0.98399
1491.25843	0.98382
1489.20152	0.98355
1487.14462	0.98368
1485.08771	0.98353
1483.03080	0.98295
1480.97389	0.98234
1478.91698	0.98190
1476.86008	0.98132
1474.80317	0.98037
1472.74626	0.97922
1470.68935	0.97818
1468.63244	0.97738
1466.57553	0.97658
1464.51863	0.97550
1462.46172	0.97443
1460.40481	0.97362
1458.34790	0.97256
1456.29099	0.97100
1454.23409	0.96986
1452.17718	0.96905
1450.12027	0.96820
1448.06336	0.96688
1446.00645	0.96505
1443.94954	0.96345
1441.89264	0.96226
1439.83573	0.96136
1437.77882	0.96052
1435.72191	0.95952
1433.66500	0.95893
1431.60810	0.95886
1429.55119	0.95906
1427.49428	0.95950
1425.43737	0.96014
1423.38046	0.96094
1421.32355	0.96193
1419.26665	0.96294
1417.20974	0.96375
1415.15283	0.96443
1413.09592	0.96501
1411.03901	0.96531
1408.98211	0.96535
1406.92520	0.96539
1404.86829	0.96564
1402.81138	0.96579
1400.75447	0.96545
1398.69756	0.96473
1396.64066	0.96369
1394.58375	0.96183
1392.52684	0.95916
1390.46993	0.95621
1388.41302	0.95265
1386.35612	0.94791
1384.29921	0.94281
1382.24230	0.93782
1380.18539	0.93269
1378.12848	0.92762
1376.07157	0.92273
1374.01467	0.91798
1371.95776	0.91448
1369.90085	0.91303
1367.84394	0.91309
1365.78703	0.91467
1363.73013	0.91860
1361.67322	0.92525
1359.61631	0.93279
1357.55940	0.93989
1355.50249	0.94638
1353.44558	0.95176
1351.38868	0.95567
1349.33177	0.95825
1347.27486	0.95996
1345.21795	0.96139
1343.16104	0.96255
1341.10414	0.96326
1339.04723	0.96350
1336.99032	0.96357
1334.93341	0.96379
1332.87650	0.96406
1330.81959	0.96434
1328.76269	0.96465
1326.70578	0.96470
1324.64887	0.96421
1322.59196	0.96352
1320.53505	0.96320
1318.47815	0.96333
1316.42124	0.96342
1314.36433	0.96336
1312.30742	0.96353
1310.25051	0.96398
1308.19360	0.96449
1306.13670	0.96479
1304.07979	0.96478
1302.02288	0.96459
1299.96597	0.96411
1297.90906	0.96327
1295.85216	0.96230
1293.79525	0.96126
1291.73834	0.95995
1289.68143	0.95829
1287.62452	0.95662
1285.56761	0.95485
1283.51071	0.95241
1281.45380	0.94941
1279.39689	0.94634
1277.33998	0.94324
1275.28307	0.94005
1273.22617	0.93658
1271.16926	0.93270
1269.11235	0.92849
1267.05544	0.92395
1264.99853	0.91908
1262.94162	0.91388
1260.88472	0.90853
1258.82781	0.90329
1256.77090	0.89791
1254.71399	0.89209
1252.65708	0.88624
1250.60018	0.88064
1248.54327	0.87503
1246.48636	0.86945
1244.42945	0.86399
1242.37254	0.85843
1240.31563	0.85277
1238.25873	0.84725
1236.20182	0.84209
1234.14491	0.83747
1232.08800	0.83331
1230.03109	0.82964
1227.97419	0.82651
1225.91728	0.82416
1223.86037	0.82308
1221.80346	0.82306
1219.74655	0.82391
1217.68964	0.82621
1215.63274	0.82996
1213.57583	0.83515
1211.51892	0.84221
1209.46201	0.85073
1207.40510	0.85994
1205.34820	0.86958
1203.29129	0.87948
1201.23438	0.88943
1199.17747	0.89912
1197.12056	0.90817
1195.06365	0.91608
1193.00675	0.92259
1190.94984	0.92785
1188.89293	0.93183
1186.83602	0.93431
1184.77911	0.93555
1182.72221	0.93596
1180.66530	0.93578
1178.60839	0.93484
1176.55148	0.93303
1174.49457	0.93088
1172.43766	0.92866
1170.38076	0.92652
1168.32385	0.92470
1166.26694	0.92315
1164.21003	0.92193
1162.15312	0.92140
1160.09622	0.92162
1158.03931	0.92231
1155.98240	0.92356
1153.92549	0.92525
1151.86858	0.92697
1149.81167	0.92869
1147.75477	0.93044
1145.69786	0.93178
1143.64095	0.93222
1141.58404	0.93181
1139.52713	0.93085
1137.47023	0.92956
1135.41332	0.92788
1133.35641	0.92572
1131.29950	0.92325
1129.24259	0.92092
1127.18568	0.91910
1125.12878	0.91741
1123.07187	0.91549
1121.01496	0.91378
1118.95805	0.91255
1116.90114	0.91169
1114.84424	0.91095
1112.78733	0.91002
1110.73042	0.90891
1108.67351	0.90781
1106.61660	0.90692
1104.55969	0.90643
1102.50279	0.90583
1100.44588	0.90469
1098.38897	0.90329
1096.33206	0.90148
1094.27515	0.89893
1092.21825	0.89590
1090.16134	0.89263
1088.10443	0.88884
1086.04752	0.88435
1083.99061	0.87983
1081.93370	0.87576
1079.87680	0.87190
1077.81989	0.86790
1075.76298	0.86385
1073.70607	0.86043
1071.64916	0.85757
1069.59226	0.85442
1067.53535	0.85100
1065.47844	0.84777
1063.42153	0.84480
1061.36462	0.84194
1059.30771	0.83892
1057.25081	0.83557
1055.19390	0.83199
1053.13699	0.82823
1051.08008	0.82445
1049.02317	0.82089
1046.96627	0.81743
1044.90936	0.81390
1042.85245	0.81060
1040.79554	0.80760
1038.73863	0.80433
1036.68172	0.80081
1034.62482	0.79750
1032.56791	0.79482
1030.51100	0.79325
1028.45409	0.79261
1026.39718	0.79248
1024.34028	0.79322
1022.28337	0.79500
1020.22646	0.79738
1018.16955	0.80014
1016.11264	0.80324
1014.05573	0.80661
1011.99883	0.81018
1009.94192	0.81404
1007.88501	0.81846
1005.82810	0.82309
1003.77119	0.82724
1001.71429	0.83109
999.65738	0.83507
997.60047	0.83906
995.54356	0.84274
993.48665	0.84625
991.42974	0.84992
989.37284	0.85353
987.31593	0.85663
985.25902	0.85946
983.20211	0.86248
981.14520	0.86525
979.08830	0.86752
977.03139	0.87009
974.97448	0.87328
972.91757	0.87676
970.86066	0.88054
968.80375	0.88481
966.74685	0.88949
964.68994	0.89376
962.63303	0.89705
960.57612	0.89982
958.51921	0.90222
956.46231	0.90407
954.40540	0.90576
952.34849	0.90767
950.29158	0.90946
948.23467	0.91092
946.17776	0.91245
944.12086	0.91437
942.06395	0.91635
940.00704	0.91793
937.95013	0.91901
935.89322	0.91986
933.83632	0.92051
931.77941	0.92046
929.72250	0.91947
927.66559	0.91849
925.60868	0.91848
923.55177	0.91873
921.49487	0.91816
919.43796	0.91711
917.38105	0.91605
915.32414	0.91488
913.26723	0.91395
911.21033	0.91351
909.15342	0.91287
907.09651	0.91191
905.03960	0.91165
902.98269	0.91219
900.92578	0.91241
898.86888	0.91225
896.81197	0.91289
894.75506	0.91481
892.69815	0.91693
890.64124	0.91825
888.58434	0.91925
886.52743	0.92072
884.47052	0.92245
882.41361	0.92423
880.35670	0.92627
878.29979	0.92849
876.24289	0.93108
874.18598	0.93381
872.12907	0.93592
870.07216	0.93758
868.01525	0.93938
865.95835	0.94141
863.90144	0.94352
861.84453	0.94516
859.78762	0.94586
857.73071	0.94598
855.67380	0.94605
853.61690	0.94612
851.55999	0.94609
849.50308	0.94591
847.44617	0.94544
845.38926	0.94502
843.33236	0.94507
841.27545	0.94510
839.21854	0.94499
837.16163	0.94547
835.10472	0.94665
833.04781	0.94775
830.99091	0.94841
828.93400	0.94889
826.87709	0.94948
824.82018	0.95072
822.76327	0.95262
820.70637	0.95410
818.64946	0.95460
816.59255	0.95455
814.53564	0.95459
812.47873	0.95504
810.42182	0.95563
808.36492	0.95609
806.30801	0.95629
804.25110	0.95617
802.19419	0.95606
800.13728	0.95650
798.08038	0.95698
796.02347	0.95684
793.96656	0.95675
791.90965	0.95680
789.85274	0.95683
787.79583	0.95699
785.73893	0.95728
783.68202	0.95771
781.62511	0.95770
779.56820	0.95728
777.51129	0.95732
775.45439	0.95777
773.39748	0.95792
771.34057	0.95806
769.28366	0.95821
767.22675	0.95797
765.16984	0.95784
763.11294	0.95792
761.05603	0.95806
758.99912	0.95846
756.94221	0.95856
754.88530	0.95807
752.82839	0.95777
750.77149	0.95802
748.71458	0.95843
746.65767	0.95872
744.60076	0.95862
742.54385	0.95825
740.48695	0.95780
738.43004	0.95733
736.37313	0.95699
734.31622	0.95672
732.25931	0.95645
730.20240	0.95560
728.14550	0.95415
726.08859	0.95322
724.03168	0.95297
721.97477	0.95263
719.91786	0.95211
717.86096	0.95169
715.80405	0.95128
713.74714	0.95060
711.69023	0.95000
709.63332	0.94986
707.57641	0.94967
705.51951	0.94932
703.46260	0.94892
701.40569	0.94815
699.34878	0.94737
697.29187	0.94677
695.23497	0.94607
693.17806	0.94568
691.12115	0.94570
689.06424	0.94522
687.00733	0.94441
684.95042	0.94419
682.89352	0.94376
680.83661	0.94245
678.77970	0.94141
676.72279	0.94085
674.66588	0.94020
672.60898	0.93945
670.55207	0.93850
668.49516	0.93791
666.43825	0.93852
664.38134	0.93875
662.32443	0.93830
660.26753	0.93817
658.21062	0.93777
656.15371	0.93635
654.09680	0.93529
652.03989	0.93501
649.98299	0.93445
647.92608	0.93319
645.86917	0.93174
643.81226	0.93033
641.75535	0.92856
639.69844	0.92694
637.64154	0.92624
635.58463	0.92579
633.52772	0.92487
631.47081	0.92357
629.41390	0.92255
627.35700	0.92233
625.30009	0.92197
623.24318	0.92082
621.18627	0.91920
619.12936	0.91691
617.07245	0.91419
615.01555	0.91139
612.95864	0.90851
610.90173	0.90519
608.84482	0.90147
606.78791	0.89854
604.73101	0.89664
602.67410	0.89556
600.61719	0.89585
598.56028	0.89754
596.50337	0.90027
594.44646	0.90333
592.38956	0.90559
590.33265	0.90678
588.27574	0.90795
586.21883	0.91009
584.16192	0.91192
582.10502	0.91177
580.04811	0.91168
577.99120	0.91340
575.93429	0.91406
573.87738	0.91240
571.82047	0.91117
569.76357	0.91085
567.70666	0.91056
565.64975	0.91057
563.59284	0.91017
561.53593	0.91004
559.47903	0.91073
557.42212	0.90996
555.36521	0.90854
553.30830	0.90916
551.25139	0.91055
549.19448	0.91056
547.13758	0.90936
545.08067	0.90765
543.02376	0.90728
540.96685	0.90845
538.90994	0.90908
536.85304	0.90969
534.79613	0.91056
532.73922	0.91011
530.68231	0.90855
528.62540	0.90753
526.56849	0.90756
524.51159	0.90751
522.45468	0.90687
520.39777	0.90616
518.34086	0.90629
516.28395	0.90711
514.22705	0.90719
512.17014	0.90650
510.11323	0.90552
508.05632	0.90449
505.99941	0.90359
503.94250	0.90207
501.88560	0.90029
499.82869	0.89910
497.77178	0.89810
495.71487	0.89746
493.65796	0.89694
491.60106	0.89688
489.54415	0.89833
487.48724	0.89972
485.43033	0.89880
483.37342	0.89660
481.31651	0.89538
479.25961	0.89587
477.20270	0.89736
475.14579	0.89760
473.08888	0.89665
471.03197	0.89604
468.97507	0.89492
466.91816	0.89238
464.86125	0.88936
462.80434	0.88751
460.74743	0.88745
458.69052	0.88869
456.63362	0.88953
454.57671	0.88946
452.51980	0.88924
450.46289	0.88900
448.40598	0.88987
446.34908	0.89123
444.29217	0.89045
442.23526	0.88873
440.17835	0.88853
438.12144	0.88852
436.06453	0.88706
434.00763	0.88562
431.95072	0.88645
429.89381	0.88719
427.83690	0.88580
425.77999	0.88576
423.72309	0.88955
421.66618	0.89550
419.60927	0.89838
417.55236	0.89533
415.49545	0.89279
413.43854	0.89264
411.38164	0.89366
409.32473	0.89301
407.26782	0.88998
405.21091	0.88894
403.15400	0.89058
401.09710	0.88944
399.04019	0.88117
