3996.57260	0.99218
3994.51569	0.99218
3992.45878	0.99192
3990.40188	0.99166
3988.34497	0.99181
3986.28806	0.99182
3984.23115	0.99143
3982.17424	0.99117
3980.11733	0.99098
3978.06043	0.99077
3976.00352	0.99149
3973.94661	0.99245
3971.88970	0.99227
3969.83279	0.99179
3967.77589	0.99151
3965.71898	0.99125
3963.66207	0.99156
3961.60516	0.99224
3959.54825	0.99248
3957.49134	0.99210
3955.43444	0.99159
3953.37753	0.99134
3951.32062	0.99141
3949.26371	0.99177
3947.20680	0.99219
3945.14990	0.99256
3943.09299	0.99291
3941.03608	0.99331
3938.97917	0.99333
3936.92226	0.99285
3934.86535	0.99253
3932.80845	0.99210
3930.75154	0.99128
3928.69463	0.99070
3926.63772	0.99039
3924.58081	0.99029
3922.52391	0.99111
3920.46700	0.99245
3918.41009	0.99281
3916.35318	0.99194
3914.29627	0.99144
3912.23936	0.99143
3910.18246	0.99127
3908.12555	0.99149
3906.06864	0.99243
3904.01173	0.99337
3901.95482	0.99331
3899.89792	0.99252
3897.84101	0.99169
3895.78410	0.99104
3893.72719	0.99073
3891.67028	0.99082
3889.61337	0.99105
3887.55647	0.99122
3885.49956	0.99148
3883.44265	0.99110
3881.38574	0.98979
3879.32883	0.98975
3877.27193	0.99131
3875.21502	0.99221
3873.15811	0.99205
3871.10120	0.99153
3869.04429	0.99129
3866.98738	0.99229
3864.93048	0.99375
3862.87357	0.99353
3860.81666	0.99207
3858.75975	0.99164
3856.70284	0.99240
3854.64594	0.99281
3852.58903	0.99152
3850.53212	0.99086
3848.47521	0.99117
3846.41830	0.99129
3844.36139	0.99136
3842.30449	0.99143
3840.24758	0.99113
3838.19067	0.99098
3836.13376	0.99170
3834.07685	0.99264
3832.01995	0.99287
3829.96304	0.99237
3827.90613	0.99181
3825.84922	0.99155
3823.79231	0.99162
3821.73540	0.99251
3819.67850	0.99405
3817.62159	0.99418
3815.56468	0.99312
3813.50777	0.99266
3811.45086	0.99264
3809.39396	0.99221
3807.33705	0.99179
3805.28014	0.99249
3803.22323	0.99333
3801.16632	0.99247
3799.10941	0.99091
3797.05251	0.99070
3794.99560	0.99136
3792.93869	0.99173
3790.88178	0.99177
3788.82487	0.99184
3786.76796	0.99193
3784.71106	0.99196
3782.65415	0.99216
3780.59724	0.99250
3778.54033	0.99246
3776.48342	0.99227
3774.42652	0.99248
3772.36961	0.99290
3770.31270	0.99271
3768.25579	0.99164
3766.19888	0.99102
3764.14197	0.99134
3762.08507	0.99195
3760.02816	0.99242
3757.97125	0.99251
3755.91434	0.99204
3753.85743	0.99117
3751.80053	0.99072
3749.74362	0.99092
3747.68671	0.99102
3745.62980	0.99183
3743.57289	0.99267
3741.51598	0.99181
3739.45908	0.99067
3737.40217	0.98996
3735.34526	0.98998
3733.28835	0.99116
3731.23144	0.99212
3729.17454	0.99229
3727.11763	0.99220
3725.06072	0.99209
3723.00381	0.99203
3720.94690	0.99198
3718.88999	0.99178
3716.83309	0.99135
3714.77618	0.99111
3712.71927	0.99167
3710.66236	0.99273
3708.60545	0.99336
3706.54855	0.99390
3704.49164	0.99446
3702.43473	0.99422
3700.37782	0.99330
3698.32091	0.99257
3696.26400	0.99174
3694.20710	0.99132
3692.15019	0.99190
3690.09328	0.99227
3688.03637	0.99196
3685.97946	0.99179
3683.92256	0.99182
3681.86565	0.99239
3679.80874	0.99301
3677.75183	0.99298
3675.69492	0.99259
3673.63801	0.99204
3671.58111	0.99159
3669.52420	0.99145
3667.46729	0.99152
3665.41038	0.99121
3663.35347	0.99071
3661.29657	0.99068
3659.23966	0.99114
3657.18275	0.99200
3655.12584	0.99258
3653.06893	0.99216
3651.01202	0.99120
3648.95512	0.99040
3646.89821	0.99043
3644.84130	0.99056
3642.78439	0.99032
3640.72748	0.99013
3638.67058	0.99013
3636.61367	0.99012
3634.55676	0.99039
3632.49985	0.99086
3630.44294	0.99090
3628.38603	0.99032
3626.32913	0.98986
3624.27222	0.98971
3622.21531	0.98980
3620.15840	0.98986
3618.10149	0.98942
3616.04459	0.98920
3613.98768	0.98919
3611.93077	0.98863
3609.87386	0.98872
3607.81695	0.98995
3605.76004	0.99043
3603.70314	0.99006
3601.64623	0.98990
3599.58932	0.98994
3597.53241	0.98999
3595.47550	0.99014
3593.41860	0.98997
3591.36169	0.98902
3589.30478	0.98782
3587.24787	0.98735
3585.19096	0.98802
3583.13405	0.98883
3581.07715	0.98920
3579.02024	0.98952
3576.96333	0.99021
3574.90642	0.99078
3572.84951	0.99036
3570.79261	0.98912
3568.73570	0.98785
3566.67879	0.98752
3564.62188	0.98845
3562.56497	0.98902
3560.50806	0.98879
3558.45116	0.98849
3556.39425	0.98822
3554.33734	0.98777
3552.28043	0.98725
3550.22352	0.98708
3548.16662	0.98742
3546.10971	0.98775
3544.05280	0.98770
3541.99589	0.98739
3539.93898	0.98723
3537.88207	0.98709
3535.82517	0.98655
3533.76826	0.98605
3531.71135	0.98582
3529.65444	0.98588
3527.59753	0.98664
3525.54063	0.98735
3523.48372	0.98711
3521.42681	0.98648
3519.36990	0.98642
3517.31299	0.98650
3515.25608	0.98588
3513.19918	0.98524
3511.14227	0.98551
3509.08536	0.98590
3507.02845	0.98530
3504.97154	0.98399
3502.91464	0.98346
3500.85773	0.98436
3498.80082	0.98539
3496.74391	0.98606
3494.68700	0.98643
3492.63009	0.98574
3490.57319	0.98482
3488.51628	0.98521
3486.45937	0.98609
3484.40246	0.98614
3482.34555	0.98572
3480.28865	0.98567
3478.23174	0.98625
3476.17483	0.98661
3474.11792	0.98641
3472.06101	0.98619
3470.00410	0.98573
3467.94720	0.98506
3465.89029	0.98476
3463.83338	0.98505
3461.77647	0.98573
3459.71956	0.98634
3457.66266	0.98668
3455.60575	0.98699
3453.54884	0.98749
3451.49193	0.98758
3449.43502	0.98709
3447.37811	0.98645
3445.32121	0.98578
3443.26430	0.98574
3441.20739	0.98628
3439.15048	0.98647
3437.09357	0.98626
3435.03667	0.98592
3432.97976	0.98591
3430.92285	0.98630
3428.86594	0.98628
3426.80903	0.98597
3424.75212	0.98610
3422.69522	0.98638
3420.63831	0.98644
3418.58140	0.98648
3416.52449	0.98675
3414.46758	0.98728
3412.41068	0.98771
3410.35377	0.98763
3408.29686	0.98717
3406.23995	0.98693
3404.18304	0.98731
3402.12613	0.98814
3400.06923	0.98856
3398.01232	0.98826
3395.95541	0.98788
3393.89850	0.98768
3391.84159	0.98753
3389.78469	0.98736
3387.72778	0.98714
3385.67087	0.98704
3383.61396	0.98718
3381.55705	0.98740
3379.50014	0.98768
3377.44324	0.98783
3375.38633	0.98752
3373.32942	0.98717
3371.27251	0.98744
3369.21560	0.98809
3367.15870	0.98801
3365.10179	0.98739
3363.04488	0.98714
3360.98797	0.98725
3358.93106	0.98735
3356.87415	0.98742
3354.81725	0.98768
3352.76034	0.98805
3350.70343	0.98827
3348.64652	0.98818
3346.58961	0.98813
3344.53271	0.98828
3342.47580	0.98826
3340.41889	0.98811
3338.36198	0.98817
3336.30507	0.98882
3334.24816	0.98952
3332.19126	0.98927
3330.13435	0.98855
3328.07744	0.98828
3326.02053	0.98859
3323.96362	0.98919
3321.90672	0.98954
3319.84981	0.98944
3317.79290	0.98936
3315.73599	0.98967
3313.67908	0.98993
3311.62217	0.98992
3309.56527	0.98989
3307.50836	0.98939
3305.45145	0.98881
3303.39454	0.98911
3301.33763	0.98977
3299.28073	0.99004
3297.22382	0.98988
3295.16691	0.98972
3293.11000	0.98977
3291.05309	0.98973
3288.99618	0.98964
3286.93928	0.98956
3284.88237	0.98946
3282.82546	0.98965
3280.76855	0.98995
3278.71164	0.98985
3276.65474	0.98962
3274.59783	0.98956
3272.54092	0.98942
3270.48401	0.98951
3268.42710	0.98980
3266.37019	0.98969
3264.31329	0.98943
3262.25638	0.98932
3260.19947	0.98940
3258.14256	0.98957
3256.08565	0.98948
3254.02875	0.98948
3251.97184	0.98973
3249.91493	0.98993
3247.85802	0.99000
3245.80111	0.98969
3243.74420	0.98923
3241.68730	0.98926
3239.63039	0.98978
3237.57348	0.99031
3235.51657	0.99043
3233.45966	0.99041
3231.40276	0.99078
3229.34585	0.99129
3227.28894	0.99134
3225.23203	0.99079
3223.17512	0.99022
3221.11821	0.99000
3219.06131	0.98995
3217.00440	0.98996
3214.94749	0.99005
3212.89058	0.99023
3210.83367	0.99036
3208.77677	0.99055
3206.71986	0.99077
3204.66295	0.99077
3202.60604	0.99072
3200.54913	0.99073
3198.49222	0.99083
3196.43532	0.99085
3194.37841	0.99067
3192.32150	0.99056
3190.26459	0.99041
3188.20768	0.99021
3186.15078	0.99023
3184.09387	0.99026
3182.03696	0.99055
3179.98005	0.99115
3177.92314	0.99116
3175.86623	0.99060
3173.80933	0.99053
3171.75242	0.99103
3169.69551	0.99126
3167.63860	0.99122
3165.58169	0.99147
3163.52479	0.99170
3161.46788	0.99162
3159.41097	0.99129
3157.35406	0.99061
3155.29715	0.98994
3153.24024	0.98985
3151.18334	0.99011
3149.12643	0.99051
3147.06952	0.99109
3145.01261	0.99125
3142.95570	0.99096
3140.89880	0.99108
3138.84189	0.99139
3136.78498	0.99179
3134.72807	0.99234
3132.67116	0.99208
3130.61425	0.99114
3128.55735	0.99081
3126.50044	0.99101
3124.44353	0.99113
3122.38662	0.99140
3120.32971	0.99176
3118.27281	0.99173
3116.21590	0.99111
3114.15899	0.99033
3112.10208	0.99048
3110.04517	0.99139
3107.98826	0.99179
3105.93136	0.99159
3103.87445	0.99138
3101.81754	0.99131
3099.76063	0.99133
3097.70372	0.99123
3095.64682	0.99114
3093.58991	0.99122
3091.53300	0.99141
3089.47609	0.99165
3087.41918	0.99167
3085.36227	0.99142
3083.30537	0.99118
3081.24846	0.99110
3079.19155	0.99113
3077.13464	0.99113
3075.07773	0.99104
3073.02083	0.99095
3070.96392	0.99082
3068.90701	0.99063
3066.85010	0.99074
3064.79319	0.99078
3062.73628	0.99054
3060.67938	0.99076
3058.62247	0.99097
3056.56556	0.99066
3054.50865	0.99064
3052.45174	0.99093
3050.39484	0.99109
3048.33793	0.99129
3046.28102	0.99108
3044.22411	0.99049
3042.16720	0.99053
3040.11029	0.99074
3038.05339	0.99030
3035.99648	0.98998
3033.93957	0.99007
3031.88266	0.99008
3029.82575	0.99003
3027.76885	0.99008
3025.71194	0.99009
3023.65503	0.98994
3021.59812	0.98992
3019.54121	0.99012
3017.48430	0.99035
3015.42740	0.99040
3013.37049	0.99014
3011.31358	0.98999
3009.25667	0.98995
3007.19976	0.98989
3005.14286	0.99002
3003.08595	0.99012
3001.02904	0.98990
2998.97213	0.98961
2996.91522	0.98955
2994.85831	0.98955
2992.80141	0.98965
2990.74450	0.98991
2988.68759	0.98961
2986.63068	0.98874
2984.57377	0.98838
2982.51687	0.98876
2980.45996	0.98939
2978.40305	0.98992
2976.34614	0.99011
2974.28923	0.98991
2972.23232	0.98936
2970.17542	0.98880
2968.11851	0.98864
2966.06160	0.98866
2964.00469	0.98849
2961.94778	0.98817
2959.89088	0.98791
2957.83397	0.98795
2955.77706	0.98821
2953.72015	0.98823
2951.66324	0.98799
2949.60633	0.98789
2947.54943	0.98792
2945.49252	0.98800
2943.43561	0.98797
2941.37870	0.98760
2939.32179	0.98739
2937.26489	0.98762
2935.20798	0.98775
2933.15107	0.98764
2931.09416	0.98773
2929.03725	0.98805
2926.98034	0.98826
2924.92344	0.98845
2922.86653	0.98878
2920.80962	0.98893
2918.75271	0.98874
2916.69580	0.98863
2914.63890	0.98886
2912.58199	0.98887
2910.52508	0.98834
2908.46817	0.98788
2906.41126	0.98770
2904.35435	0.98765
2902.29745	0.98784
2900.24054	0.98818
2898.18363	0.98821
2896.12672	0.98800
2894.06981	0.98820
2892.01291	0.98842
2889.95600	0.98811
2887.89909	0.98779
2885.84218	0.98771
2883.78527	0.98768
2881.72836	0.98798
2879.67146	0.98848
2877.61455	0.98862
2875.55764	0.98860
2873.50073	0.98867
2871.44382	0.98869
2869.38692	0.98877
2867.33001	0.98890
2865.27310	0.98886
2863.21619	0.98889
2861.15928	0.98895
2859.10237	0.98880
2857.04547	0.98886
2854.98856	0.98932
2852.93165	0.98964
2850.87474	0.98963
2848.81783	0.98961
2846.76093	0.98969
2844.70402	0.98986
2842.64711	0.98998
2840.59020	0.99003
2838.53329	0.99010
2836.47638	0.99014
2834.41948	0.99015
2832.36257	0.99019
2830.30566	0.99038
2828.24875	0.99056
2826.19184	0.99050
2824.13494	0.99057
2822.07803	0.99083
2820.02112	0.99088
2817.96421	0.99084
2815.90730	0.99102
2813.85039	0.99105
2811.79349	0.99061
2809.73658	0.99004
2807.67967	0.98988
2805.62276	0.99031
2803.56585	0.99057
2801.50895	0.99023
2799.45204	0.99016
2797.39513	0.99064
2795.33822	0.99119
2793.28131	0.99153
2791.22440	0.99151
2789.16750	0.99133
2787.11059	0.99117
2785.05368	0.99102
2782.99677	0.99087
2780.93986	0.99071
2778.88296	0.99062
2776.82605	0.99073
2774.76914	0.99088
2772.71223	0.99073
2770.65532	0.99043
2768.59841	0.99039
2766.54151	0.99043
2764.48460	0.99037
2762.42769	0.99077
2760.37078	0.99146
2758.31387	0.99168
2756.25697	0.99146
2754.20006	0.99108
2752.14315	0.99074
2750.08624	0.99076
2748.02933	0.99112
2745.97242	0.99134
2743.91552	0.99107
2741.85861	0.99055
2739.80170	0.99027
2737.74479	0.99037
2735.68788	0.99052
2733.63098	0.99048
2731.57407	0.99043
2729.51716	0.99051
2727.46025	0.99050
2725.40334	0.99048
2723.34643	0.99065
2721.28953	0.99077
2719.23262	0.99076
2717.17571	0.99064
2715.11880	0.99043
2713.06189	0.99040
2711.00499	0.99052
2708.94808	0.99078
2706.89117	0.99123
2704.83426	0.99140
2702.77735	0.99099
2700.72044	0.99044
2698.66354	0.99026
2696.60663	0.99042
2694.54972	0.99063
2692.49281	0.99074
2690.43590	0.99082
2688.37900	0.99082
2686.32209	0.99077
2684.26518	0.99079
2682.20827	0.99087
2680.15136	0.99092
2678.09445	0.99079
2676.03755	0.99057
2673.98064	0.99051
2671.92373	0.99078
2669.86682	0.99098
2667.80991	0.99054
2665.75301	0.99005
2663.69610	0.99021
2661.63919	0.99035
2659.58228	0.99011
2657.52537	0.99010
2655.46846	0.99051
2653.41156	0.99082
2651.35465	0.99047
2649.29774	0.98981
2647.24083	0.98978
2645.18392	0.99025
2643.12702	0.99032
2641.07011	0.99003
2639.01320	0.98993
2636.95629	0.99016
2634.89938	0.99040
2632.84247	0.99027
2630.78557	0.99022
2628.72866	0.99057
2626.67175	0.99068
2624.61484	0.99030
2622.55793	0.99018
2620.50103	0.99056
2618.44412	0.99075
2616.38721	0.99076
2614.33030	0.99110
2612.27339	0.99126
2610.21648	0.99097
2608.15958	0.99081
2606.10267	0.99070
2604.04576	0.99059
2601.98885	0.99079
2599.93194	0.99088
2597.87504	0.99039
2595.81813	0.98960
2593.76122	0.98935
2591.70431	0.98995
2589.64740	0.99076
2587.59049	0.99118
2585.53359	0.99118
2583.47668	0.99087
2581.41977	0.99073
2579.36286	0.99112
2577.30595	0.99143
2575.24905	0.99123
2573.19214	0.99088
2571.13523	0.99071
2569.07832	0.99096
2567.02141	0.99145
2564.96450	0.99154
2562.90760	0.99119
2560.85069	0.99088
2558.79378	0.99075
2556.73687	0.99082
2554.67996	0.99110
2552.62306	0.99130
2550.56615	0.99124
2548.50924	0.99093
2546.45233	0.99087
2544.39542	0.99150
2542.33851	0.99182
2540.28161	0.99152
2538.22470	0.99147
2536.16779	0.99152
2534.11088	0.99137
2532.05397	0.99103
2529.99707	0.99026
2527.94016	0.98970
2525.88325	0.99043
2523.82634	0.99148
2521.76943	0.99140
2519.71252	0.99089
2517.65562	0.99063
2515.59871	0.99060
2513.54180	0.99083
2511.48489	0.99073
2509.42798	0.99034
2507.37108	0.99049
2505.31417	0.99130
2503.25726	0.99226
2501.20035	0.99307
2499.14344	0.99323
2497.08653	0.99247
2495.02963	0.99150
2492.97272	0.99115
2490.91581	0.99102
2488.85890	0.99062
2486.80199	0.99053
2484.74509	0.99072
2482.68818	0.99108
2480.63127	0.99194
2478.57436	0.99225
2476.51745	0.99135
2474.46054	0.99029
2472.40364	0.98964
2470.34673	0.98986
2468.28982	0.99107
2466.23291	0.99205
2464.17600	0.99193
2462.11910	0.99077
2460.06219	0.98961
2458.00528	0.98946
2455.94837	0.98985
2453.89146	0.99010
2451.83455	0.99033
2449.77765	0.99053
2447.72074	0.99083
2445.66383	0.99145
2443.60692	0.99181
2441.55001	0.99165
2439.49311	0.99149
2437.43620	0.99145
2435.37929	0.99131
2433.32238	0.99123
2431.26547	0.99129
2429.20856	0.99139
2427.15166	0.99133
2425.09475	0.99114
2423.03784	0.99148
2420.98093	0.99192
2418.92402	0.99160
2416.86712	0.99086
2414.81021	0.99014
2412.75330	0.98966
2410.69639	0.98962
2408.63948	0.98984
2406.58257	0.99034
2404.52567	0.99124
2402.46876	0.99190
2400.41185	0.99177
2398.35494	0.99120
2396.29803	0.99082
2394.24113	0.99096
2392.18422	0.99136
2390.12731	0.99148
2388.07040	0.99144
2386.01349	0.99139
2383.95658	0.99090
2381.89968	0.99027
2379.84277	0.99017
2377.78586	0.99041
2375.72895	0.99025
2373.67204	0.99016
2371.61514	0.99137
2369.55823	0.99303
2367.50132	0.99394
2365.44441	0.99412
2363.38750	0.99351
2361.33059	0.99238
2359.27369	0.99102
2357.21678	0.99034
2355.15987	0.99041
2353.10296	0.99039
2351.04605	0.99080
2348.98915	0.99147
2346.93224	0.99178
2344.87533	0.99181
2342.81842	0.99167
2340.76151	0.99141
2338.70460	0.99124
2336.64770	0.99066
2334.59079	0.98965
2332.53388	0.98944
2330.47697	0.98981
2328.42006	0.98997
2326.36316	0.99023
2324.30625	0.99019
2322.24934	0.98982
2320.19243	0.99024
2318.13552	0.99109
2316.07861	0.99115
2314.02171	0.99057
2311.96480	0.99023
2309.90789	0.99021
2307.85098	0.99000
2305.79407	0.99004
2303.73717	0.99069
2301.68026	0.99104
2299.62335	0.99095
2297.56644	0.99101
2295.50953	0.99075
2293.45262	0.98977
2291.39572	0.98877
2289.33881	0.98868
2287.28190	0.98947
2285.22499	0.99016
2283.16808	0.99034
2281.11117	0.99045
2279.05427	0.99083
2276.99736	0.99155
2274.94045	0.99188
2272.88354	0.99141
2270.82663	0.99048
2268.76973	0.98948
2266.71282	0.98900
2264.65591	0.98932
2262.59900	0.99005
2260.54209	0.99006
2258.48518	0.98962
2256.42828	0.98983
2254.37137	0.98992
2252.31446	0.98939
2250.25755	0.98919
2248.20064	0.98961
2246.14374	0.98955
2244.08683	0.98888
2242.02992	0.98891
2239.97301	0.98967
2237.91610	0.98987
2235.85919	0.98894
2233.80229	0.98818
2231.74538	0.98856
2229.68847	0.98855
2227.63156	0.98768
2225.57465	0.98722
2223.51775	0.98737
2221.46084	0.98788
2219.40393	0.98863
2217.34702	0.98888
2215.29011	0.98889
2213.23320	0.98944
2211.17630	0.99000
2209.11939	0.99062
2207.06248	0.99114
2205.00557	0.99083
2202.94866	0.99041
2200.89176	0.98962
2198.83485	0.98813
2196.77794	0.98808
2194.72103	0.98960
2192.66412	0.98979
2190.60721	0.98803
2188.55031	0.98705
2186.49340	0.98868
2184.43649	0.99139
2182.37958	0.99200
2180.32267	0.99019
2178.26577	0.98966
2176.20886	0.99074
2174.15195	0.98977
2172.09504	0.98747
2170.03813	0.98735
2167.98122	0.98804
2165.92432	0.98700
2163.86741	0.98670
2161.81050	0.98822
2159.75359	0.98901
2157.69668	0.98868
2155.63978	0.98931
2153.58287	0.99042
2151.52596	0.99058
2149.46905	0.99035
2147.41214	0.98978
2145.35523	0.98928
2143.29833	0.98944
2141.24142	0.98964
2139.18451	0.98990
2137.12760	0.99091
2135.07069	0.99167
2133.01379	0.99100
2130.95688	0.99025
2128.89997	0.99049
2126.84306	0.99091
2124.78615	0.99096
2122.72924	0.99123
2120.67234	0.99164
2118.61543	0.99132
2116.55852	0.99005
2114.50161	0.98854
2112.44470	0.98796
2110.38780	0.98901
2108.33089	0.99122
2106.27398	0.99282
2104.21707	0.99296
2102.16016	0.99209
2100.10325	0.99095
2098.04635	0.99047
2095.98944	0.98977
2093.93253	0.98880
2091.87562	0.98916
2089.81871	0.98948
2087.76181	0.98890
2085.70490	0.98932
2083.64799	0.99039
2081.59108	0.99032
2079.53417	0.98966
2077.47726	0.98984
2075.42036	0.99048
2073.36345	0.99042
2071.30654	0.98974
2069.24963	0.98895
2067.19272	0.98808
2065.13582	0.98826
2063.07891	0.99006
2061.02200	0.99156
2058.96509	0.99163
2056.90818	0.99113
2054.85127	0.99045
2052.79437	0.98931
2050.73746	0.98907
2048.68055	0.99085
2046.62364	0.99194
2044.56673	0.99051
2042.50983	0.98848
2040.45292	0.98709
2038.39601	0.98726
2036.33910	0.98918
2034.28219	0.99071
2032.22528	0.99010
2030.16838	0.98876
2028.11147	0.98946
2026.05456	0.99142
2023.99765	0.99112
2021.94074	0.98889
2019.88384	0.98850
2017.82693	0.98950
2015.77002	0.98989
2013.71311	0.99068
2011.65620	0.99182
2009.59929	0.99155
2007.54239	0.99033
2005.48548	0.99080
2003.42857	0.99215
2001.37166	0.99239
1999.31475	0.99147
1997.25785	0.99071
1995.20094	0.99164
1993.14403	0.99190
1991.08712	0.98995
1989.03021	0.98910
1986.97330	0.99047
1984.91640	0.99104
1982.85949	0.98994
1980.80258	0.98942
1978.74567	0.98979
1976.68876	0.98952
1974.63186	0.98972
1972.57495	0.99213
1970.51804	0.99363
1968.46113	0.99207
1966.40422	0.99114
1964.34731	0.99203
1962.29041	0.99130
1960.23350	0.98948
1958.17659	0.98973
1956.11968	0.99053
1954.06277	0.98981
1952.00587	0.98915
1949.94896	0.98959
1947.89205	0.99136
1945.83514	0.99363
1943.77823	0.99379
1941.72132	0.99258
1939.66442	0.99227
1937.60751	0.99180
1935.55060	0.99105
1933.49369	0.99108
1931.43678	0.99145
1929.37988	0.99158
1927.32297	0.99179
1925.26606	0.99273
1923.20915	0.99322
1921.15224	0.99240
1919.09533	0.99165
1917.03843	0.99126
1914.98152	0.99094
1912.92461	0.99126
1910.86770	0.99200
1908.81079	0.99199
1906.75389	0.99138
1904.69698	0.99113
1902.64007	0.99117
1900.58316	0.99116
1898.52625	0.99110
1896.46934	0.99150
1894.41244	0.99233
1892.35553	0.99296
1890.29862	0.99308
1888.24171	0.99313
1886.18480	0.99353
1884.12790	0.99322
1882.07099	0.99230
1880.01408	0.99227
1877.95717	0.99259
1875.90026	0.99248
1873.84335	0.99256
1871.78645	0.99263
1869.72954	0.99225
1867.67263	0.99240
1865.61572	0.99344
1863.55881	0.99405
1861.50191	0.99383
1859.44500	0.99346
1857.38809	0.99317
1855.33118	0.99284
1853.27427	0.99265
1851.21736	0.99255
1849.16046	0.99291
1847.10355	0.99347
1845.04664	0.99340
1842.98973	0.99311
1840.93282	0.99287
1838.87592	0.99252
1836.81901	0.99242
1834.76210	0.99264
1832.70519	0.99288
1830.64828	0.99306
1828.59137	0.99329
1826.53447	0.99345
1824.47756	0.99326
1822.42065	0.99275
1820.36374	0.99218
1818.30683	0.99196
1816.24993	0.99219
1814.19302	0.99222
1812.13611	0.99216
1810.07920	0.99266
1808.02229	0.99339
1805.96538	0.99352
1803.90848	0.99312
1801.85157	0.99263
1799.79466	0.99224
1797.73775	0.99212
1795.68084	0.99217
1793.62394	0.99207
1791.56703	0.99167
1789.51012	0.99151
1787.45321	0.99160
1785.39630	0.99138
1783.33939	0.99070
1781.28249	0.98973
1779.22558	0.98865
1777.16867	0.98803
1775.11176	0.98755
1773.05485	0.98576
1770.99795	0.98243
1768.94104	0.97910
1766.88413	0.97593
1764.82722	0.97257
1762.77031	0.96783
1760.71340	0.96162
1758.65650	0.95613
1756.59959	0.95120
1754.54268	0.94689
1752.48577	0.94322
1750.42886	0.93931
1748.37196	0.93559
1746.31505	0.93272
1744.25814	0.93022
1742.20123	0.92790
1740.14432	0.92585
1738.08741	0.92446
1736.03051	0.92389
1733.97360	0.92338
1731.91669	0.92342
1729.85978	0.92467
1727.80287	0.92659
1725.74597	0.92882
1723.68906	0.93139
1721.63215	0.93427
1719.57524	0.93748
1717.51833	0.94145
1715.46142	0.94599
1713.40452	0.95023
1711.34761	0.95396
1709.29070	0.95698
1707.23379	0.95949
1705.17688	0.96206
1703.11998	0.96455
1701.06307	0.96706
1699.00616	0.96970
1696.94925	0.97202
1694.89234	0.97391
1692.83543	0.97509
1690.77853	0.97605
1688.72162	0.97709
1686.66471	0.97789
1684.60780	0.97806
1682.55089	0.97811
1680.49399	0.97877
1678.43708	0.97947
1676.38017	0.97988
1674.32326	0.98047
1672.26635	0.98135
1670.20944	0.98179
1668.15254	0.98192
1666.09563	0.98206
1664.03872	0.98191
1661.98181	0.98173
1659.92490	0.98197
1657.86800	0.98236
1655.81109	0.98260
1653.75418	0.98242
1651.69727	0.98226
1649.64036	0.98242
1647.58345	0.98225
1645.52655	0.98184
1643.46964	0.98170
1641.41273	0.98181
1639.35582	0.98209
1637.29891	0.98223
1635.24201	0.98210
1633.18510	0.98212
1631.12819	0.98238
1629.07128	0.98252
1627.01437	0.98244
1624.95746	0.98243
1622.90056	0.98275
1620.84365	0.98330
1618.78674	0.98380
1616.72983	0.98429
1614.67292	0.98490
1612.61602	0.98555
1610.55911	0.98612
1608.50220	0.98624
1606.44529	0.98599
1604.38838	0.98584
1602.33147	0.98595
1600.27457	0.98623
1598.21766	0.98653
1596.16075	0.98677
1594.10384	0.98691
1592.04693	0.98697
1589.99003	0.98709
1587.93312	0.98724
1585.87621	0.98739
1583.81930	0.98761
1581.76239	0.98771
1579.70548	0.98743
1577.64858	0.98716
1575.59167	0.98751
1573.53476	0.98803
1571.47785	0.98834
1569.42094	0.98875
1567.36404	0.98898
1565.30713	0.98867
1563.25022	0.98810
1561.19331	0.98776
1559.13640	0.98812
1557.07949	0.98877
1555.02259	0.98856
1552.96568	0.98819
1550.90877	0.98811
1548.85186	0.98821
1546.79495	0.98844
1544.73805	0.98858
1542.68114	0.98835
1540.62423	0.98823
1538.56732	0.98858
1536.51041	0.98893
1534.45350	0.98908
1532.39660	0.98902
1530.33969	0.98908
1528.28278	0.98930
1526.22587	0.98940
1524.16896	0.98941
1522.11206	0.98928
1520.05515	0.98890
1517.99824	0.98877
1515.94133	0.98898
1513.88442	0.98923
1511.82751	0.98939
1509.77061	0.98941
1507.71370	0.98935
1505.65679	0.98947
1503.59988	0.98942
1501.54297	0.98917
1499.48607	0.98906
1497.42916	0.98935
1495.37225	0.98989
1493.31534	0.99027
1491.25843	0.99015
1489.20152	0.98928
1487.14462	0.98865
1485.08771	0.98892
1483.03080	0.98941
1480.97389	0.98970
1478.91698	0.98965
1476.86008	0.98931
1474.80317	0.98893
1472.74626	0.98827
1470.68935	0.98767
1468.63244	0.98750
1466.57553	0.98711
1464.51863	0.98643
1462.46172	0.98601
1460.40481	0.98565
1458.34790	0.98466
1456.29099	0.98347
1454.23409	0.98319
1452.17718	0.98280
1450.12027	0.98211
1448.06336	0.98144
1446.00645	0.98065
1443.94954	0.97992
1441.89264	0.97951
1439.83573	0.97926
1437.77882	0.97864
1435.72191	0.97762
1433.66500	0.97708
1431.60810	0.97703
1429.55119	0.97726
1427.49428	0.97766
1425.43737	0.97806
1423.38046	0.97863
1421.32355	0.97922
1419.26665	0.97974
1417.20974	0.98050
1415.15283	0.98120
1413.09592	0.98152
1411.03901	0.98176
1408.98211	0.98225
1406.92520	0.98259
1404.86829	0.98247
1402.81138	0.98254
1400.75447	0.98282
1398.69756	0.98260
1396.64066	0.98183
1394.58375	0.98057
1392.52684	0.97900
1390.46993	0.97738
1388.41302	0.97520
1386.35612	0.97244
1384.29921	0.96975
1382.24230	0.96701
1380.18539	0.96409
1378.12848	0.96121
1376.07157	0.95829
1374.01467	0.95519
1371.95776	0.95258
1369.90085	0.95060
1367.84394	0.94917
1365.78703	0.94920
1363.73013	0.95107
1361.67322	0.95474
1359.61631	0.95948
1357.55940	0.96435
1355.50249	0.96881
1353.44558	0.97249
1351.38868	0.97544
1349.33177	0.97762
1347.27486	0.97906
1345.21795	0.98014
1343.16104	0.98101
1341.10414	0.98138
1339.04723	0.98138
1336.99032	0.98142
1334.93341	0.98163
1332.87650	0.98197
1330.81959	0.98220
1328.76269	0.98216
1326.70578	0.98182
1324.64887	0.98136
1322.59196	0.98122
1320.53505	0.98151
1318.47815	0.98199
1316.42124	0.98241
1314.36433	0.98247
1312.30742	0.98231
1310.25051	0.98242
1308.19360	0.98286
1306.13670	0.98339
1304.07979	0.98364
1302.02288	0.98338
1299.96597	0.98293
1297.90906	0.98259
1295.85216	0.98208
1293.79525	0.98137
1291.73834	0.98086
1289.68143	0.98038
1287.62452	0.97964
1285.56761	0.97864
1283.51071	0.97755
1281.45380	0.97650
1279.39689	0.97522
1277.33998	0.97352
1275.28307	0.97150
1273.22617	0.96933
1271.16926	0.96714
1269.11235	0.96501
1267.05544	0.96295
1264.99853	0.96083
1262.94162	0.95849
1260.88472	0.95575
1258.82781	0.95254
1256.77090	0.94900
1254.71399	0.94537
1252.65708	0.94172
1250.60018	0.93817
1248.54327	0.93459
1246.48636	0.93075
1244.42945	0.92694
1242.37254	0.92326
1240.31563	0.91938
1238.25873	0.91546
1236.20182	0.91189
1234.14491	0.90868
1232.08800	0.90565
1230.03109	0.90298
1227.97419	0.90096
1225.91728	0.89936
1223.86037	0.89793
1221.80346	0.89671
1219.74655	0.89594
1217.68964	0.89559
1215.63274	0.89546
1213.57583	0.89587
1211.51892	0.89724
1209.46201	0.89966
1207.40510	0.90322
1205.34820	0.90781
1203.29129	0.91321
1201.23438	0.91923
1199.17747	0.92552
1197.12056	0.93173
1195.06365	0.93751
1193.00675	0.94255
1190.94984	0.94662
1188.89293	0.94974
1186.83602	0.95199
1184.77911	0.95349
1182.72221	0.95444
1180.66530	0.95504
1178.60839	0.95534
1176.55148	0.95519
1174.49457	0.95468
1172.43766	0.95394
1170.38076	0.95314
1168.32385	0.95278
1166.26694	0.95284
1164.21003	0.95268
1162.15312	0.95218
1160.09622	0.95197
1158.03931	0.95271
1155.98240	0.95402
1153.92549	0.95529
1151.86858	0.95652
1149.81167	0.95759
1147.75477	0.95826
1145.69786	0.95882
1143.64095	0.95950
1141.58404	0.95975
1139.52713	0.95943
1137.47023	0.95888
1135.41332	0.95823
1133.35641	0.95748
1131.29950	0.95644
1129.24259	0.95531
1127.18568	0.95446
1125.12878	0.95357
1123.07187	0.95281
1121.01496	0.95276
1118.95805	0.95295
1116.90114	0.95274
1114.84424	0.95240
1112.78733	0.95224
1110.73042	0.95220
1108.67351	0.95214
1106.61660	0.95190
1104.55969	0.95146
1102.50279	0.95095
1100.44588	0.95055
1098.38897	0.95006
1096.33206	0.94910
1094.27515	0.94782
1092.21825	0.94620
1090.16134	0.94415
1088.10443	0.94192
1086.04752	0.93986
1083.99061	0.93774
1081.93370	0.93549
1079.87680	0.93343
1077.81989	0.93124
1075.76298	0.92890
1073.70607	0.92680
1071.64916	0.92477
1069.59226	0.92281
1067.53535	0.92105
1065.47844	0.91908
1063.42153	0.91688
1061.36462	0.91473
1059.30771	0.91228
1057.25081	0.90971
1055.19390	0.90740
1053.13699	0.90488
1051.08008	0.90194
1049.02317	0.89918
1046.96627	0.89699
1044.90936	0.89505
1042.85245	0.89299
1040.79554	0.89102
1038.73863	0.88914
1036.68172	0.88726
1034.62482	0.88568
1032.56791	0.88442
1030.51100	0.88336
1028.45409	0.88278
1026.39718	0.88309
1024.34028	0.88430
1022.28337	0.88626
1020.22646	0.88868
1018.16955	0.89095
1016.11264	0.89294
1014.05573	0.89505
1011.99883	0.89748
1009.94192	0.90004
1007.88501	0.90275
1005.82810	0.90554
1003.77119	0.90803
1001.71429	0.91016
999.65738	0.91222
997.60047	0.91436
995.54356	0.91632
993.48665	0.91792
991.42974	0.91950
989.37284	0.92092
987.31593	0.92199
985.25902	0.92338
983.20211	0.92510
981.14520	0.92649
979.08830	0.92765
977.03139	0.92904
974.97448	0.93066
972.91757	0.93232
970.86066	0.93417
968.80375	0.93647
966.74685	0.93887
964.68994	0.94059
962.63303	0.94161
960.57612	0.94250
958.51921	0.94345
956.46231	0.94408
954.40540	0.94430
952.34849	0.94483
950.29158	0.94605
948.23467	0.94719
946.17776	0.94785
944.12086	0.94846
942.06395	0.94887
940.00704	0.94915
937.95013	0.94981
935.89322	0.95079
933.83632	0.95170
931.77941	0.95208
929.72250	0.95167
927.66559	0.95097
925.60868	0.95037
923.55177	0.94990
921.49487	0.94955
919.43796	0.94910
917.38105	0.94873
915.32414	0.94840
913.26723	0.94787
911.21033	0.94708
909.15342	0.94592
907.09651	0.94492
905.03960	0.94444
902.98269	0.94400
900.92578	0.94336
898.86888	0.94328
896.81197	0.94409
894.75506	0.94506
892.69815	0.94622
890.64124	0.94755
888.58434	0.94845
886.52743	0.94950
884.47052	0.95089
882.41361	0.95114
880.35670	0.95029
878.29979	0.95045
876.24289	0.95194
874.18598	0.95310
872.12907	0.95354
870.07216	0.95463
868.01525	0.95677
865.95835	0.95848
863.90144	0.95935
861.84453	0.96019
859.78762	0.96089
857.73071	0.96094
855.67380	0.96077
853.61690	0.96120
851.55999	0.96177
849.50308	0.96182
847.44617	0.96177
845.38926	0.96169
843.33236	0.96125
841.27545	0.96092
839.21854	0.96102
837.16163	0.96084
835.10472	0.96079
833.04781	0.96173
830.99091	0.96317
828.93400	0.96381
826.87709	0.96354
824.82018	0.96360
822.76327	0.96447
820.70637	0.96552
818.64946	0.96638
816.59255	0.96691
814.53564	0.96715
812.47873	0.96721
810.42182	0.96702
808.36492	0.96697
806.30801	0.96727
804.25110	0.96758
802.19419	0.96750
800.13728	0.96727
798.08038	0.96721
796.02347	0.96751
793.96656	0.96854
791.90965	0.96971
789.85274	0.97035
787.79583	0.97045
785.73893	0.97006
783.68202	0.96960
781.62511	0.96960
779.56820	0.97023
777.51129	0.97080
775.45439	0.97070
773.39748	0.97037
771.34057	0.97015
769.28366	0.96999
767.22675	0.97017
765.16984	0.97070
763.11294	0.97090
761.05603	0.97063
758.99912	0.97065
756.94221	0.97124
754.88530	0.97171
752.82839	0.97116
750.77149	0.97016
748.71458	0.96975
746.65767	0.96999
744.60076	0.97094
742.54385	0.97204
740.48695	0.97212
738.43004	0.97170
736.37313	0.97148
734.31622	0.97073
732.25931	0.96968
730.20240	0.96934
728.14550	0.96990
726.08859	0.97057
724.03168	0.97027
721.97477	0.96942
719.91786	0.96911
717.86096	0.96913
715.80405	0.96916
713.74714	0.96927
711.69023	0.96909
709.63332	0.96896
707.57641	0.96882
705.51951	0.96808
703.46260	0.96773
701.40569	0.96813
699.34878	0.96778
697.29187	0.96644
695.23497	0.96561
693.17806	0.96569
691.12115	0.96592
689.06424	0.96618
687.00733	0.96674
684.95042	0.96692
682.89352	0.96655
680.83661	0.96615
678.77970	0.96542
676.72279	0.96437
674.66588	0.96366
672.60898	0.96351
670.55207	0.96322
668.49516	0.96267
666.43825	0.96318
664.38134	0.96414
662.32443	0.96470
660.26753	0.96493
658.21062	0.96489
656.15371	0.96441
654.09680	0.96385
652.03989	0.96379
649.98299	0.96380
647.92608	0.96295
645.86917	0.96168
643.81226	0.96082
641.75535	0.96035
639.69844	0.96021
637.64154	0.96038
635.58463	0.96061
633.52772	0.96024
631.47081	0.95913
629.41390	0.95803
627.35700	0.95730
625.30009	0.95688
623.24318	0.95648
621.18627	0.95560
619.12936	0.95415
617.07245	0.95247
615.01555	0.95085
612.95864	0.94975
610.90173	0.94854
608.84482	0.94634
606.78791	0.94350
604.73101	0.94076
602.67410	0.93873
600.61719	0.93788
598.56028	0.93887
596.50337	0.94084
594.44646	0.94207
592.38956	0.94344
590.33265	0.94617
588.27574	0.94872
586.21883	0.95035
584.16192	0.95210
582.10502	0.95316
580.04811	0.95318
577.99120	0.95379
575.93429	0.95410
573.87738	0.95315
571.82047	0.95222
569.76357	0.95107
567.70666	0.95012
565.64975	0.95076
563.59284	0.95174
561.53593	0.95168
559.47903	0.95020
557.42212	0.94820
555.36521	0.94808
553.30830	0.94984
551.25139	0.95093
549.19448	0.95017
547.13758	0.94930
545.08067	0.95021
543.02376	0.95133
540.96685	0.95131
538.90994	0.95179
536.85304	0.95257
534.79613	0.95152
532.73922	0.94959
530.68231	0.94961
528.62540	0.95138
526.56849	0.95207
524.51159	0.95068
522.45468	0.95018
520.39777	0.95167
518.34086	0.95179
516.28395	0.95023
514.22705	0.94980
512.17014	0.95035
510.11323	0.95091
508.05632	0.95157
505.99941	0.95142
503.94250	0.94941
501.88560	0.94732
499.82869	0.94647
497.77178	0.94572
495.71487	0.94469
493.65796	0.94433
491.60106	0.94466
489.54415	0.94434
487.48724	0.94475
485.43033	0.94643
483.37342	0.94587
481.31651	0.94386
479.25961	0.94332
477.20270	0.94269
475.14579	0.94112
473.08888	0.93997
471.03197	0.94068
468.97507	0.94179
466.91816	0.94142
464.86125	0.94005
462.80434	0.93740
460.74743	0.93470
458.69052	0.93410
456.63362	0.93467
454.57671	0.93498
452.51980	0.93523
450.46289	0.93419
448.40598	0.93358
446.34908	0.93599
444.29217	0.93685
442.23526	0.93337
440.17835	0.93146
438.12144	0.93264
436.06453	0.93118
434.00763	0.92881
431.95072	0.93108
429.89381	0.93601
427.83690	0.93978
425.77999	0.94004
423.72309	0.93752
421.66618	0.93466
419.60927	0.93128
417.55236	0.93071
415.49545	0.93434
413.43854	0.93679
411.38164	0.93610
409.32473	0.93335
407.26782	0.93140
405.21091	0.93350
403.15400	0.93579
401.09710	0.93269
399.04019	0.92657
