3996.57260	0.99007
3994.51569	0.99047
3992.45878	0.99067
3990.40188	0.99055
3988.34497	0.99031
3986.28806	0.98994
3984.23115	0.99003
3982.17424	0.99077
3980.11733	0.99127
3978.06043	0.99088
3976.00352	0.99045
3973.94661	0.99089
3971.88970	0.99160
3969.83279	0.99172
3967.77589	0.99124
3965.71898	0.99048
3963.66207	0.98998
3961.60516	0.99032
3959.54825	0.99081
3957.49134	0.99053
3955.43444	0.99009
3953.37753	0.99005
3951.32062	0.99050
3949.26371	0.99150
3947.20680	0.99212
3945.14990	0.99192
3943.09299	0.99186
3941.03608	0.99185
3938.97917	0.99121
3936.92226	0.99052
3934.86535	0.99062
3932.80845	0.99159
3930.75154	0.99233
3928.69463	0.99242
3926.63772	0.99240
3924.58081	0.99172
3922.52391	0.99057
3920.46700	0.98993
3918.41009	0.98993
3916.35318	0.99018
3914.29627	0.99015
3912.23936	0.99003
3910.18246	0.99007
3908.12555	0.99009
3906.06864	0.99010
3904.01173	0.99015
3901.95482	0.99052
3899.89792	0.99123
3897.84101	0.99150
3895.78410	0.99113
3893.72719	0.99063
3891.67028	0.99045
3889.61337	0.99106
3887.55647	0.99144
3885.49956	0.99084
3883.44265	0.99049
3881.38574	0.99082
3879.32883	0.99104
3877.27193	0.99109
3875.21502	0.99101
3873.15811	0.99093
3871.10120	0.99116
3869.04429	0.99111
3866.98738	0.99047
3864.93048	0.98984
3862.87357	0.98979
3860.81666	0.99022
3858.75975	0.99044
3856.70284	0.99054
3854.64594	0.99074
3852.58903	0.99086
3850.53212	0.99083
3848.47521	0.99102
3846.41830	0.99121
3844.36139	0.99090
3842.30449	0.99045
3840.24758	0.99055
3838.19067	0.99136
3836.13376	0.99194
3834.07685	0.99182
3832.01995	0.99155
3829.96304	0.99146
3827.90613	0.99177
3825.84922	0.99197
3823.79231	0.99173
3821.73540	0.99159
3819.67850	0.99131
3817.62159	0.99103
3815.56468	0.99119
3813.50777	0.99128
3811.45086	0.99077
3809.39396	0.99010
3807.33705	0.99022
3805.28014	0.99087
3803.22323	0.99086
3801.16632	0.99028
3799.10941	0.99005
3797.05251	0.99007
3794.99560	0.98994
3792.93869	0.99010
3790.88178	0.99077
3788.82487	0.99126
3786.76796	0.99086
3784.71106	0.99044
3782.65415	0.99100
3780.59724	0.99153
3778.54033	0.99095
3776.48342	0.98996
3774.42652	0.98938
3772.36961	0.98955
3770.31270	0.99043
3768.25579	0.99090
3766.19888	0.99086
3764.14197	0.99084
3762.08507	0.99077
3760.02816	0.99057
3757.97125	0.99028
3755.91434	0.99046
3753.85743	0.99094
3751.80053	0.99063
3749.74362	0.98970
3747.68671	0.99029
3745.62980	0.99161
3743.57289	0.99129
3741.51598	0.99043
3739.45908	0.99072
3737.40217	0.99120
3735.34526	0.99084
3733.28835	0.99046
3731.23144	0.99053
3729.17454	0.99047
3727.11763	0.99014
3725.06072	0.99016
3723.00381	0.99045
3720.94690	0.99025
3718.88999	0.99001
3716.83309	0.98991
3714.77618	0.98981
3712.71927	0.98993
3710.66236	0.99024
3708.60545	0.99054
3706.54855	0.99076
3704.49164	0.99094
3702.43473	0.99109
3700.37782	0.99110
3698.32091	0.99125
3696.26400	0.99145
3694.20710	0.99106
3692.15019	0.99017
3690.09328	0.98974
3688.03637	0.99095
3685.97946	0.99237
3683.92256	0.99246
3681.86565	0.99173
3679.80874	0.99131
3677.75183	0.99132
3675.69492	0.99099
3673.63801	0.99041
3671.58111	0.99018
3669.52420	0.99013
3667.46729	0.99017
3665.41038	0.99050
3663.35347	0.99117
3661.29657	0.99124
3659.23966	0.99043
3657.18275	0.98968
3655.12584	0.98942
3653.06893	0.98975
3651.01202	0.99086
3648.95512	0.99159
3646.89821	0.99060
3644.84130	0.98926
3642.78439	0.98848
3640.72748	0.98835
3638.67058	0.98853
3636.61367	0.98836
3634.55676	0.98804
3632.49985	0.98826
3630.44294	0.98853
3628.38603	0.98800
3626.32913	0.98749
3624.27222	0.98744
3622.21531	0.98732
3620.15840	0.98711
3618.10149	0.98687
3616.04459	0.98655
3613.98768	0.98609
3611.93077	0.98532
3609.87386	0.98493
3607.81695	0.98515
3605.76004	0.98580
3603.70314	0.98675
3601.64623	0.98728
3599.58932	0.98695
3597.53241	0.98641
3595.47550	0.98632
3593.41860	0.98661
3591.36169	0.98656
3589.30478	0.98567
3587.24787	0.98459
3585.19096	0.98462
3583.13405	0.98532
3581.07715	0.98550
3579.02024	0.98540
3576.96333	0.98571
3574.90642	0.98585
3572.84951	0.98534
3570.79261	0.98444
3568.73570	0.98372
3566.67879	0.98361
3564.62188	0.98385
3562.56497	0.98396
3560.50806	0.98393
3558.45116	0.98379
3556.39425	0.98327
3554.33734	0.98258
3552.28043	0.98237
3550.22352	0.98293
3548.16662	0.98357
3546.10971	0.98347
3544.05280	0.98305
3541.99589	0.98299
3539.93898	0.98262
3537.88207	0.98162
3535.82517	0.98092
3533.76826	0.98109
3531.71135	0.98162
3529.65444	0.98167
3527.59753	0.98129
3525.54063	0.98107
3523.48372	0.98089
3521.42681	0.98048
3519.36990	0.98012
3517.31299	0.98024
3515.25608	0.98063
3513.19918	0.98073
3511.14227	0.98040
3509.08536	0.98000
3507.02845	0.98018
3504.97154	0.98051
3502.91464	0.98001
3500.85773	0.97919
3498.80082	0.97898
3496.74391	0.97951
3494.68700	0.98018
3492.63009	0.98023
3490.57319	0.97981
3488.51628	0.97946
3486.45937	0.97952
3484.40246	0.97948
3482.34555	0.97870
3480.28865	0.97815
3478.23174	0.97860
3476.17483	0.97911
3474.11792	0.97936
3472.06101	0.97950
3470.00410	0.97937
3467.94720	0.97901
3465.89029	0.97860
3463.83338	0.97859
3461.77647	0.97895
3459.71956	0.97929
3457.66266	0.97936
3455.60575	0.97937
3453.54884	0.97989
3451.49193	0.98056
3449.43502	0.98080
3447.37811	0.98061
3445.32121	0.98032
3443.26430	0.98053
3441.20739	0.98109
3439.15048	0.98121
3437.09357	0.98103
3435.03667	0.98097
3432.97976	0.98102
3430.92285	0.98109
3428.86594	0.98130
3426.80903	0.98161
3424.75212	0.98137
3422.69522	0.98089
3420.63831	0.98110
3418.58140	0.98160
3416.52449	0.98203
3414.46758	0.98228
3412.41068	0.98190
3410.35377	0.98145
3408.29686	0.98146
3406.23995	0.98179
3404.18304	0.98220
3402.12613	0.98225
3400.06923	0.98238
3398.01232	0.98277
3395.95541	0.98299
3393.89850	0.98310
3391.84159	0.98320
3389.78469	0.98303
3387.72778	0.98285
3385.67087	0.98313
3383.61396	0.98325
3381.55705	0.98326
3379.50014	0.98365
3377.44324	0.98383
3375.38633	0.98383
3373.32942	0.98392
3371.27251	0.98380
3369.21560	0.98360
3367.15870	0.98347
3365.10179	0.98334
3363.04488	0.98333
3360.98797	0.98378
3358.93106	0.98445
3356.87415	0.98478
3354.81725	0.98496
3352.76034	0.98499
3350.70343	0.98476
3348.64652	0.98470
3346.58961	0.98477
3344.53271	0.98485
3342.47580	0.98509
3340.41889	0.98531
3338.36198	0.98568
3336.30507	0.98635
3334.24816	0.98639
3332.19126	0.98558
3330.13435	0.98496
3328.07744	0.98468
3326.02053	0.98465
3323.96362	0.98524
3321.90672	0.98589
3319.84981	0.98586
3317.79290	0.98543
3315.73599	0.98488
3313.67908	0.98454
3311.62217	0.98507
3309.56527	0.98604
3307.50836	0.98652
3305.45145	0.98669
3303.39454	0.98676
3301.33763	0.98653
3299.28073	0.98629
3297.22382	0.98605
3295.16691	0.98573
3293.11000	0.98546
3291.05309	0.98514
3288.99618	0.98522
3286.93928	0.98602
3284.88237	0.98674
3282.82546	0.98684
3280.76855	0.98677
3278.71164	0.98684
3276.65474	0.98710
3274.59783	0.98752
3272.54092	0.98764
3270.48401	0.98693
3268.42710	0.98592
3266.37019	0.98550
3264.31329	0.98555
3262.25638	0.98572
3260.19947	0.98599
3258.14256	0.98649
3256.08565	0.98695
3254.02875	0.98693
3251.97184	0.98664
3249.91493	0.98671
3247.85802	0.98733
3245.80111	0.98785
3243.74420	0.98763
3241.68730	0.98694
3239.63039	0.98657
3237.57348	0.98702
3235.51657	0.98762
3233.45966	0.98796
3231.40276	0.98814
3229.34585	0.98767
3227.28894	0.98685
3225.23203	0.98672
3223.17512	0.98718
3221.11821	0.98744
3219.06131	0.98746
3217.00440	0.98753
3214.94749	0.98762
3212.89058	0.98761
3210.83367	0.98763
3208.77677	0.98769
3206.71986	0.98806
3204.66295	0.98854
3202.60604	0.98832
3200.54913	0.98783
3198.49222	0.98775
3196.43532	0.98770
3194.37841	0.98749
3192.32150	0.98749
3190.26459	0.98770
3188.20768	0.98774
3186.15078	0.98769
3184.09387	0.98788
3182.03696	0.98815
3179.98005	0.98798
3177.92314	0.98747
3175.86623	0.98722
3173.80933	0.98719
3171.75242	0.98709
3169.69551	0.98730
3167.63860	0.98779
3165.58169	0.98814
3163.52479	0.98810
3161.46788	0.98774
3159.41097	0.98753
3157.35406	0.98752
3155.29715	0.98712
3153.24024	0.98657
3151.18334	0.98680
3149.12643	0.98740
3147.06952	0.98755
3145.01261	0.98764
3142.95570	0.98789
3140.89880	0.98784
3138.84189	0.98770
3136.78498	0.98785
3134.72807	0.98805
3132.67116	0.98815
3130.61425	0.98834
3128.55735	0.98846
3126.50044	0.98809
3124.44353	0.98757
3122.38662	0.98774
3120.32971	0.98860
3118.27281	0.98911
3116.21590	0.98877
3114.15899	0.98826
3112.10208	0.98821
3110.04517	0.98841
3107.98826	0.98844
3105.93136	0.98844
3103.87445	0.98883
3101.81754	0.98943
3099.76063	0.98922
3097.70372	0.98824
3095.64682	0.98777
3093.58991	0.98800
3091.53300	0.98818
3089.47609	0.98801
3087.41918	0.98801
3085.36227	0.98853
3083.30537	0.98850
3081.24846	0.98777
3079.19155	0.98761
3077.13464	0.98812
3075.07773	0.98866
3073.02083	0.98890
3070.96392	0.98851
3068.90701	0.98777
3066.85010	0.98768
3064.79319	0.98855
3062.73628	0.98932
3060.67938	0.98941
3058.62247	0.98930
3056.56556	0.98915
3054.50865	0.98882
3052.45174	0.98861
3050.39484	0.98871
3048.33793	0.98880
3046.28102	0.98869
3044.22411	0.98818
3042.16720	0.98738
3040.11029	0.98712
3038.05339	0.98775
3035.99648	0.98839
3033.93957	0.98817
3031.88266	0.98755
3029.82575	0.98726
3027.76885	0.98740
3025.71194	0.98760
3023.65503	0.98730
3021.59812	0.98672
3019.54121	0.98650
3017.48430	0.98656
3015.42740	0.98692
3013.37049	0.98743
3011.31358	0.98751
3009.25667	0.98709
3007.19976	0.98658
3005.14286	0.98636
3003.08595	0.98672
3001.02904	0.98726
2998.97213	0.98721
2996.91522	0.98662
2994.85831	0.98601
2992.80141	0.98567
2990.74450	0.98567
2988.68759	0.98545
2986.63068	0.98487
2984.57377	0.98487
2982.51687	0.98549
2980.45996	0.98582
2978.40305	0.98575
2976.34614	0.98544
2974.28923	0.98489
2972.23232	0.98463
2970.17542	0.98473
2968.11851	0.98474
2966.06160	0.98436
2964.00469	0.98373
2961.94778	0.98323
2959.89088	0.98284
2957.83397	0.98276
2955.77706	0.98314
2953.72015	0.98336
2951.66324	0.98314
2949.60633	0.98270
2947.54943	0.98218
2945.49252	0.98187
2943.43561	0.98191
2941.37870	0.98221
2939.32179	0.98243
2937.26489	0.98222
2935.20798	0.98220
2933.15107	0.98274
2931.09416	0.98303
2929.03725	0.98298
2926.98034	0.98329
2924.92344	0.98372
2922.86653	0.98394
2920.80962	0.98396
2918.75271	0.98361
2916.69580	0.98308
2914.63890	0.98292
2912.58199	0.98314
2910.52508	0.98335
2908.46817	0.98331
2906.41126	0.98311
2904.35435	0.98306
2902.29745	0.98318
2900.24054	0.98316
2898.18363	0.98286
2896.12672	0.98254
2894.06981	0.98264
2892.01291	0.98308
2889.95600	0.98316
2887.89909	0.98283
2885.84218	0.98273
2883.78527	0.98290
2881.72836	0.98304
2879.67146	0.98299
2877.61455	0.98308
2875.55764	0.98371
2873.50073	0.98437
2871.44382	0.98427
2869.38692	0.98381
2867.33001	0.98367
2865.27310	0.98378
2863.21619	0.98427
2861.15928	0.98496
2859.10237	0.98531
2857.04547	0.98555
2854.98856	0.98571
2852.93165	0.98549
2850.87474	0.98512
2848.81783	0.98522
2846.76093	0.98587
2844.70402	0.98667
2842.64711	0.98707
2840.59020	0.98710
2838.53329	0.98723
2836.47638	0.98753
2834.41948	0.98776
2832.36257	0.98765
2830.30566	0.98725
2828.24875	0.98701
2826.19184	0.98714
2824.13494	0.98755
2822.07803	0.98803
2820.02112	0.98820
2817.96421	0.98794
2815.90730	0.98757
2813.85039	0.98742
2811.79349	0.98753
2809.73658	0.98787
2807.67967	0.98808
2805.62276	0.98775
2803.56585	0.98750
2801.50895	0.98776
2799.45204	0.98794
2797.39513	0.98800
2795.33822	0.98818
2793.28131	0.98826
2791.22440	0.98807
2789.16750	0.98798
2787.11059	0.98811
2785.05368	0.98808
2782.99677	0.98787
2780.93986	0.98777
2778.88296	0.98781
2776.82605	0.98766
2774.76914	0.98749
2772.71223	0.98786
2770.65532	0.98845
2768.59841	0.98858
2766.54151	0.98838
2764.48460	0.98827
2762.42769	0.98813
2760.37078	0.98791
2758.31387	0.98801
2756.25697	0.98827
2754.20006	0.98814
2752.14315	0.98802
2750.08624	0.98825
2748.02933	0.98836
2745.97242	0.98801
2743.91552	0.98756
2741.85861	0.98771
2739.80170	0.98822
2737.74479	0.98824
2735.68788	0.98789
2733.63098	0.98779
2731.57407	0.98813
2729.51716	0.98841
2727.46025	0.98826
2725.40334	0.98826
2723.34643	0.98856
2721.28953	0.98852
2719.23262	0.98814
2717.17571	0.98772
2715.11880	0.98762
2713.06189	0.98792
2711.00499	0.98825
2708.94808	0.98828
2706.89117	0.98826
2704.83426	0.98820
2702.77735	0.98794
2700.72044	0.98785
2698.66354	0.98807
2696.60663	0.98830
2694.54972	0.98847
2692.49281	0.98879
2690.43590	0.98905
2688.37900	0.98886
2686.32209	0.98850
2684.26518	0.98847
2682.20827	0.98871
2680.15136	0.98883
2678.09445	0.98886
2676.03755	0.98891
2673.98064	0.98869
2671.92373	0.98824
2669.86682	0.98805
2667.80991	0.98815
2665.75301	0.98826
2663.69610	0.98821
2661.63919	0.98790
2659.58228	0.98761
2657.52537	0.98761
2655.46846	0.98751
2653.41156	0.98732
2651.35465	0.98753
2649.29774	0.98810
2647.24083	0.98848
2645.18392	0.98835
2643.12702	0.98810
2641.07011	0.98811
2639.01320	0.98830
2636.95629	0.98831
2634.89938	0.98789
2632.84247	0.98750
2630.78557	0.98739
2628.72866	0.98742
2626.67175	0.98775
2624.61484	0.98808
2622.55793	0.98793
2620.50103	0.98765
2618.44412	0.98775
2616.38721	0.98809
2614.33030	0.98823
2612.27339	0.98819
2610.21648	0.98840
2608.15958	0.98870
2606.10267	0.98870
2604.04576	0.98850
2601.98885	0.98847
2599.93194	0.98868
2597.87504	0.98866
2595.81813	0.98847
2593.76122	0.98866
2591.70431	0.98881
2589.64740	0.98863
2587.59049	0.98863
2585.53359	0.98895
2583.47668	0.98944
2581.41977	0.98963
2579.36286	0.98945
2577.30595	0.98925
2575.24905	0.98910
2573.19214	0.98906
2571.13523	0.98910
2569.07832	0.98917
2567.02141	0.98917
2564.96450	0.98884
2562.90760	0.98819
2560.85069	0.98796
2558.79378	0.98849
2556.73687	0.98927
2554.67996	0.99006
2552.62306	0.99065
2550.56615	0.99071
2548.50924	0.99015
2546.45233	0.98949
2544.39542	0.98928
2542.33851	0.98918
2540.28161	0.98910
2538.22470	0.98926
2536.16779	0.98909
2534.11088	0.98882
2532.05397	0.98909
2529.99707	0.98949
2527.94016	0.98964
2525.88325	0.98924
2523.82634	0.98878
2521.76943	0.98904
2519.71252	0.98973
2517.65562	0.99037
2515.59871	0.99106
2513.54180	0.99151
2511.48489	0.99138
2509.42798	0.99081
2507.37108	0.99007
2505.31417	0.98978
2503.25726	0.98978
2501.20035	0.98964
2499.14344	0.98968
2497.08653	0.98988
2495.02963	0.98982
2492.97272	0.98958
2490.91581	0.98974
2488.85890	0.99016
2486.80199	0.99002
2484.74509	0.98966
2482.68818	0.98986
2480.63127	0.99038
2478.57436	0.99034
2476.51745	0.98997
2474.46054	0.99018
2472.40364	0.99077
2470.34673	0.99099
2468.28982	0.99055
2466.23291	0.98981
2464.17600	0.98916
2462.11910	0.98864
2460.06219	0.98838
2458.00528	0.98863
2455.94837	0.98934
2453.89146	0.98994
2451.83455	0.98999
2449.77765	0.98947
2447.72074	0.98887
2445.66383	0.98865
2443.60692	0.98823
2441.55001	0.98763
2439.49311	0.98776
2437.43620	0.98847
2435.37929	0.98895
2433.32238	0.98905
2431.26547	0.98909
2429.20856	0.98919
2427.15166	0.98949
2425.09475	0.98981
2423.03784	0.98987
2420.98093	0.98997
2418.92402	0.99023
2416.86712	0.99025
2414.81021	0.98977
2412.75330	0.98932
2410.69639	0.98934
2408.63948	0.98936
2406.58257	0.98950
2404.52567	0.99017
2402.46876	0.99052
2400.41185	0.99006
2398.35494	0.98953
2396.29803	0.98948
2394.24113	0.98971
2392.18422	0.98993
2390.12731	0.98998
2388.07040	0.98987
2386.01349	0.98990
2383.95658	0.99003
2381.89968	0.98995
2379.84277	0.98994
2377.78586	0.99006
2375.72895	0.99018
2373.67204	0.99044
2371.61514	0.99025
2369.55823	0.98962
2367.50132	0.98970
2365.44441	0.99043
2363.38750	0.99149
2361.33059	0.99279
2359.27369	0.99261
2357.21678	0.99072
2355.15987	0.98980
2353.10296	0.99024
2351.04605	0.99032
2348.98915	0.99019
2346.93224	0.99027
2344.87533	0.99005
2342.81842	0.98969
2340.76151	0.98964
2338.70460	0.98952
2336.64770	0.98967
2334.59079	0.99041
2332.53388	0.99075
2330.47697	0.99050
2328.42006	0.99021
2326.36316	0.98952
2324.30625	0.98842
2322.24934	0.98777
2320.19243	0.98798
2318.13552	0.98809
2316.07861	0.98800
2314.02171	0.98858
2311.96480	0.98929
2309.90789	0.98925
2307.85098	0.98901
2305.79407	0.98949
2303.73717	0.99034
2301.68026	0.99055
2299.62335	0.99028
2297.56644	0.99033
2295.50953	0.99037
2293.45262	0.98989
2291.39572	0.98919
2289.33881	0.98854
2287.28190	0.98817
2285.22499	0.98821
2283.16808	0.98844
2281.11117	0.98856
2279.05427	0.98865
2276.99736	0.98872
2274.94045	0.98867
2272.88354	0.98904
2270.82663	0.98963
2268.76973	0.98965
2266.71282	0.98949
2264.65591	0.98957
2262.59900	0.98919
2260.54209	0.98826
2258.48518	0.98787
2256.42828	0.98854
2254.37137	0.98941
2252.31446	0.98997
2250.25755	0.99036
2248.20064	0.99035
2246.14374	0.98990
2244.08683	0.98935
2242.02992	0.98888
2239.97301	0.98844
2237.91610	0.98825
2235.85919	0.98864
2233.80229	0.98939
2231.74538	0.99062
2229.68847	0.99188
2227.63156	0.99217
2225.57465	0.99193
2223.51775	0.99139
2221.46084	0.99001
2219.40393	0.98939
2217.34702	0.99034
2215.29011	0.99094
2213.23320	0.99060
2211.17630	0.99038
2209.11939	0.99090
2207.06248	0.99155
2205.00557	0.99158
2202.94866	0.99100
2200.89176	0.98986
2198.83485	0.98906
2196.77794	0.98932
2194.72103	0.98932
2192.66412	0.98826
2190.60721	0.98735
2188.55031	0.98732
2186.49340	0.98841
2184.43649	0.99013
2182.37958	0.99039
2180.32267	0.98916
2178.26577	0.98832
2176.20886	0.98812
2174.15195	0.98844
2172.09504	0.98870
2170.03813	0.98859
2167.98122	0.98933
2165.92432	0.99005
2163.86741	0.98778
2161.81050	0.98511
2159.75359	0.98806
2157.69668	0.99376
2155.63978	0.99457
2153.58287	0.99187
2151.52596	0.99103
2149.46905	0.99193
2147.41214	0.99241
2145.35523	0.99286
2143.29833	0.99373
2141.24142	0.99472
2139.18451	0.99478
2137.12760	0.99365
2135.07069	0.99238
2133.01379	0.99111
2130.95688	0.98984
2128.89997	0.98923
2126.84306	0.98997
2124.78615	0.99098
2122.72924	0.99038
2120.67234	0.98965
2118.61543	0.99035
2116.55852	0.99065
2114.50161	0.98981
2112.44470	0.98922
2110.38780	0.98933
2108.33089	0.98923
2106.27398	0.98888
2104.21707	0.98886
2102.16016	0.98911
2100.10325	0.98993
2098.04635	0.99082
2095.98944	0.99085
2093.93253	0.99058
2091.87562	0.99039
2089.81871	0.99019
2087.76181	0.99031
2085.70490	0.99076
2083.64799	0.99094
2081.59108	0.99037
2079.53417	0.98932
2077.47726	0.98887
2075.42036	0.98979
2073.36345	0.99122
2071.30654	0.99233
2069.24963	0.99248
2067.19272	0.99159
2065.13582	0.99085
2063.07891	0.99085
2061.02200	0.99133
2058.96509	0.99087
2056.90818	0.98987
2054.85127	0.99102
2052.79437	0.99299
2050.73746	0.99283
2048.68055	0.99155
2046.62364	0.99083
2044.56673	0.99041
2042.50983	0.99006
2040.45292	0.98943
2038.39601	0.98836
2036.33910	0.98722
2034.28219	0.98765
2032.22528	0.99118
2030.16838	0.99427
2028.11147	0.99387
2026.05456	0.99322
2023.99765	0.99406
2021.94074	0.99445
2019.88384	0.99384
2017.82693	0.99226
2015.77002	0.99071
2013.71311	0.99098
2011.65620	0.99198
2009.59929	0.99209
2007.54239	0.99207
2005.48548	0.99279
2003.42857	0.99370
2001.37166	0.99320
1999.31475	0.99124
1997.25785	0.99079
1995.20094	0.99263
1993.14403	0.99337
1991.08712	0.99182
1989.03021	0.99048
1986.97330	0.99038
1984.91640	0.99030
1982.85949	0.98934
1980.80258	0.98887
1978.74567	0.99008
1976.68876	0.99173
1974.63186	0.99263
1972.57495	0.99247
1970.51804	0.99122
1968.46113	0.99033
1966.40422	0.99163
1964.34731	0.99373
1962.29041	0.99465
1960.23350	0.99438
1958.17659	0.99341
1956.11968	0.99248
1954.06277	0.99179
1952.00587	0.99156
1949.94896	0.99244
1947.89205	0.99385
1945.83514	0.99438
1943.77823	0.99388
1941.72132	0.99273
1939.66442	0.99155
1937.60751	0.99117
1935.55060	0.99176
1933.49369	0.99279
1931.43678	0.99360
1929.37988	0.99402
1927.32297	0.99364
1925.26606	0.99253
1923.20915	0.99172
1921.15224	0.99155
1919.09533	0.99155
1917.03843	0.99174
1914.98152	0.99173
1912.92461	0.99078
1910.86770	0.98994
1908.81079	0.99014
1906.75389	0.99053
1904.69698	0.99059
1902.64007	0.99077
1900.58316	0.99123
1898.52625	0.99189
1896.46934	0.99272
1894.41244	0.99317
1892.35553	0.99293
1890.29862	0.99273
1888.24171	0.99277
1886.18480	0.99231
1884.12790	0.99167
1882.07099	0.99139
1880.01408	0.99147
1877.95717	0.99168
1875.90026	0.99174
1873.84335	0.99198
1871.78645	0.99218
1869.72954	0.99212
1867.67263	0.99264
1865.61572	0.99334
1863.55881	0.99337
1861.50191	0.99298
1859.44500	0.99226
1857.38809	0.99165
1855.33118	0.99162
1853.27427	0.99188
1851.21736	0.99227
1849.16046	0.99249
1847.10355	0.99238
1845.04664	0.99227
1842.98973	0.99200
1840.93282	0.99164
1838.87592	0.99157
1836.81901	0.99136
1834.76210	0.99103
1832.70519	0.99124
1830.64828	0.99198
1828.59137	0.99222
1826.53447	0.99193
1824.47756	0.99187
1822.42065	0.99210
1820.36374	0.99225
1818.30683	0.99221
1816.24993	0.99218
1814.19302	0.99206
1812.13611	0.99187
1810.07920	0.99169
1808.02229	0.99129
1805.96538	0.99084
1803.90848	0.99071
1801.85157	0.99073
1799.79466	0.99064
1797.73775	0.99042
1795.68084	0.99020
1793.62394	0.98984
1791.56703	0.98867
1789.51012	0.98770
1787.45321	0.98745
1785.39630	0.98695
1783.33939	0.98595
1781.28249	0.98504
1779.22558	0.98403
1777.16867	0.98240
1775.11176	0.98023
1773.05485	0.97713
1770.99795	0.97233
1768.94104	0.96655
1766.88413	0.96022
1764.82722	0.95377
1762.77031	0.94625
1760.71340	0.93742
1758.65650	0.92972
1756.59959	0.92252
1754.54268	0.91624
1752.48577	0.91089
1750.42886	0.90432
1748.37196	0.89743
1746.31505	0.89237
1744.25814	0.88839
1742.20123	0.88460
1740.14432	0.88087
1738.08741	0.87849
1736.03051	0.87790
1733.97360	0.87747
1731.91669	0.87745
1729.85978	0.87897
1727.80287	0.88198
1725.74597	0.88582
1723.68906	0.89000
1721.63215	0.89477
1719.57524	0.90057
1717.51833	0.90750
1715.46142	0.91435
1713.40452	0.92047
1711.34761	0.92652
1709.29070	0.93242
1707.23379	0.93797
1705.17688	0.94315
1703.11998	0.94730
1701.06307	0.95128
1699.00616	0.95544
1696.94925	0.95828
1694.89234	0.96067
1692.83543	0.96301
1690.77853	0.96515
1688.72162	0.96713
1686.66471	0.96876
1684.60780	0.96964
1682.55089	0.96979
1680.49399	0.97047
1678.43708	0.97153
1676.38017	0.97256
1674.32326	0.97340
1672.26635	0.97404
1670.20944	0.97439
1668.15254	0.97438
1666.09563	0.97476
1664.03872	0.97530
1661.98181	0.97515
1659.92490	0.97464
1657.86800	0.97453
1655.81109	0.97478
1653.75418	0.97501
1651.69727	0.97469
1649.64036	0.97446
1647.58345	0.97428
1645.52655	0.97401
1643.46964	0.97413
1641.41273	0.97444
1639.35582	0.97479
1637.29891	0.97523
1635.24201	0.97544
1633.18510	0.97541
1631.12819	0.97554
1629.07128	0.97575
1627.01437	0.97610
1624.95746	0.97656
1622.90056	0.97708
1620.84365	0.97764
1618.78674	0.97809
1616.72983	0.97841
1614.67292	0.97888
1612.61602	0.97949
1610.55911	0.98000
1608.50220	0.98040
1606.44529	0.98088
1604.38838	0.98154
1602.33147	0.98212
1600.27457	0.98228
1598.21766	0.98223
1596.16075	0.98235
1594.10384	0.98262
1592.04693	0.98283
1589.99003	0.98300
1587.93312	0.98320
1585.87621	0.98344
1583.81930	0.98365
1581.76239	0.98390
1579.70548	0.98417
1577.64858	0.98424
1575.59167	0.98413
1573.53476	0.98429
1571.47785	0.98458
1569.42094	0.98448
1567.36404	0.98415
1565.30713	0.98435
1563.25022	0.98497
1561.19331	0.98575
1559.13640	0.98620
1557.07949	0.98518
1555.02259	0.98443
1552.96568	0.98433
1550.90877	0.98445
1548.85186	0.98461
1546.79495	0.98483
1544.73805	0.98524
1542.68114	0.98594
1540.62423	0.98639
1538.56732	0.98594
1536.51041	0.98562
1534.45350	0.98559
1532.39660	0.98558
1530.33969	0.98556
1528.28278	0.98545
1526.22587	0.98528
1524.16896	0.98542
1522.11206	0.98592
1520.05515	0.98645
1517.99824	0.98651
1515.94133	0.98614
1513.88442	0.98605
1511.82751	0.98634
1509.77061	0.98671
1507.71370	0.98711
1505.65679	0.98683
1503.59988	0.98646
1501.54297	0.98671
1499.48607	0.98694
1497.42916	0.98664
1495.37225	0.98627
1493.31534	0.98620
1491.25843	0.98620
1489.20152	0.98609
1487.14462	0.98588
1485.08771	0.98579
1483.03080	0.98586
1480.97389	0.98575
1478.91698	0.98527
1476.86008	0.98472
1474.80317	0.98446
1472.74626	0.98411
1470.68935	0.98336
1468.63244	0.98270
1466.57553	0.98188
1464.51863	0.98049
1462.46172	0.97911
1460.40481	0.97823
1458.34790	0.97744
1456.29099	0.97617
1454.23409	0.97491
1452.17718	0.97407
1450.12027	0.97329
1448.06336	0.97235
1446.00645	0.97140
1443.94954	0.97042
1441.89264	0.96926
1439.83573	0.96822
1437.77882	0.96716
1435.72191	0.96590
1433.66500	0.96527
1431.60810	0.96523
1429.55119	0.96546
1427.49428	0.96595
1425.43737	0.96674
1423.38046	0.96774
1421.32355	0.96865
1419.26665	0.96959
1417.20974	0.97082
1415.15283	0.97181
1413.09592	0.97235
1411.03901	0.97286
1408.98211	0.97344
1406.92520	0.97384
1404.86829	0.97398
1402.81138	0.97404
1400.75447	0.97394
1398.69756	0.97319
1396.64066	0.97177
1394.58375	0.96980
1392.52684	0.96722
1390.46993	0.96433
1388.41302	0.96075
1386.35612	0.95627
1384.29921	0.95178
1382.24230	0.94735
1380.18539	0.94275
1378.12848	0.93821
1376.07157	0.93376
1374.01467	0.92906
1371.95776	0.92481
1369.90085	0.92178
1367.84394	0.92000
1365.78703	0.92019
1363.73013	0.92302
1361.67322	0.92873
1359.61631	0.93635
1357.55940	0.94453
1355.50249	0.95226
1353.44558	0.95859
1351.38868	0.96314
1349.33177	0.96638
1347.27486	0.96868
1345.21795	0.97027
1343.16104	0.97135
1341.10414	0.97194
1339.04723	0.97230
1336.99032	0.97283
1334.93341	0.97335
1332.87650	0.97346
1330.81959	0.97342
1328.76269	0.97344
1326.70578	0.97335
1324.64887	0.97314
1322.59196	0.97293
1320.53505	0.97303
1318.47815	0.97335
1316.42124	0.97345
1314.36433	0.97348
1312.30742	0.97361
1310.25051	0.97365
1308.19360	0.97374
1306.13670	0.97401
1304.07979	0.97419
1302.02288	0.97399
1299.96597	0.97345
1297.90906	0.97275
1295.85216	0.97196
1293.79525	0.97111
1291.73834	0.97000
1289.68143	0.96865
1287.62452	0.96727
1285.56761	0.96574
1283.51071	0.96404
1281.45380	0.96225
1279.39689	0.96014
1277.33998	0.95773
1275.28307	0.95538
1273.22617	0.95264
1271.16926	0.94911
1269.11235	0.94533
1267.05544	0.94155
1264.99853	0.93752
1262.94162	0.93329
1260.88472	0.92903
1258.82781	0.92461
1256.77090	0.91979
1254.71399	0.91445
1252.65708	0.90895
1250.60018	0.90378
1248.54327	0.89858
1246.48636	0.89299
1244.42945	0.88716
1242.37254	0.88112
1240.31563	0.87524
1238.25873	0.86987
1236.20182	0.86465
1234.14491	0.85959
1232.08800	0.85511
1230.03109	0.85102
1227.97419	0.84735
1225.91728	0.84457
1223.86037	0.84260
1221.80346	0.84100
1219.74655	0.83965
1217.68964	0.83890
1215.63274	0.83894
1213.57583	0.83970
1211.51892	0.84149
1209.46201	0.84479
1207.40510	0.85004
1205.34820	0.85722
1203.29129	0.86562
1201.23438	0.87495
1199.17747	0.88489
1197.12056	0.89464
1195.06365	0.90377
1193.00675	0.91192
1190.94984	0.91874
1188.89293	0.92416
1186.83602	0.92815
1184.77911	0.93047
1182.72221	0.93132
1180.66530	0.93160
1178.60839	0.93180
1176.55148	0.93156
1174.49457	0.93074
1172.43766	0.92955
1170.38076	0.92820
1168.32385	0.92724
1166.26694	0.92689
1164.21003	0.92665
1162.15312	0.92656
1160.09622	0.92716
1158.03931	0.92830
1155.98240	0.92950
1153.92549	0.93088
1151.86858	0.93259
1149.81167	0.93443
1147.75477	0.93602
1145.69786	0.93701
1143.64095	0.93733
1141.58404	0.93744
1139.52713	0.93736
1137.47023	0.93646
1135.41332	0.93493
1133.35641	0.93359
1131.29950	0.93225
1129.24259	0.93048
1127.18568	0.92876
1125.12878	0.92765
1123.07187	0.92697
1121.01496	0.92648
1118.95805	0.92619
1116.90114	0.92592
1114.84424	0.92577
1112.78733	0.92604
1110.73042	0.92626
1108.67351	0.92581
1106.61660	0.92502
1104.55969	0.92441
1102.50279	0.92377
1100.44588	0.92281
1098.38897	0.92148
1096.33206	0.91949
1094.27515	0.91705
1092.21825	0.91465
1090.16134	0.91209
1088.10443	0.90902
1086.04752	0.90566
1083.99061	0.90230
1081.93370	0.89910
1079.87680	0.89607
1077.81989	0.89289
1075.76298	0.88943
1073.70607	0.88596
1071.64916	0.88298
1069.59226	0.88059
1067.53535	0.87829
1065.47844	0.87567
1063.42153	0.87262
1061.36462	0.86922
1059.30771	0.86581
1057.25081	0.86244
1055.19390	0.85852
1053.13699	0.85421
1051.08008	0.85027
1049.02317	0.84687
1046.96627	0.84366
1044.90936	0.84041
1042.85245	0.83737
1040.79554	0.83472
1038.73863	0.83218
1036.68172	0.82968
1034.62482	0.82742
1032.56791	0.82550
1030.51100	0.82385
1028.45409	0.82272
1026.39718	0.82297
1024.34028	0.82459
1022.28337	0.82675
1020.22646	0.82944
1018.16955	0.83270
1016.11264	0.83649
1014.05573	0.84052
1011.99883	0.84430
1009.94192	0.84792
1007.88501	0.85176
1005.82810	0.85566
1003.77119	0.85947
1001.71429	0.86340
999.65738	0.86734
997.60047	0.87102
995.54356	0.87417
993.48665	0.87677
991.42974	0.87935
989.37284	0.88167
987.31593	0.88328
985.25902	0.88477
983.20211	0.88646
981.14520	0.88838
979.08830	0.89090
977.03139	0.89388
974.97448	0.89670
972.91757	0.89940
970.86066	0.90262
968.80375	0.90607
966.74685	0.90900
964.68994	0.91149
962.63303	0.91371
960.57612	0.91534
958.51921	0.91647
956.46231	0.91744
954.40540	0.91834
952.34849	0.91960
950.29158	0.92131
948.23467	0.92265
946.17776	0.92365
944.12086	0.92494
942.06395	0.92641
940.00704	0.92773
937.95013	0.92878
935.89322	0.92957
933.83632	0.93014
931.77941	0.93029
929.72250	0.93008
927.66559	0.92985
925.60868	0.92920
923.55177	0.92799
921.49487	0.92698
919.43796	0.92624
917.38105	0.92528
915.32414	0.92416
913.26723	0.92299
911.21033	0.92175
909.15342	0.92059
907.09651	0.91947
905.03960	0.91834
902.98269	0.91739
900.92578	0.91677
898.86888	0.91693
896.81197	0.91810
894.75506	0.91972
892.69815	0.92143
890.64124	0.92346
888.58434	0.92544
886.52743	0.92658
884.47052	0.92716
882.41361	0.92859
880.35670	0.93084
878.29979	0.93249
876.24289	0.93358
874.18598	0.93475
872.12907	0.93622
870.07216	0.93826
868.01525	0.94063
865.95835	0.94256
863.90144	0.94423
861.84453	0.94590
859.78762	0.94712
857.73071	0.94841
855.67380	0.94979
853.61690	0.95029
851.55999	0.95003
849.50308	0.94962
847.44617	0.94914
845.38926	0.94848
843.33236	0.94719
841.27545	0.94587
839.21854	0.94572
837.16163	0.94646
835.10472	0.94749
833.04781	0.94863
830.99091	0.94998
828.93400	0.95153
826.87709	0.95287
824.82018	0.95384
822.76327	0.95455
820.70637	0.95498
818.64946	0.95546
816.59255	0.95628
814.53564	0.95726
812.47873	0.95813
810.42182	0.95859
808.36492	0.95894
806.30801	0.96009
804.25110	0.96165
802.19419	0.96204
800.13728	0.96120
798.08038	0.96061
796.02347	0.96071
793.96656	0.96078
791.90965	0.96037
789.85274	0.95992
787.79583	0.96016
785.73893	0.96086
783.68202	0.96135
781.62511	0.96182
779.56820	0.96227
777.51129	0.96238
775.45439	0.96238
773.39748	0.96228
771.34057	0.96213
769.28366	0.96215
767.22675	0.96222
765.16984	0.96265
763.11294	0.96382
761.05603	0.96477
758.99912	0.96473
756.94221	0.96435
754.88530	0.96397
752.82839	0.96347
750.77149	0.96332
748.71458	0.96361
746.65767	0.96382
744.60076	0.96416
742.54385	0.96485
740.48695	0.96483
738.43004	0.96411
736.37313	0.96365
734.31622	0.96344
732.25931	0.96330
730.20240	0.96304
728.14550	0.96222
726.08859	0.96109
724.03168	0.96038
721.97477	0.96045
719.91786	0.96065
717.86096	0.96016
715.80405	0.95934
713.74714	0.95915
711.69023	0.95980
709.63332	0.96008
707.57641	0.95903
705.51951	0.95773
703.46260	0.95774
701.40569	0.95825
699.34878	0.95792
697.29187	0.95766
695.23497	0.95752
693.17806	0.95667
691.12115	0.95597
689.06424	0.95571
687.00733	0.95537
684.95042	0.95534
682.89352	0.95547
680.83661	0.95474
678.77970	0.95373
676.72279	0.95381
674.66588	0.95444
672.60898	0.95502
670.55207	0.95583
668.49516	0.95571
666.43825	0.95447
664.38134	0.95410
662.32443	0.95381
660.26753	0.95328
658.21062	0.95306
656.15371	0.95250
654.09680	0.95107
652.03989	0.94964
649.98299	0.94869
647.92608	0.94776
645.86917	0.94659
643.81226	0.94560
641.75535	0.94566
639.69844	0.94596
637.64154	0.94496
635.58463	0.94381
633.52772	0.94316
631.47081	0.94212
629.41390	0.94144
627.35700	0.94145
625.30009	0.94126
623.24318	0.94010
621.18627	0.93837
619.12936	0.93697
617.07245	0.93555
615.01555	0.93381
612.95864	0.93173
610.90173	0.92873
608.84482	0.92429
606.78791	0.91899
604.73101	0.91444
602.67410	0.91166
600.61719	0.91054
598.56028	0.91181
596.50337	0.91525
594.44646	0.91868
592.38956	0.92199
590.33265	0.92546
588.27574	0.92824
586.21883	0.93111
584.16192	0.93427
582.10502	0.93607
580.04811	0.93622
577.99120	0.93613
575.93429	0.93689
573.87738	0.93758
571.82047	0.93735
569.76357	0.93700
567.70666	0.93694
565.64975	0.93709
563.59284	0.93662
561.53593	0.93465
559.47903	0.93274
557.42212	0.93235
555.36521	0.93239
553.30830	0.93181
551.25139	0.93125
549.19448	0.93161
547.13758	0.93267
545.08067	0.93399
543.02376	0.93550
540.96685	0.93671
538.90994	0.93669
536.85304	0.93646
534.79613	0.93714
532.73922	0.93663
530.68231	0.93508
528.62540	0.93492
526.56849	0.93581
524.51159	0.93692
522.45468	0.93765
520.39777	0.93668
518.34086	0.93462
516.28395	0.93316
514.22705	0.93183
512.17014	0.93038
510.11323	0.93018
508.05632	0.93062
505.99941	0.93090
503.94250	0.93207
501.88560	0.93223
499.82869	0.92970
497.77178	0.92773
495.71487	0.92848
493.65796	0.92924
491.60106	0.92779
489.54415	0.92597
487.48724	0.92634
485.43033	0.92826
483.37342	0.92796
481.31651	0.92492
479.25961	0.92144
477.20270	0.91954
475.14579	0.92011
473.08888	0.92115
471.03197	0.92061
468.97507	0.91917
466.91816	0.91944
464.86125	0.92092
462.80434	0.92095
460.74743	0.92000
458.69052	0.91945
456.63362	0.91899
454.57671	0.91823
452.51980	0.91661
450.46289	0.91345
448.40598	0.91142
446.34908	0.91394
444.29217	0.91709
442.23526	0.91538
440.17835	0.91336
438.12144	0.91305
436.06453	0.91286
434.00763	0.91461
431.95072	0.91678
429.89381	0.91681
427.83690	0.91500
425.77999	0.91601
423.72309	0.92087
421.66618	0.92325
419.60927	0.92328
417.55236	0.92308
415.49545	0.92143
413.43854	0.91836
411.38164	0.91417
409.32473	0.91241
407.26782	0.91233
405.21091	0.91126
403.15400	0.91311
401.09710	0.91976
399.04019	0.92369
