3996.57260	0.98273
3994.51569	0.98305
3992.45878	0.98333
3990.40188	0.98359
3988.34497	0.98389
3986.28806	0.98390
3984.23115	0.98327
3982.17424	0.98237
3980.11733	0.98183
3978.06043	0.98175
3976.00352	0.98212
3973.94661	0.98281
3971.88970	0.98314
3969.83279	0.98284
3967.77589	0.98272
3965.71898	0.98317
3963.66207	0.98364
3961.60516	0.98374
3959.54825	0.98333
3957.49134	0.98259
3955.43444	0.98212
3953.37753	0.98210
3951.32062	0.98268
3949.26371	0.98364
3947.20680	0.98411
3945.14990	0.98405
3943.09299	0.98370
3941.03608	0.98298
3938.97917	0.98235
3936.92226	0.98242
3934.86535	0.98283
3932.80845	0.98273
3930.75154	0.98247
3928.69463	0.98269
3926.63772	0.98275
3924.58081	0.98259
3922.52391	0.98298
3920.46700	0.98381
3918.41009	0.98445
3916.35318	0.98439
3914.29627	0.98366
3912.23936	0.98311
3910.18246	0.98307
3908.12555	0.98330
3906.06864	0.98371
3904.01173	0.98390
3901.95482	0.98344
3899.89792	0.98322
3897.84101	0.98351
3895.78410	0.98328
3893.72719	0.98285
3891.67028	0.98300
3889.61337	0.98333
3887.55647	0.98374
3885.49956	0.98413
3883.44265	0.98360
3881.38574	0.98281
3879.32883	0.98250
3877.27193	0.98224
3875.21502	0.98192
3873.15811	0.98205
3871.10120	0.98255
3869.04429	0.98318
3866.98738	0.98390
3864.93048	0.98422
3862.87357	0.98429
3860.81666	0.98479
3858.75975	0.98541
3856.70284	0.98558
3854.64594	0.98494
3852.58903	0.98345
3850.53212	0.98287
3848.47521	0.98307
3846.41830	0.98321
3844.36139	0.98347
3842.30449	0.98363
3840.24758	0.98323
3838.19067	0.98309
3836.13376	0.98347
3834.07685	0.98345
3832.01995	0.98292
3829.96304	0.98240
3827.90613	0.98248
3825.84922	0.98305
3823.79231	0.98376
3821.73540	0.98432
3819.67850	0.98404
3817.62159	0.98339
3815.56468	0.98278
3813.50777	0.98282
3811.45086	0.98362
3809.39396	0.98396
3807.33705	0.98344
3805.28014	0.98310
3803.22323	0.98318
3801.16632	0.98267
3799.10941	0.98162
3797.05251	0.98114
3794.99560	0.98156
3792.93869	0.98281
3790.88178	0.98414
3788.82487	0.98451
3786.76796	0.98416
3784.71106	0.98391
3782.65415	0.98361
3780.59724	0.98333
3778.54033	0.98318
3776.48342	0.98278
3774.42652	0.98249
3772.36961	0.98268
3770.31270	0.98277
3768.25579	0.98264
3766.19888	0.98233
3764.14197	0.98203
3762.08507	0.98245
3760.02816	0.98298
3757.97125	0.98293
3755.91434	0.98341
3753.85743	0.98503
3751.80053	0.98693
3749.74362	0.98698
3747.68671	0.98589
3745.62980	0.98587
3743.57289	0.98583
3741.51598	0.98489
3739.45908	0.98427
3737.40217	0.98364
3735.34526	0.98254
3733.28835	0.98245
3731.23144	0.98294
3729.17454	0.98283
3727.11763	0.98286
3725.06072	0.98375
3723.00381	0.98490
3720.94690	0.98526
3718.88999	0.98491
3716.83309	0.98448
3714.77618	0.98383
3712.71927	0.98241
3710.66236	0.98154
3708.60545	0.98248
3706.54855	0.98323
3704.49164	0.98340
3702.43473	0.98359
3700.37782	0.98355
3698.32091	0.98323
3696.26400	0.98285
3694.20710	0.98281
3692.15019	0.98330
3690.09328	0.98331
3688.03637	0.98272
3685.97946	0.98315
3683.92256	0.98389
3681.86565	0.98383
3679.80874	0.98294
3677.75183	0.98235
3675.69492	0.98332
3673.63801	0.98425
3671.58111	0.98362
3669.52420	0.98242
3667.46729	0.98175
3665.41038	0.98184
3663.35347	0.98225
3661.29657	0.98211
3659.23966	0.98143
3657.18275	0.98113
3655.12584	0.98120
3653.06893	0.98150
3651.01202	0.98230
3648.95512	0.98277
3646.89821	0.98215
3644.84130	0.98134
3642.78439	0.98038
3640.72748	0.97933
3638.67058	0.97863
3636.61367	0.97840
3634.55676	0.97807
3632.49985	0.97772
3630.44294	0.97833
3628.38603	0.97926
3626.32913	0.97953
3624.27222	0.97957
3622.21531	0.97907
3620.15840	0.97822
3618.10149	0.97768
3616.04459	0.97764
3613.98768	0.97763
3611.93077	0.97758
3609.87386	0.97833
3607.81695	0.97917
3605.76004	0.97893
3603.70314	0.97823
3601.64623	0.97739
3599.58932	0.97641
3597.53241	0.97595
3595.47550	0.97638
3593.41860	0.97725
3591.36169	0.97766
3589.30478	0.97748
3587.24787	0.97690
3585.19096	0.97611
3583.13405	0.97558
3581.07715	0.97563
3579.02024	0.97613
3576.96333	0.97655
3574.90642	0.97631
3572.84951	0.97535
3570.79261	0.97487
3568.73570	0.97565
3566.67879	0.97590
3564.62188	0.97450
3562.56497	0.97354
3560.50806	0.97369
3558.45116	0.97401
3556.39425	0.97378
3554.33734	0.97317
3552.28043	0.97276
3550.22352	0.97272
3548.16662	0.97259
3546.10971	0.97214
3544.05280	0.97164
3541.99589	0.97091
3539.93898	0.97036
3537.88207	0.97067
3535.82517	0.97126
3533.76826	0.97165
3531.71135	0.97185
3529.65444	0.97164
3527.59753	0.97123
3525.54063	0.97057
3523.48372	0.96958
3521.42681	0.96906
3519.36990	0.96905
3517.31299	0.96896
3515.25608	0.96880
3513.19918	0.96883
3511.14227	0.96917
3509.08536	0.96929
3507.02845	0.96865
3504.97154	0.96811
3502.91464	0.96858
3500.85773	0.96900
3498.80082	0.96847
3496.74391	0.96779
3494.68700	0.96754
3492.63009	0.96741
3490.57319	0.96733
3488.51628	0.96742
3486.45937	0.96735
3484.40246	0.96721
3482.34555	0.96728
3480.28865	0.96757
3478.23174	0.96744
3476.17483	0.96658
3474.11792	0.96622
3472.06101	0.96669
3470.00410	0.96709
3467.94720	0.96734
3465.89029	0.96749
3463.83338	0.96724
3461.77647	0.96664
3459.71956	0.96628
3457.66266	0.96654
3455.60575	0.96701
3453.54884	0.96718
3451.49193	0.96715
3449.43502	0.96722
3447.37811	0.96710
3445.32121	0.96692
3443.26430	0.96721
3441.20739	0.96749
3439.15048	0.96721
3437.09357	0.96719
3435.03667	0.96783
3432.97976	0.96827
3430.92285	0.96842
3428.86594	0.96904
3426.80903	0.96998
3424.75212	0.97036
3422.69522	0.96993
3420.63831	0.96949
3418.58140	0.96943
3416.52449	0.96930
3414.46758	0.96909
3412.41068	0.96931
3410.35377	0.97004
3408.29686	0.97069
3406.23995	0.97073
3404.18304	0.97052
3402.12613	0.97062
3400.06923	0.97070
3398.01232	0.97069
3395.95541	0.97107
3393.89850	0.97137
3391.84159	0.97116
3389.78469	0.97118
3387.72778	0.97179
3385.67087	0.97251
3383.61396	0.97263
3381.55705	0.97210
3379.50014	0.97170
3377.44324	0.97166
3375.38633	0.97168
3373.32942	0.97166
3371.27251	0.97155
3369.21560	0.97149
3367.15870	0.97166
3365.10179	0.97210
3363.04488	0.97256
3360.98797	0.97257
3358.93106	0.97224
3356.87415	0.97227
3354.81725	0.97267
3352.76034	0.97305
3350.70343	0.97317
3348.64652	0.97309
3346.58961	0.97314
3344.53271	0.97320
3342.47580	0.97289
3340.41889	0.97256
3338.36198	0.97296
3336.30507	0.97350
3334.24816	0.97372
3332.19126	0.97410
3330.13435	0.97420
3328.07744	0.97394
3326.02053	0.97426
3323.96362	0.97499
3321.90672	0.97501
3319.84981	0.97452
3317.79290	0.97414
3315.73599	0.97416
3313.67908	0.97477
3311.62217	0.97518
3309.56527	0.97492
3307.50836	0.97449
3305.45145	0.97424
3303.39454	0.97447
3301.33763	0.97515
3299.28073	0.97563
3297.22382	0.97568
3295.16691	0.97557
3293.11000	0.97553
3291.05309	0.97565
3288.99618	0.97583
3286.93928	0.97602
3284.88237	0.97596
3282.82546	0.97558
3280.76855	0.97536
3278.71164	0.97524
3276.65474	0.97519
3274.59783	0.97536
3272.54092	0.97535
3270.48401	0.97556
3268.42710	0.97645
3266.37019	0.97708
3264.31329	0.97707
3262.25638	0.97686
3260.19947	0.97643
3258.14256	0.97638
3256.08565	0.97697
3254.02875	0.97710
3251.97184	0.97650
3249.91493	0.97593
3247.85802	0.97590
3245.80111	0.97634
3243.74420	0.97643
3241.68730	0.97636
3239.63039	0.97691
3237.57348	0.97735
3235.51657	0.97705
3233.45966	0.97655
3231.40276	0.97651
3229.34585	0.97688
3227.28894	0.97708
3225.23203	0.97726
3223.17512	0.97773
3221.11821	0.97817
3219.06131	0.97849
3217.00440	0.97848
3214.94749	0.97830
3212.89058	0.97821
3210.83367	0.97775
3208.77677	0.97716
3206.71986	0.97716
3204.66295	0.97769
3202.60604	0.97799
3200.54913	0.97785
3198.49222	0.97785
3196.43532	0.97805
3194.37841	0.97828
3192.32150	0.97864
3190.26459	0.97887
3188.20768	0.97874
3186.15078	0.97865
3184.09387	0.97873
3182.03696	0.97864
3179.98005	0.97850
3177.92314	0.97854
3175.86623	0.97881
3173.80933	0.97903
3171.75242	0.97883
3169.69551	0.97846
3167.63860	0.97815
3165.58169	0.97833
3163.52479	0.97895
3161.46788	0.97912
3159.41097	0.97884
3157.35406	0.97876
3155.29715	0.97899
3153.24024	0.97925
3151.18334	0.97916
3149.12643	0.97863
3147.06952	0.97836
3145.01261	0.97881
3142.95570	0.97957
3140.89880	0.97988
3138.84189	0.97951
3136.78498	0.97912
3134.72807	0.97900
3132.67116	0.97913
3130.61425	0.97969
3128.55735	0.98005
3126.50044	0.97961
3124.44353	0.97920
3122.38662	0.97970
3120.32971	0.98033
3118.27281	0.98015
3116.21590	0.97946
3114.15899	0.97911
3112.10208	0.97927
3110.04517	0.97965
3107.98826	0.98005
3105.93136	0.98031
3103.87445	0.98049
3101.81754	0.98053
3099.76063	0.98052
3097.70372	0.98071
3095.64682	0.98055
3093.58991	0.97986
3091.53300	0.97942
3089.47609	0.97958
3087.41918	0.98015
3085.36227	0.98044
3083.30537	0.98009
3081.24846	0.97986
3079.19155	0.97990
3077.13464	0.97969
3075.07773	0.97969
3073.02083	0.97978
3070.96392	0.97946
3068.90701	0.97942
3066.85010	0.97996
3064.79319	0.98047
3062.73628	0.98061
3060.67938	0.98038
3058.62247	0.97987
3056.56556	0.97950
3054.50865	0.97955
3052.45174	0.97970
3050.39484	0.97956
3048.33793	0.97927
3046.28102	0.97937
3044.22411	0.97973
3042.16720	0.97997
3040.11029	0.98011
3038.05339	0.98016
3035.99648	0.98008
3033.93957	0.97972
3031.88266	0.97908
3029.82575	0.97862
3027.76885	0.97865
3025.71194	0.97920
3023.65503	0.97972
3021.59812	0.97961
3019.54121	0.97944
3017.48430	0.97955
3015.42740	0.97925
3013.37049	0.97868
3011.31358	0.97830
3009.25667	0.97804
3007.19976	0.97783
3005.14286	0.97778
3003.08595	0.97777
3001.02904	0.97752
2998.97213	0.97763
2996.91522	0.97833
2994.85831	0.97901
2992.80141	0.97930
2990.74450	0.97910
2988.68759	0.97864
2986.63068	0.97850
2984.57377	0.97872
2982.51687	0.97865
2980.45996	0.97804
2978.40305	0.97720
2976.34614	0.97652
2974.28923	0.97632
2972.23232	0.97614
2970.17542	0.97573
2968.11851	0.97556
2966.06160	0.97528
2964.00469	0.97451
2961.94778	0.97381
2959.89088	0.97362
2957.83397	0.97384
2955.77706	0.97398
2953.72015	0.97382
2951.66324	0.97347
2949.60633	0.97302
2947.54943	0.97319
2945.49252	0.97398
2943.43561	0.97442
2941.37870	0.97446
2939.32179	0.97441
2937.26489	0.97408
2935.20798	0.97377
2933.15107	0.97391
2931.09416	0.97425
2929.03725	0.97459
2926.98034	0.97489
2924.92344	0.97505
2922.86653	0.97499
2920.80962	0.97495
2918.75271	0.97491
2916.69580	0.97443
2914.63890	0.97388
2912.58199	0.97403
2910.52508	0.97453
2908.46817	0.97468
2906.41126	0.97485
2904.35435	0.97505
2902.29745	0.97464
2900.24054	0.97396
2898.18363	0.97352
2896.12672	0.97346
2894.06981	0.97367
2892.01291	0.97359
2889.95600	0.97328
2887.89909	0.97363
2885.84218	0.97429
2883.78527	0.97424
2881.72836	0.97388
2879.67146	0.97393
2877.61455	0.97423
2875.55764	0.97437
2873.50073	0.97433
2871.44382	0.97430
2869.38692	0.97432
2867.33001	0.97436
2865.27310	0.97460
2863.21619	0.97515
2861.15928	0.97608
2859.10237	0.97707
2857.04547	0.97747
2854.98856	0.97740
2852.93165	0.97745
2850.87474	0.97737
2848.81783	0.97710
2846.76093	0.97713
2844.70402	0.97727
2842.64711	0.97738
2840.59020	0.97780
2838.53329	0.97832
2836.47638	0.97846
2834.41948	0.97843
2832.36257	0.97871
2830.30566	0.97898
2828.24875	0.97886
2826.19184	0.97893
2824.13494	0.97921
2822.07803	0.97927
2820.02112	0.97928
2817.96421	0.97925
2815.90730	0.97912
2813.85039	0.97895
2811.79349	0.97882
2809.73658	0.97890
2807.67967	0.97913
2805.62276	0.97921
2803.56585	0.97901
2801.50895	0.97890
2799.45204	0.97900
2797.39513	0.97899
2795.33822	0.97894
2793.28131	0.97903
2791.22440	0.97926
2789.16750	0.97964
2787.11059	0.97975
2785.05368	0.97949
2782.99677	0.97917
2780.93986	0.97878
2778.88296	0.97861
2776.82605	0.97894
2774.76914	0.97932
2772.71223	0.97933
2770.65532	0.97930
2768.59841	0.97961
2766.54151	0.98018
2764.48460	0.98049
2762.42769	0.98040
2760.37078	0.98025
2758.31387	0.98015
2756.25697	0.98005
2754.20006	0.97996
2752.14315	0.97992
2750.08624	0.97988
2748.02933	0.97972
2745.97242	0.97971
2743.91552	0.97990
2741.85861	0.97981
2739.80170	0.97952
2737.74479	0.97949
2735.68788	0.97983
2733.63098	0.98034
2731.57407	0.98048
2729.51716	0.98014
2727.46025	0.97984
2725.40334	0.97973
2723.34643	0.97978
2721.28953	0.97977
2719.23262	0.97965
2717.17571	0.97980
2715.11880	0.97993
2713.06189	0.97979
2711.00499	0.97983
2708.94808	0.97984
2706.89117	0.97959
2704.83426	0.97951
2702.77735	0.97976
2700.72044	0.98014
2698.66354	0.98043
2696.60663	0.98033
2694.54972	0.97976
2692.49281	0.97919
2690.43590	0.97905
2688.37900	0.97929
2686.32209	0.97968
2684.26518	0.98014
2682.20827	0.98068
2680.15136	0.98088
2678.09445	0.98048
2676.03755	0.97992
2673.98064	0.97963
2671.92373	0.97958
2669.86682	0.97960
2667.80991	0.97977
2665.75301	0.98017
2663.69610	0.98040
2661.63919	0.98030
2659.58228	0.98018
2657.52537	0.98005
2655.46846	0.97999
2653.41156	0.98018
2651.35465	0.98036
2649.29774	0.98032
2647.24083	0.98024
2645.18392	0.98030
2643.12702	0.98028
2641.07011	0.98016
2639.01320	0.98020
2636.95629	0.98024
2634.89938	0.98000
2632.84247	0.97962
2630.78557	0.97953
2628.72866	0.97986
2626.67175	0.98011
2624.61484	0.98006
2622.55793	0.98019
2620.50103	0.98037
2618.44412	0.98027
2616.38721	0.98038
2614.33030	0.98079
2612.27339	0.98089
2610.21648	0.98087
2608.15958	0.98113
2606.10267	0.98105
2604.04576	0.98050
2601.98885	0.98024
2599.93194	0.98031
2597.87504	0.98042
2595.81813	0.98064
2593.76122	0.98095
2591.70431	0.98097
2589.64740	0.98053
2587.59049	0.98012
2585.53359	0.98034
2583.47668	0.98112
2581.41977	0.98199
2579.36286	0.98231
2577.30595	0.98180
2575.24905	0.98151
2573.19214	0.98219
2571.13523	0.98307
2569.07832	0.98321
2567.02141	0.98236
2564.96450	0.98125
2562.90760	0.98075
2560.85069	0.98092
2558.79378	0.98138
2556.73687	0.98178
2554.67996	0.98174
2552.62306	0.98161
2550.56615	0.98202
2548.50924	0.98276
2546.45233	0.98287
2544.39542	0.98223
2542.33851	0.98181
2540.28161	0.98176
2538.22470	0.98153
2536.16779	0.98132
2534.11088	0.98159
2532.05397	0.98212
2529.99707	0.98208
2527.94016	0.98126
2525.88325	0.98070
2523.82634	0.98096
2521.76943	0.98135
2519.71252	0.98155
2517.65562	0.98143
2515.59871	0.98116
2513.54180	0.98150
2511.48489	0.98210
2509.42798	0.98201
2507.37108	0.98190
2505.31417	0.98250
2503.25726	0.98282
2501.20035	0.98241
2499.14344	0.98220
2497.08653	0.98239
2495.02963	0.98243
2492.97272	0.98218
2490.91581	0.98165
2488.85890	0.98091
2486.80199	0.98059
2484.74509	0.98100
2482.68818	0.98142
2480.63127	0.98156
2478.57436	0.98172
2476.51745	0.98184
2474.46054	0.98198
2472.40364	0.98241
2470.34673	0.98285
2468.28982	0.98273
2466.23291	0.98184
2464.17600	0.98096
2462.11910	0.98142
2460.06219	0.98266
2458.00528	0.98244
2455.94837	0.98111
2453.89146	0.98072
2451.83455	0.98112
2449.77765	0.98159
2447.72074	0.98231
2445.66383	0.98268
2443.60692	0.98215
2441.55001	0.98167
2439.49311	0.98207
2437.43620	0.98266
2435.37929	0.98269
2433.32238	0.98230
2431.26547	0.98214
2429.20856	0.98219
2427.15166	0.98180
2425.09475	0.98143
2423.03784	0.98160
2420.98093	0.98187
2418.92402	0.98222
2416.86712	0.98266
2414.81021	0.98257
2412.75330	0.98208
2410.69639	0.98161
2408.63948	0.98115
2406.58257	0.98102
2404.52567	0.98169
2402.46876	0.98257
2400.41185	0.98281
2398.35494	0.98272
2396.29803	0.98286
2394.24113	0.98316
2392.18422	0.98321
2390.12731	0.98306
2388.07040	0.98303
2386.01349	0.98282
2383.95658	0.98247
2381.89968	0.98240
2379.84277	0.98261
2377.78586	0.98302
2375.72895	0.98342
2373.67204	0.98379
2371.61514	0.98437
2369.55823	0.98428
2367.50132	0.98252
2365.44441	0.98048
2363.38750	0.97919
2361.33059	0.97846
2359.27369	0.97980
2357.21678	0.98209
2355.15987	0.98274
2353.10296	0.98266
2351.04605	0.98216
2348.98915	0.98127
2346.93224	0.98104
2344.87533	0.98174
2342.81842	0.98239
2340.76151	0.98229
2338.70460	0.98189
2336.64770	0.98155
2334.59079	0.98122
2332.53388	0.98134
2330.47697	0.98176
2328.42006	0.98159
2326.36316	0.98102
2324.30625	0.98073
2322.24934	0.98065
2320.19243	0.98067
2318.13552	0.98118
2316.07861	0.98182
2314.02171	0.98170
2311.96480	0.98147
2309.90789	0.98175
2307.85098	0.98194
2305.79407	0.98186
2303.73717	0.98121
2301.68026	0.98051
2299.62335	0.98096
2297.56644	0.98203
2295.50953	0.98257
2293.45262	0.98232
2291.39572	0.98169
2289.33881	0.98128
2287.28190	0.98126
2285.22499	0.98129
2283.16808	0.98131
2281.11117	0.98198
2279.05427	0.98298
2276.99736	0.98341
2274.94045	0.98343
2272.88354	0.98307
2270.82663	0.98254
2268.76973	0.98269
2266.71282	0.98316
2264.65591	0.98317
2262.59900	0.98285
2260.54209	0.98255
2258.48518	0.98199
2256.42828	0.98195
2254.37137	0.98331
2252.31446	0.98441
2250.25755	0.98476
2248.20064	0.98495
2246.14374	0.98431
2244.08683	0.98272
2242.02992	0.98158
2239.97301	0.98126
2237.91610	0.98114
2235.85919	0.98193
2233.80229	0.98315
2231.74538	0.98317
2229.68847	0.98229
2227.63156	0.98239
2225.57465	0.98325
2223.51775	0.98292
2221.46084	0.98201
2219.40393	0.98148
2217.34702	0.98215
2215.29011	0.98353
2213.23320	0.98330
2211.17630	0.98226
2209.11939	0.98230
2207.06248	0.98334
2205.00557	0.98419
2202.94866	0.98380
2200.89176	0.98307
2198.83485	0.98366
2196.77794	0.98512
2194.72103	0.98554
2192.66412	0.98459
2190.60721	0.98331
2188.55031	0.98230
2186.49340	0.98258
2184.43649	0.98460
2182.37958	0.98660
2180.32267	0.98756
2178.26577	0.98808
2176.20886	0.98719
2174.15195	0.98456
2172.09504	0.98332
2170.03813	0.98467
2167.98122	0.98553
2165.92432	0.98461
2163.86741	0.98356
2161.81050	0.98231
2159.75359	0.98177
2157.69668	0.98434
2155.63978	0.98686
2153.58287	0.98648
2151.52596	0.98577
2149.46905	0.98639
2147.41214	0.98668
2145.35523	0.98522
2143.29833	0.98349
2141.24142	0.98319
2139.18451	0.98384
2137.12760	0.98461
2135.07069	0.98515
2133.01379	0.98520
2130.95688	0.98469
2128.89997	0.98388
2126.84306	0.98292
2124.78615	0.98238
2122.72924	0.98257
2120.67234	0.98279
2118.61543	0.98312
2116.55852	0.98340
2114.50161	0.98252
2112.44470	0.98138
2110.38780	0.98180
2108.33089	0.98249
2106.27398	0.98203
2104.21707	0.98187
2102.16016	0.98203
2100.10325	0.98169
2098.04635	0.98161
2095.98944	0.98261
2093.93253	0.98410
2091.87562	0.98388
2089.81871	0.98211
2087.76181	0.98134
2085.70490	0.98193
2083.64799	0.98251
2081.59108	0.98273
2079.53417	0.98276
2077.47726	0.98281
2075.42036	0.98347
2073.36345	0.98463
2071.30654	0.98508
2069.24963	0.98444
2067.19272	0.98390
2065.13582	0.98425
2063.07891	0.98481
2061.02200	0.98415
2058.96509	0.98260
2056.90818	0.98188
2054.85127	0.98253
2052.79437	0.98317
2050.73746	0.98262
2048.68055	0.98255
2046.62364	0.98410
2044.56673	0.98501
2042.50983	0.98483
2040.45292	0.98397
2038.39601	0.98237
2036.33910	0.98189
2034.28219	0.98239
2032.22528	0.98289
2030.16838	0.98351
2028.11147	0.98310
2026.05456	0.98268
2023.99765	0.98363
2021.94074	0.98437
2019.88384	0.98435
2017.82693	0.98466
2015.77002	0.98533
2013.71311	0.98559
2011.65620	0.98491
2009.59929	0.98434
2007.54239	0.98528
2005.48548	0.98682
2003.42857	0.98752
2001.37166	0.98733
1999.31475	0.98635
1997.25785	0.98536
1995.20094	0.98487
1993.14403	0.98428
1991.08712	0.98480
1989.03021	0.98632
1986.97330	0.98681
1984.91640	0.98662
1982.85949	0.98560
1980.80258	0.98365
1978.74567	0.98276
1976.68876	0.98406
1974.63186	0.98602
1972.57495	0.98654
1970.51804	0.98604
1968.46113	0.98625
1966.40422	0.98713
1964.34731	0.98800
1962.29041	0.98844
1960.23350	0.98731
1958.17659	0.98527
1956.11968	0.98445
1954.06277	0.98458
1952.00587	0.98478
1949.94896	0.98483
1947.89205	0.98503
1945.83514	0.98670
1943.77823	0.98879
1941.72132	0.98810
1939.66442	0.98609
1937.60751	0.98597
1935.55060	0.98687
1933.49369	0.98733
1931.43678	0.98718
1929.37988	0.98665
1927.32297	0.98626
1925.26606	0.98616
1923.20915	0.98617
1921.15224	0.98647
1919.09533	0.98738
1917.03843	0.98815
1914.98152	0.98776
1912.92461	0.98677
1910.86770	0.98652
1908.81079	0.98725
1906.75389	0.98792
1904.69698	0.98795
1902.64007	0.98731
1900.58316	0.98625
1898.52625	0.98549
1896.46934	0.98569
1894.41244	0.98624
1892.35553	0.98597
1890.29862	0.98556
1888.24171	0.98606
1886.18480	0.98665
1884.12790	0.98672
1882.07099	0.98649
1880.01408	0.98614
1877.95717	0.98572
1875.90026	0.98520
1873.84335	0.98503
1871.78645	0.98568
1869.72954	0.98624
1867.67263	0.98596
1865.61572	0.98591
1863.55881	0.98661
1861.50191	0.98734
1859.44500	0.98721
1857.38809	0.98663
1855.33118	0.98697
1853.27427	0.98781
1851.21736	0.98741
1849.16046	0.98635
1847.10355	0.98618
1845.04664	0.98664
1842.98973	0.98709
1840.93282	0.98738
1838.87592	0.98739
1836.81901	0.98694
1834.76210	0.98665
1832.70519	0.98703
1830.64828	0.98718
1828.59137	0.98677
1826.53447	0.98677
1824.47756	0.98693
1822.42065	0.98693
1820.36374	0.98710
1818.30683	0.98710
1816.24993	0.98678
1814.19302	0.98661
1812.13611	0.98664
1810.07920	0.98657
1808.02229	0.98645
1805.96538	0.98630
1803.90848	0.98608
1801.85157	0.98582
1799.79466	0.98579
1797.73775	0.98607
1795.68084	0.98595
1793.62394	0.98541
1791.56703	0.98529
1789.51012	0.98523
1787.45321	0.98452
1785.39630	0.98347
1783.33939	0.98262
1781.28249	0.98223
1779.22558	0.98169
1777.16867	0.98031
1775.11176	0.97803
1773.05485	0.97449
1770.99795	0.96962
1768.94104	0.96456
1766.88413	0.95873
1764.82722	0.95149
1762.77031	0.94243
1760.71340	0.93214
1758.65650	0.92262
1756.59959	0.91303
1754.54268	0.90472
1752.48577	0.89788
1750.42886	0.89006
1748.37196	0.88202
1746.31505	0.87563
1744.25814	0.87053
1742.20123	0.86616
1740.14432	0.86177
1738.08741	0.85823
1736.03051	0.85656
1733.97360	0.85548
1731.91669	0.85536
1729.85978	0.85668
1727.80287	0.85873
1725.74597	0.86182
1723.68906	0.86630
1721.63215	0.87092
1719.57524	0.87582
1717.51833	0.88323
1715.46142	0.89211
1713.40452	0.89974
1711.34761	0.90659
1709.29070	0.91302
1707.23379	0.91941
1705.17688	0.92591
1703.11998	0.93121
1701.06307	0.93627
1699.00616	0.94202
1696.94925	0.94602
1694.89234	0.94893
1692.83543	0.95136
1690.77853	0.95325
1688.72162	0.95474
1686.66471	0.95610
1684.60780	0.95807
1682.55089	0.96000
1680.49399	0.96112
1678.43708	0.96193
1676.38017	0.96262
1674.32326	0.96325
1672.26635	0.96377
1670.20944	0.96442
1668.15254	0.96503
1666.09563	0.96526
1664.03872	0.96538
1661.98181	0.96537
1659.92490	0.96492
1657.86800	0.96437
1655.81109	0.96423
1653.75418	0.96450
1651.69727	0.96438
1649.64036	0.96427
1647.58345	0.96420
1645.52655	0.96380
1643.46964	0.96383
1641.41273	0.96417
1639.35582	0.96440
1637.29891	0.96461
1635.24201	0.96484
1633.18510	0.96502
1631.12819	0.96526
1629.07128	0.96570
1627.01437	0.96626
1624.95746	0.96660
1622.90056	0.96676
1620.84365	0.96711
1618.78674	0.96776
1616.72983	0.96866
1614.67292	0.96958
1612.61602	0.97053
1610.55911	0.97142
1608.50220	0.97193
1606.44529	0.97244
1604.38838	0.97316
1602.33147	0.97363
1600.27457	0.97383
1598.21766	0.97411
1596.16075	0.97448
1594.10384	0.97484
1592.04693	0.97513
1589.99003	0.97549
1587.93312	0.97582
1585.87621	0.97596
1583.81930	0.97614
1581.76239	0.97650
1579.70548	0.97684
1577.64858	0.97704
1575.59167	0.97716
1573.53476	0.97726
1571.47785	0.97763
1569.42094	0.97802
1567.36404	0.97780
1565.30713	0.97733
1563.25022	0.97718
1561.19331	0.97748
1559.13640	0.97817
1557.07949	0.97874
1555.02259	0.97888
1552.96568	0.97876
1550.90877	0.97853
1548.85186	0.97852
1546.79495	0.97877
1544.73805	0.97900
1542.68114	0.97917
1540.62423	0.97943
1538.56732	0.97962
1536.51041	0.97964
1534.45350	0.97943
1532.39660	0.97916
1530.33969	0.97933
1528.28278	0.97965
1526.22587	0.97956
1524.16896	0.97944
1522.11206	0.97977
1520.05515	0.98014
1517.99824	0.98025
1515.94133	0.97998
1513.88442	0.97966
1511.82751	0.97969
1509.77061	0.97993
1507.71370	0.98025
1505.65679	0.98051
1503.59988	0.98044
1501.54297	0.98028
1499.48607	0.98025
1497.42916	0.98043
1495.37225	0.98055
1493.31534	0.98040
1491.25843	0.98005
1489.20152	0.97975
1487.14462	0.97976
1485.08771	0.97980
1483.03080	0.97971
1480.97389	0.97965
1478.91698	0.97951
1476.86008	0.97912
1474.80317	0.97861
1472.74626	0.97786
1470.68935	0.97678
1468.63244	0.97576
1466.57553	0.97467
1464.51863	0.97331
1462.46172	0.97200
1460.40481	0.97098
1458.34790	0.96994
1456.29099	0.96849
1454.23409	0.96720
1452.17718	0.96634
1450.12027	0.96555
1448.06336	0.96457
1446.00645	0.96340
1443.94954	0.96207
1441.89264	0.96069
1439.83573	0.95949
1437.77882	0.95837
1435.72191	0.95747
1433.66500	0.95721
1431.60810	0.95734
1429.55119	0.95764
1427.49428	0.95803
1425.43737	0.95880
1423.38046	0.95982
1421.32355	0.96056
1419.26665	0.96136
1417.20974	0.96228
1415.15283	0.96306
1413.09592	0.96393
1411.03901	0.96467
1408.98211	0.96517
1406.92520	0.96564
1404.86829	0.96580
1402.81138	0.96561
1400.75447	0.96542
1398.69756	0.96502
1396.64066	0.96389
1394.58375	0.96165
1392.52684	0.95857
1390.46993	0.95512
1388.41302	0.95079
1386.35612	0.94574
1384.29921	0.94080
1382.24230	0.93549
1380.18539	0.92965
1378.12848	0.92410
1376.07157	0.91907
1374.01467	0.91374
1371.95776	0.90860
1369.90085	0.90507
1367.84394	0.90357
1365.78703	0.90427
1363.73013	0.90791
1361.67322	0.91535
1359.61631	0.92449
1357.55940	0.93318
1355.50249	0.94121
1353.44558	0.94815
1351.38868	0.95327
1349.33177	0.95651
1347.27486	0.95858
1345.21795	0.96030
1343.16104	0.96183
1341.10414	0.96292
1339.04723	0.96361
1336.99032	0.96436
1334.93341	0.96520
1332.87650	0.96554
1330.81959	0.96517
1328.76269	0.96471
1326.70578	0.96451
1324.64887	0.96428
1322.59196	0.96416
1320.53505	0.96439
1318.47815	0.96467
1316.42124	0.96486
1314.36433	0.96507
1312.30742	0.96528
1310.25051	0.96557
1308.19360	0.96588
1306.13670	0.96592
1304.07979	0.96586
1302.02288	0.96586
1299.96597	0.96562
1297.90906	0.96511
1295.85216	0.96433
1293.79525	0.96325
1291.73834	0.96204
1289.68143	0.96065
1287.62452	0.95902
1285.56761	0.95717
1283.51071	0.95486
1281.45380	0.95187
1279.39689	0.94852
1277.33998	0.94521
1275.28307	0.94174
1273.22617	0.93790
1271.16926	0.93381
1269.11235	0.92940
1267.05544	0.92478
1264.99853	0.92013
1262.94162	0.91500
1260.88472	0.90912
1258.82781	0.90305
1256.77090	0.89701
1254.71399	0.89067
1252.65708	0.88395
1250.60018	0.87710
1248.54327	0.87012
1246.48636	0.86289
1244.42945	0.85555
1242.37254	0.84827
1240.31563	0.84107
1238.25873	0.83398
1236.20182	0.82708
1234.14491	0.82055
1232.08800	0.81456
1230.03109	0.80927
1227.97419	0.80479
1225.91728	0.80111
1223.86037	0.79817
1221.80346	0.79613
1219.74655	0.79517
1217.68964	0.79532
1215.63274	0.79688
1213.57583	0.80016
1211.51892	0.80514
1209.46201	0.81190
1207.40510	0.82055
1205.34820	0.83106
1203.29129	0.84328
1201.23438	0.85634
1199.17747	0.86896
1197.12056	0.88055
1195.06365	0.89103
1193.00675	0.89998
1190.94984	0.90698
1188.89293	0.91217
1186.83602	0.91590
1184.77911	0.91831
1182.72221	0.91937
1180.66530	0.91923
1178.60839	0.91838
1176.55148	0.91718
1174.49457	0.91566
1172.43766	0.91399
1170.38076	0.91229
1168.32385	0.91074
1166.26694	0.90993
1164.21003	0.90975
1162.15312	0.90949
1160.09622	0.90956
1158.03931	0.91054
1155.98240	0.91200
1153.92549	0.91367
1151.86858	0.91574
1149.81167	0.91803
1147.75477	0.92000
1145.69786	0.92123
1143.64095	0.92176
1141.58404	0.92175
1139.52713	0.92138
1137.47023	0.92044
1135.41332	0.91871
1133.35641	0.91655
1131.29950	0.91436
1129.24259	0.91219
1127.18568	0.90995
1125.12878	0.90816
1123.07187	0.90711
1121.01496	0.90620
1118.95805	0.90540
1116.90114	0.90520
1114.84424	0.90523
1112.78733	0.90501
1110.73042	0.90479
1108.67351	0.90439
1106.61660	0.90353
1104.55969	0.90261
1102.50279	0.90151
1100.44588	0.89991
1098.38897	0.89797
1096.33206	0.89576
1094.27515	0.89302
1092.21825	0.88959
1090.16134	0.88591
1088.10443	0.88224
1086.04752	0.87833
1083.99061	0.87412
1081.93370	0.86963
1079.87680	0.86495
1077.81989	0.86060
1075.76298	0.85665
1073.70607	0.85267
1071.64916	0.84862
1069.59226	0.84498
1067.53535	0.84165
1065.47844	0.83798
1063.42153	0.83409
1061.36462	0.83015
1059.30771	0.82586
1057.25081	0.82106
1055.19390	0.81592
1053.13699	0.81084
1051.08008	0.80602
1049.02317	0.80136
1046.96627	0.79684
1044.90936	0.79245
1042.85245	0.78801
1040.79554	0.78365
1038.73863	0.77971
1036.68172	0.77610
1034.62482	0.77250
1032.56791	0.76931
1030.51100	0.76709
1028.45409	0.76629
1026.39718	0.76728
1024.34028	0.76956
1022.28337	0.77255
1020.22646	0.77627
1018.16955	0.78078
1016.11264	0.78612
1014.05573	0.79194
1011.99883	0.79771
1009.94192	0.80348
1007.88501	0.80928
1005.82810	0.81466
1003.77119	0.81963
1001.71429	0.82455
999.65738	0.82934
997.60047	0.83363
995.54356	0.83748
993.48665	0.84124
991.42974	0.84484
989.37284	0.84802
987.31593	0.85103
985.25902	0.85403
983.20211	0.85686
981.14520	0.85936
979.08830	0.86173
977.03139	0.86461
974.97448	0.86826
972.91757	0.87251
970.86066	0.87696
968.80375	0.88107
966.74685	0.88477
964.68994	0.88822
962.63303	0.89134
960.57612	0.89382
958.51921	0.89533
956.46231	0.89638
954.40540	0.89760
952.34849	0.89906
950.29158	0.90069
948.23467	0.90220
946.17776	0.90346
944.12086	0.90475
942.06395	0.90614
940.00704	0.90760
937.95013	0.90875
935.89322	0.90947
933.83632	0.91019
931.77941	0.91071
929.72250	0.91062
927.66559	0.91015
925.60868	0.90960
923.55177	0.90877
921.49487	0.90746
919.43796	0.90600
917.38105	0.90459
915.32414	0.90341
913.26723	0.90277
911.21033	0.90191
909.15342	0.90040
907.09651	0.89923
905.03960	0.89871
902.98269	0.89821
900.92578	0.89783
898.86888	0.89822
896.81197	0.89953
894.75506	0.90135
892.69815	0.90316
890.64124	0.90493
888.58434	0.90680
886.52743	0.90846
884.47052	0.90979
882.41361	0.91092
880.35670	0.91228
878.29979	0.91446
876.24289	0.91702
874.18598	0.91923
872.12907	0.92114
870.07216	0.92298
868.01525	0.92500
865.95835	0.92727
863.90144	0.92944
861.84453	0.93137
859.78762	0.93250
857.73071	0.93255
855.67380	0.93294
853.61690	0.93415
851.55999	0.93468
849.50308	0.93409
847.44617	0.93359
845.38926	0.93401
843.33236	0.93432
841.27545	0.93367
839.21854	0.93314
837.16163	0.93351
835.10472	0.93425
833.04781	0.93515
830.99091	0.93618
828.93400	0.93707
826.87709	0.93821
824.82018	0.93964
822.76327	0.94084
820.70637	0.94150
818.64946	0.94182
816.59255	0.94217
814.53564	0.94234
812.47873	0.94252
810.42182	0.94310
808.36492	0.94366
806.30801	0.94446
804.25110	0.94569
802.19419	0.94648
800.13728	0.94662
798.08038	0.94646
796.02347	0.94613
793.96656	0.94581
791.90965	0.94547
789.85274	0.94488
787.79583	0.94461
785.73893	0.94535
783.68202	0.94649
781.62511	0.94728
779.56820	0.94773
777.51129	0.94781
775.45439	0.94757
773.39748	0.94713
771.34057	0.94690
769.28366	0.94743
767.22675	0.94794
765.16984	0.94797
763.11294	0.94814
761.05603	0.94854
758.99912	0.94903
756.94221	0.94928
754.88530	0.94914
752.82839	0.94895
750.77149	0.94908
748.71458	0.94961
746.65767	0.95006
744.60076	0.95001
742.54385	0.94971
740.48695	0.94933
738.43004	0.94932
736.37313	0.94975
734.31622	0.94970
732.25931	0.94910
730.20240	0.94836
728.14550	0.94767
726.08859	0.94710
724.03168	0.94615
721.97477	0.94503
719.91786	0.94477
717.86096	0.94515
715.80405	0.94493
713.74714	0.94447
711.69023	0.94477
709.63332	0.94511
707.57641	0.94468
705.51951	0.94401
703.46260	0.94352
701.40569	0.94292
699.34878	0.94241
697.29187	0.94221
695.23497	0.94149
693.17806	0.94027
691.12115	0.93925
689.06424	0.93856
687.00733	0.93856
684.95042	0.93898
682.89352	0.93898
680.83661	0.93905
678.77970	0.93907
676.72279	0.93810
674.66588	0.93713
672.60898	0.93690
670.55207	0.93674
668.49516	0.93640
666.43825	0.93597
664.38134	0.93573
662.32443	0.93584
660.26753	0.93592
658.21062	0.93599
656.15371	0.93602
654.09680	0.93540
652.03989	0.93414
649.98299	0.93252
647.92608	0.93085
645.86917	0.92927
643.81226	0.92765
641.75535	0.92661
639.69844	0.92662
637.64154	0.92628
635.58463	0.92422
633.52772	0.92248
631.47081	0.92301
629.41390	0.92381
627.35700	0.92333
625.30009	0.92244
623.24318	0.92154
621.18627	0.91977
619.12936	0.91695
617.07245	0.91442
615.01555	0.91269
612.95864	0.91017
610.90173	0.90590
608.84482	0.90070
606.78791	0.89554
604.73101	0.89125
602.67410	0.88942
600.61719	0.89039
598.56028	0.89239
596.50337	0.89433
594.44646	0.89658
592.38956	0.89936
590.33265	0.90241
588.27574	0.90543
586.21883	0.90803
584.16192	0.91001
582.10502	0.91168
580.04811	0.91273
577.99120	0.91354
575.93429	0.91456
573.87738	0.91472
571.82047	0.91427
569.76357	0.91380
567.70666	0.91310
565.64975	0.91143
563.59284	0.90925
561.53593	0.90824
559.47903	0.90812
557.42212	0.90850
555.36521	0.90920
553.30830	0.90980
551.25139	0.91138
549.19448	0.91351
547.13758	0.91422
545.08067	0.91378
543.02376	0.91294
540.96685	0.91167
538.90994	0.91026
536.85304	0.90897
534.79613	0.90845
532.73922	0.90891
530.68231	0.90948
528.62540	0.90981
526.56849	0.91036
524.51159	0.91046
522.45468	0.90925
520.39777	0.90802
518.34086	0.90711
516.28395	0.90521
514.22705	0.90294
512.17014	0.90178
510.11323	0.90257
508.05632	0.90487
505.99941	0.90585
503.94250	0.90462
501.88560	0.90361
499.82869	0.90251
497.77178	0.90045
495.71487	0.89915
493.65796	0.89800
491.60106	0.89547
489.54415	0.89325
487.48724	0.89289
485.43033	0.89434
483.37342	0.89571
481.31651	0.89426
479.25961	0.89013
477.20270	0.88650
475.14579	0.88628
473.08888	0.88840
471.03197	0.88980
468.97507	0.88914
466.91816	0.88668
464.86125	0.88365
462.80434	0.88206
460.74743	0.88227
458.69052	0.88240
456.63362	0.88223
454.57671	0.88273
452.51980	0.88238
450.46289	0.88032
448.40598	0.87838
446.34908	0.87706
444.29217	0.87599
442.23526	0.87674
440.17835	0.87779
438.12144	0.87655
436.06453	0.87560
434.00763	0.87733
431.95072	0.88084
429.89381	0.88339
427.83690	0.88310
425.77999	0.88169
423.72309	0.87997
421.66618	0.88055
419.60927	0.88606
417.55236	0.88848
415.49545	0.88448
413.43854	0.88132
411.38164	0.88075
409.32473	0.88415
407.26782	0.88978
405.21091	0.88871
403.15400	0.88253
401.09710	0.87897
399.04019	0.87776
