3996.57260	0.98984
3994.51569	0.99003
3992.45878	0.99014
3990.40188	0.98979
3988.34497	0.98917
3986.28806	0.98890
3984.23115	0.98942
3982.17424	0.99018
3980.11733	0.99024
3978.06043	0.98959
3976.00352	0.98904
3973.94661	0.98885
3971.88970	0.98881
3969.83279	0.98907
3967.77589	0.98934
3965.71898	0.98918
3963.66207	0.98889
3961.60516	0.98882
3959.54825	0.98905
3957.49134	0.98932
3955.43444	0.98930
3953.37753	0.98928
3951.32062	0.98950
3949.26371	0.98942
3947.20680	0.98884
3945.14990	0.98843
3943.09299	0.98846
3941.03608	0.98850
3938.97917	0.98843
3936.92226	0.98849
3934.86535	0.98868
3932.80845	0.98892
3930.75154	0.98907
3928.69463	0.98887
3926.63772	0.98857
3924.58081	0.98838
3922.52391	0.98813
3920.46700	0.98797
3918.41009	0.98804
3916.35318	0.98853
3914.29627	0.98903
3912.23936	0.98904
3910.18246	0.98930
3908.12555	0.99024
3906.06864	0.99081
3904.01173	0.99027
3901.95482	0.98943
3899.89792	0.98880
3897.84101	0.98852
3895.78410	0.98867
3893.72719	0.98888
3891.67028	0.98933
3889.61337	0.99045
3887.55647	0.99121
3885.49956	0.99027
3883.44265	0.98883
3881.38574	0.98860
3879.32883	0.98859
3877.27193	0.98809
3875.21502	0.98789
3873.15811	0.98863
3871.10120	0.98959
3869.04429	0.98975
3866.98738	0.98942
3864.93048	0.98923
3862.87357	0.98946
3860.81666	0.98988
3858.75975	0.99006
3856.70284	0.99008
3854.64594	0.98996
3852.58903	0.98958
3850.53212	0.98916
3848.47521	0.98888
3846.41830	0.98871
3844.36139	0.98870
3842.30449	0.98891
3840.24758	0.98883
3838.19067	0.98805
3836.13376	0.98704
3834.07685	0.98681
3832.01995	0.98784
3829.96304	0.98900
3827.90613	0.98919
3825.84922	0.98910
3823.79231	0.98935
3821.73540	0.98931
3819.67850	0.98846
3817.62159	0.98765
3815.56468	0.98788
3813.50777	0.98883
3811.45086	0.98932
3809.39396	0.98937
3807.33705	0.98952
3805.28014	0.98994
3803.22323	0.99026
3801.16632	0.99023
3799.10941	0.98981
3797.05251	0.98932
3794.99560	0.98914
3792.93869	0.98915
3790.88178	0.98884
3788.82487	0.98882
3786.76796	0.98939
3784.71106	0.98935
3782.65415	0.98865
3780.59724	0.98823
3778.54033	0.98844
3776.48342	0.98890
3774.42652	0.98942
3772.36961	0.99019
3770.31270	0.99029
3768.25579	0.98950
3766.19888	0.98929
3764.14197	0.98944
3762.08507	0.98928
3760.02816	0.98919
3757.97125	0.98937
3755.91434	0.98949
3753.85743	0.98899
3751.80053	0.98796
3749.74362	0.98763
3747.68671	0.98843
3745.62980	0.98984
3743.57289	0.99077
3741.51598	0.99012
3739.45908	0.98914
3737.40217	0.98842
3735.34526	0.98799
3733.28835	0.98853
3731.23144	0.98963
3729.17454	0.99014
3727.11763	0.98988
3725.06072	0.98913
3723.00381	0.98877
3720.94690	0.98907
3718.88999	0.98946
3716.83309	0.98924
3714.77618	0.98855
3712.71927	0.98799
3710.66236	0.98776
3708.60545	0.98805
3706.54855	0.98849
3704.49164	0.98865
3702.43473	0.98829
3700.37782	0.98796
3698.32091	0.98858
3696.26400	0.98949
3694.20710	0.98978
3692.15019	0.98940
3690.09328	0.98892
3688.03637	0.98912
3685.97946	0.98947
3683.92256	0.98920
3681.86565	0.98856
3679.80874	0.98834
3677.75183	0.98842
3675.69492	0.98762
3673.63801	0.98655
3671.58111	0.98627
3669.52420	0.98673
3667.46729	0.98769
3665.41038	0.98820
3663.35347	0.98856
3661.29657	0.98897
3659.23966	0.98896
3657.18275	0.98814
3655.12584	0.98656
3653.06893	0.98581
3651.01202	0.98624
3648.95512	0.98627
3646.89821	0.98616
3644.84130	0.98656
3642.78439	0.98709
3640.72748	0.98786
3638.67058	0.98809
3636.61367	0.98707
3634.55676	0.98583
3632.49985	0.98565
3630.44294	0.98627
3628.38603	0.98715
3626.32913	0.98800
3624.27222	0.98854
3622.21531	0.98833
3620.15840	0.98722
3618.10149	0.98616
3616.04459	0.98570
3613.98768	0.98561
3611.93077	0.98559
3609.87386	0.98585
3607.81695	0.98679
3605.76004	0.98729
3603.70314	0.98658
3601.64623	0.98565
3599.58932	0.98529
3597.53241	0.98502
3595.47550	0.98488
3593.41860	0.98527
3591.36169	0.98550
3589.30478	0.98501
3587.24787	0.98430
3585.19096	0.98429
3583.13405	0.98449
3581.07715	0.98437
3579.02024	0.98445
3576.96333	0.98493
3574.90642	0.98508
3572.84951	0.98490
3570.79261	0.98487
3568.73570	0.98457
3566.67879	0.98386
3564.62188	0.98397
3562.56497	0.98453
3560.50806	0.98458
3558.45116	0.98416
3556.39425	0.98359
3554.33734	0.98355
3552.28043	0.98386
3550.22352	0.98373
3548.16662	0.98365
3546.10971	0.98363
3544.05280	0.98298
3541.99589	0.98248
3539.93898	0.98285
3537.88207	0.98319
3535.82517	0.98297
3533.76826	0.98285
3531.71135	0.98268
3529.65444	0.98188
3527.59753	0.98100
3525.54063	0.98066
3523.48372	0.98053
3521.42681	0.98033
3519.36990	0.98025
3517.31299	0.97997
3515.25608	0.97953
3513.19918	0.97942
3511.14227	0.97932
3509.08536	0.97901
3507.02845	0.97885
3504.97154	0.97879
3502.91464	0.97878
3500.85773	0.97896
3498.80082	0.97905
3496.74391	0.97883
3494.68700	0.97866
3492.63009	0.97928
3490.57319	0.98030
3488.51628	0.98086
3486.45937	0.98114
3484.40246	0.98101
3482.34555	0.98044
3480.28865	0.97988
3478.23174	0.97946
3476.17483	0.97930
3474.11792	0.97917
3472.06101	0.97886
3470.00410	0.97887
3467.94720	0.97911
3465.89029	0.97937
3463.83338	0.97956
3461.77647	0.97937
3459.71956	0.97938
3457.66266	0.97968
3455.60575	0.97947
3453.54884	0.97898
3451.49193	0.97913
3449.43502	0.97988
3447.37811	0.98071
3445.32121	0.98108
3443.26430	0.98077
3441.20739	0.98047
3439.15048	0.98075
3437.09357	0.98100
3435.03667	0.98085
3432.97976	0.98110
3430.92285	0.98156
3428.86594	0.98150
3426.80903	0.98121
3424.75212	0.98105
3422.69522	0.98105
3420.63831	0.98117
3418.58140	0.98126
3416.52449	0.98140
3414.46758	0.98183
3412.41068	0.98234
3410.35377	0.98252
3408.29686	0.98225
3406.23995	0.98182
3404.18304	0.98168
3402.12613	0.98172
3400.06923	0.98169
3398.01232	0.98195
3395.95541	0.98265
3393.89850	0.98344
3391.84159	0.98379
3389.78469	0.98325
3387.72778	0.98221
3385.67087	0.98164
3383.61396	0.98175
3381.55705	0.98204
3379.50014	0.98239
3377.44324	0.98268
3375.38633	0.98280
3373.32942	0.98302
3371.27251	0.98340
3369.21560	0.98365
3367.15870	0.98361
3365.10179	0.98331
3363.04488	0.98288
3360.98797	0.98281
3358.93106	0.98342
3356.87415	0.98403
3354.81725	0.98404
3352.76034	0.98377
3350.70343	0.98346
3348.64652	0.98313
3346.58961	0.98306
3344.53271	0.98352
3342.47580	0.98423
3340.41889	0.98453
3338.36198	0.98422
3336.30507	0.98395
3334.24816	0.98424
3332.19126	0.98450
3330.13435	0.98437
3328.07744	0.98435
3326.02053	0.98471
3323.96362	0.98501
3321.90672	0.98497
3319.84981	0.98500
3317.79290	0.98484
3315.73599	0.98427
3313.67908	0.98375
3311.62217	0.98358
3309.56527	0.98397
3307.50836	0.98468
3305.45145	0.98499
3303.39454	0.98486
3301.33763	0.98473
3299.28073	0.98463
3297.22382	0.98497
3295.16691	0.98558
3293.11000	0.98547
3291.05309	0.98493
3288.99618	0.98511
3286.93928	0.98593
3284.88237	0.98619
3282.82546	0.98555
3280.76855	0.98460
3278.71164	0.98429
3276.65474	0.98484
3274.59783	0.98529
3272.54092	0.98523
3270.48401	0.98503
3268.42710	0.98482
3266.37019	0.98511
3264.31329	0.98553
3262.25638	0.98518
3260.19947	0.98522
3258.14256	0.98609
3256.08565	0.98623
3254.02875	0.98588
3251.97184	0.98607
3249.91493	0.98577
3247.85802	0.98491
3245.80111	0.98489
3243.74420	0.98546
3241.68730	0.98561
3239.63039	0.98550
3237.57348	0.98575
3235.51657	0.98603
3233.45966	0.98586
3231.40276	0.98569
3229.34585	0.98567
3227.28894	0.98570
3225.23203	0.98608
3223.17512	0.98697
3221.11821	0.98791
3219.06131	0.98788
3217.00440	0.98681
3214.94749	0.98611
3212.89058	0.98614
3210.83367	0.98624
3208.77677	0.98634
3206.71986	0.98652
3204.66295	0.98695
3202.60604	0.98738
3200.54913	0.98729
3198.49222	0.98696
3196.43532	0.98666
3194.37841	0.98656
3192.32150	0.98702
3190.26459	0.98751
3188.20768	0.98709
3186.15078	0.98613
3184.09387	0.98595
3182.03696	0.98639
3179.98005	0.98652
3177.92314	0.98665
3175.86623	0.98670
3173.80933	0.98630
3171.75242	0.98627
3169.69551	0.98696
3167.63860	0.98753
3165.58169	0.98747
3163.52479	0.98699
3161.46788	0.98644
3159.41097	0.98604
3157.35406	0.98614
3155.29715	0.98670
3153.24024	0.98707
3151.18334	0.98723
3149.12643	0.98745
3147.06952	0.98764
3145.01261	0.98755
3142.95570	0.98716
3140.89880	0.98682
3138.84189	0.98660
3136.78498	0.98664
3134.72807	0.98691
3132.67116	0.98674
3130.61425	0.98621
3128.55735	0.98598
3126.50044	0.98611
3124.44353	0.98650
3122.38662	0.98689
3120.32971	0.98705
3118.27281	0.98712
3116.21590	0.98709
3114.15899	0.98694
3112.10208	0.98719
3110.04517	0.98774
3107.98826	0.98771
3105.93136	0.98727
3103.87445	0.98716
3101.81754	0.98715
3099.76063	0.98687
3097.70372	0.98691
3095.64682	0.98727
3093.58991	0.98720
3091.53300	0.98690
3089.47609	0.98662
3087.41918	0.98633
3085.36227	0.98620
3083.30537	0.98605
3081.24846	0.98607
3079.19155	0.98650
3077.13464	0.98692
3075.07773	0.98709
3073.02083	0.98688
3070.96392	0.98655
3068.90701	0.98653
3066.85010	0.98692
3064.79319	0.98729
3062.73628	0.98705
3060.67938	0.98672
3058.62247	0.98690
3056.56556	0.98729
3054.50865	0.98743
3052.45174	0.98718
3050.39484	0.98704
3048.33793	0.98711
3046.28102	0.98687
3044.22411	0.98633
3042.16720	0.98600
3040.11029	0.98598
3038.05339	0.98605
3035.99648	0.98617
3033.93957	0.98652
3031.88266	0.98682
3029.82575	0.98673
3027.76885	0.98644
3025.71194	0.98622
3023.65503	0.98605
3021.59812	0.98564
3019.54121	0.98513
3017.48430	0.98492
3015.42740	0.98514
3013.37049	0.98584
3011.31358	0.98638
3009.25667	0.98625
3007.19976	0.98603
3005.14286	0.98613
3003.08595	0.98635
3001.02904	0.98646
2998.97213	0.98609
2996.91522	0.98538
2994.85831	0.98509
2992.80141	0.98498
2990.74450	0.98461
2988.68759	0.98473
2986.63068	0.98524
2984.57377	0.98528
2982.51687	0.98484
2980.45996	0.98419
2978.40305	0.98366
2976.34614	0.98363
2974.28923	0.98381
2972.23232	0.98367
2970.17542	0.98326
2968.11851	0.98297
2966.06160	0.98284
2964.00469	0.98268
2961.94778	0.98278
2959.89088	0.98305
2957.83397	0.98278
2955.77706	0.98222
2953.72015	0.98199
2951.66324	0.98192
2949.60633	0.98156
2947.54943	0.98133
2945.49252	0.98159
2943.43561	0.98186
2941.37870	0.98203
2939.32179	0.98209
2937.26489	0.98188
2935.20798	0.98198
2933.15107	0.98233
2931.09416	0.98242
2929.03725	0.98255
2926.98034	0.98296
2924.92344	0.98343
2922.86653	0.98346
2920.80962	0.98324
2918.75271	0.98313
2916.69580	0.98260
2914.63890	0.98195
2912.58199	0.98192
2910.52508	0.98195
2908.46817	0.98162
2906.41126	0.98162
2904.35435	0.98204
2902.29745	0.98230
2900.24054	0.98229
2898.18363	0.98216
2896.12672	0.98216
2894.06981	0.98249
2892.01291	0.98285
2889.95600	0.98284
2887.89909	0.98251
2885.84218	0.98220
2883.78527	0.98244
2881.72836	0.98311
2879.67146	0.98340
2877.61455	0.98326
2875.55764	0.98283
2873.50073	0.98215
2871.44382	0.98194
2869.38692	0.98231
2867.33001	0.98274
2865.27310	0.98328
2863.21619	0.98365
2861.15928	0.98347
2859.10237	0.98338
2857.04547	0.98376
2854.98856	0.98430
2852.93165	0.98490
2850.87474	0.98539
2848.81783	0.98530
2846.76093	0.98489
2844.70402	0.98470
2842.64711	0.98472
2840.59020	0.98494
2838.53329	0.98511
2836.47638	0.98512
2834.41948	0.98550
2832.36257	0.98613
2830.30566	0.98644
2828.24875	0.98640
2826.19184	0.98626
2824.13494	0.98625
2822.07803	0.98629
2820.02112	0.98606
2817.96421	0.98557
2815.90730	0.98553
2813.85039	0.98604
2811.79349	0.98628
2809.73658	0.98608
2807.67967	0.98600
2805.62276	0.98611
2803.56585	0.98623
2801.50895	0.98629
2799.45204	0.98621
2797.39513	0.98606
2795.33822	0.98611
2793.28131	0.98627
2791.22440	0.98618
2789.16750	0.98596
2787.11059	0.98592
2785.05368	0.98597
2782.99677	0.98606
2780.93986	0.98622
2778.88296	0.98641
2776.82605	0.98656
2774.76914	0.98649
2772.71223	0.98635
2770.65532	0.98650
2768.59841	0.98673
2766.54151	0.98665
2764.48460	0.98623
2762.42769	0.98568
2760.37078	0.98543
2758.31387	0.98569
2756.25697	0.98613
2754.20006	0.98645
2752.14315	0.98661
2750.08624	0.98656
2748.02933	0.98647
2745.97242	0.98635
2743.91552	0.98627
2741.85861	0.98647
2739.80170	0.98681
2737.74479	0.98709
2735.68788	0.98714
2733.63098	0.98690
2731.57407	0.98662
2729.51716	0.98636
2727.46025	0.98610
2725.40334	0.98597
2723.34643	0.98605
2721.28953	0.98618
2719.23262	0.98635
2717.17571	0.98651
2715.11880	0.98662
2713.06189	0.98670
2711.00499	0.98667
2708.94808	0.98664
2706.89117	0.98701
2704.83426	0.98740
2702.77735	0.98713
2700.72044	0.98668
2698.66354	0.98649
2696.60663	0.98635
2694.54972	0.98641
2692.49281	0.98678
2690.43590	0.98698
2688.37900	0.98681
2686.32209	0.98675
2684.26518	0.98693
2682.20827	0.98701
2680.15136	0.98688
2678.09445	0.98669
2676.03755	0.98645
2673.98064	0.98646
2671.92373	0.98652
2669.86682	0.98612
2667.80991	0.98579
2665.75301	0.98591
2663.69610	0.98604
2661.63919	0.98601
2659.58228	0.98601
2657.52537	0.98607
2655.46846	0.98612
2653.41156	0.98616
2651.35465	0.98598
2649.29774	0.98561
2647.24083	0.98558
2645.18392	0.98584
2643.12702	0.98577
2641.07011	0.98564
2639.01320	0.98607
2636.95629	0.98660
2634.89938	0.98658
2632.84247	0.98644
2630.78557	0.98663
2628.72866	0.98687
2626.67175	0.98705
2624.61484	0.98726
2622.55793	0.98713
2620.50103	0.98674
2618.44412	0.98673
2616.38721	0.98713
2614.33030	0.98723
2612.27339	0.98646
2610.21648	0.98546
2608.15958	0.98534
2606.10267	0.98601
2604.04576	0.98637
2601.98885	0.98600
2599.93194	0.98579
2597.87504	0.98635
2595.81813	0.98720
2593.76122	0.98776
2591.70431	0.98768
2589.64740	0.98700
2587.59049	0.98655
2585.53359	0.98690
2583.47668	0.98728
2581.41977	0.98717
2579.36286	0.98717
2577.30595	0.98710
2575.24905	0.98644
2573.19214	0.98607
2571.13523	0.98650
2569.07832	0.98695
2567.02141	0.98707
2564.96450	0.98732
2562.90760	0.98807
2560.85069	0.98863
2558.79378	0.98842
2556.73687	0.98825
2554.67996	0.98842
2552.62306	0.98837
2550.56615	0.98790
2548.50924	0.98702
2546.45233	0.98660
2544.39542	0.98731
2542.33851	0.98808
2540.28161	0.98784
2538.22470	0.98745
2536.16779	0.98785
2534.11088	0.98842
2532.05397	0.98853
2529.99707	0.98812
2527.94016	0.98776
2525.88325	0.98808
2523.82634	0.98870
2521.76943	0.98931
2519.71252	0.98956
2517.65562	0.98898
2515.59871	0.98829
2513.54180	0.98818
2511.48489	0.98816
2509.42798	0.98793
2507.37108	0.98760
2505.31417	0.98721
2503.25726	0.98699
2501.20035	0.98705
2499.14344	0.98718
2497.08653	0.98729
2495.02963	0.98715
2492.97272	0.98688
2490.91581	0.98729
2488.85890	0.98814
2486.80199	0.98813
2484.74509	0.98743
2482.68818	0.98750
2480.63127	0.98774
2478.57436	0.98724
2476.51745	0.98706
2474.46054	0.98743
2472.40364	0.98785
2470.34673	0.98831
2468.28982	0.98855
2466.23291	0.98829
2464.17600	0.98773
2462.11910	0.98729
2460.06219	0.98709
2458.00528	0.98713
2455.94837	0.98718
2453.89146	0.98703
2451.83455	0.98693
2449.77765	0.98705
2447.72074	0.98710
2445.66383	0.98724
2443.60692	0.98790
2441.55001	0.98850
2439.49311	0.98863
2437.43620	0.98857
2435.37929	0.98854
2433.32238	0.98868
2431.26547	0.98879
2429.20856	0.98853
2427.15166	0.98791
2425.09475	0.98750
2423.03784	0.98764
2420.98093	0.98777
2418.92402	0.98765
2416.86712	0.98762
2414.81021	0.98793
2412.75330	0.98843
2410.69639	0.98842
2408.63948	0.98812
2406.58257	0.98800
2404.52567	0.98771
2402.46876	0.98771
2400.41185	0.98822
2398.35494	0.98841
2396.29803	0.98817
2394.24113	0.98781
2392.18422	0.98734
2390.12731	0.98719
2388.07040	0.98771
2386.01349	0.98794
2383.95658	0.98748
2381.89968	0.98704
2379.84277	0.98679
2377.78586	0.98709
2375.72895	0.98784
2373.67204	0.98783
2371.61514	0.98712
2369.55823	0.98684
2367.50132	0.98714
2365.44441	0.98760
2363.38750	0.98719
2361.33059	0.98624
2359.27369	0.98664
2357.21678	0.98742
2355.15987	0.98746
2353.10296	0.98783
2351.04605	0.98823
2348.98915	0.98797
2346.93224	0.98759
2344.87533	0.98766
2342.81842	0.98774
2340.76151	0.98759
2338.70460	0.98811
2336.64770	0.98870
2334.59079	0.98853
2332.53388	0.98864
2330.47697	0.98894
2328.42006	0.98869
2326.36316	0.98808
2324.30625	0.98721
2322.24934	0.98676
2320.19243	0.98705
2318.13552	0.98718
2316.07861	0.98717
2314.02171	0.98759
2311.96480	0.98818
2309.90789	0.98835
2307.85098	0.98794
2305.79407	0.98752
2303.73717	0.98741
2301.68026	0.98702
2299.62335	0.98665
2297.56644	0.98708
2295.50953	0.98744
2293.45262	0.98729
2291.39572	0.98738
2289.33881	0.98724
2287.28190	0.98650
2285.22499	0.98608
2283.16808	0.98667
2281.11117	0.98746
2279.05427	0.98728
2276.99736	0.98673
2274.94045	0.98668
2272.88354	0.98721
2270.82663	0.98796
2268.76973	0.98789
2266.71282	0.98700
2264.65591	0.98645
2262.59900	0.98652
2260.54209	0.98646
2258.48518	0.98620
2256.42828	0.98655
2254.37137	0.98746
2252.31446	0.98772
2250.25755	0.98691
2248.20064	0.98579
2246.14374	0.98549
2244.08683	0.98689
2242.02992	0.98860
2239.97301	0.98871
2237.91610	0.98825
2235.85919	0.98825
2233.80229	0.98741
2231.74538	0.98609
2229.68847	0.98620
2227.63156	0.98752
2225.57465	0.98874
2223.51775	0.98930
2221.46084	0.98980
2219.40393	0.99109
2217.34702	0.99205
2215.29011	0.99151
2213.23320	0.99033
2211.17630	0.98940
2209.11939	0.98930
2207.06248	0.98908
2205.00557	0.98775
2202.94866	0.98721
2200.89176	0.98786
2198.83485	0.98851
2196.77794	0.98901
2194.72103	0.98883
2192.66412	0.98784
2190.60721	0.98727
2188.55031	0.98765
2186.49340	0.98810
2184.43649	0.98776
2182.37958	0.98644
2180.32267	0.98578
2178.26577	0.98720
2176.20886	0.98908
2174.15195	0.98973
2172.09504	0.98958
2170.03813	0.98865
2167.98122	0.98701
2165.92432	0.98625
2163.86741	0.98602
2161.81050	0.98525
2159.75359	0.98665
2157.69668	0.98937
2155.63978	0.98912
2153.58287	0.98878
2151.52596	0.99131
2149.46905	0.99370
2147.41214	0.99311
2145.35523	0.99083
2143.29833	0.98917
2141.24142	0.98855
2139.18451	0.98863
2137.12760	0.98936
2135.07069	0.99027
2133.01379	0.99053
2130.95688	0.98981
2128.89997	0.98871
2126.84306	0.98866
2124.78615	0.98867
2122.72924	0.98695
2120.67234	0.98589
2118.61543	0.98669
2116.55852	0.98760
2114.50161	0.98800
2112.44470	0.98796
2110.38780	0.98847
2108.33089	0.98990
2106.27398	0.99082
2104.21707	0.99042
2102.16016	0.98854
2100.10325	0.98656
2098.04635	0.98697
2095.98944	0.98954
2093.93253	0.99141
2091.87562	0.99094
2089.81871	0.98934
2087.76181	0.98813
2085.70490	0.98758
2083.64799	0.98729
2081.59108	0.98636
2079.53417	0.98550
2077.47726	0.98648
2075.42036	0.98857
2073.36345	0.98991
2071.30654	0.99017
2069.24963	0.98964
2067.19272	0.98873
2065.13582	0.98786
2063.07891	0.98715
2061.02200	0.98693
2058.96509	0.98704
2056.90818	0.98736
2054.85127	0.98842
2052.79437	0.98896
2050.73746	0.98748
2048.68055	0.98576
2046.62364	0.98578
2044.56673	0.98635
2042.50983	0.98612
2040.45292	0.98658
2038.39601	0.98830
2036.33910	0.98863
2034.28219	0.98760
2032.22528	0.98830
2030.16838	0.99023
2028.11147	0.99097
2026.05456	0.99116
2023.99765	0.99168
2021.94074	0.99165
2019.88384	0.99138
2017.82693	0.99196
2015.77002	0.99198
2013.71311	0.99053
2011.65620	0.98941
2009.59929	0.98952
2007.54239	0.99041
2005.48548	0.99169
2003.42857	0.99234
2001.37166	0.99166
1999.31475	0.99078
1997.25785	0.99080
1995.20094	0.99097
1993.14403	0.98985
1991.08712	0.98881
1989.03021	0.98962
1986.97330	0.98946
1984.91640	0.98756
1982.85949	0.98645
1980.80258	0.98591
1978.74567	0.98659
1976.68876	0.98979
1974.63186	0.99184
1972.57495	0.99069
1970.51804	0.98880
1968.46113	0.98833
1966.40422	0.98934
1964.34731	0.99005
1962.29041	0.99053
1960.23350	0.99106
1958.17659	0.99061
1956.11968	0.98988
1954.06277	0.99016
1952.00587	0.99067
1949.94896	0.99030
1947.89205	0.99043
1945.83514	0.99129
1943.77823	0.99065
1941.72132	0.98909
1939.66442	0.98933
1937.60751	0.99070
1935.55060	0.99112
1933.49369	0.99051
1931.43678	0.98947
1929.37988	0.98835
1927.32297	0.98805
1925.26606	0.98893
1923.20915	0.99011
1921.15224	0.99049
1919.09533	0.99005
1917.03843	0.98968
1914.98152	0.98975
1912.92461	0.98998
1910.86770	0.99013
1908.81079	0.98967
1906.75389	0.98881
1904.69698	0.98873
1902.64007	0.98953
1900.58316	0.99036
1898.52625	0.99055
1896.46934	0.99020
1894.41244	0.99018
1892.35553	0.99058
1890.29862	0.99110
1888.24171	0.99121
1886.18480	0.99071
1884.12790	0.99054
1882.07099	0.99044
1880.01408	0.99007
1877.95717	0.98998
1875.90026	0.99001
1873.84335	0.99000
1871.78645	0.99033
1869.72954	0.99072
1867.67263	0.99068
1865.61572	0.99034
1863.55881	0.99028
1861.50191	0.99078
1859.44500	0.99103
1857.38809	0.99097
1855.33118	0.99106
1853.27427	0.99083
1851.21736	0.99029
1849.16046	0.99043
1847.10355	0.99119
1845.04664	0.99141
1842.98973	0.99099
1840.93282	0.99056
1838.87592	0.99036
1836.81901	0.99048
1834.76210	0.99065
1832.70519	0.99052
1830.64828	0.99066
1828.59137	0.99144
1826.53447	0.99151
1824.47756	0.99069
1822.42065	0.99038
1820.36374	0.99052
1818.30683	0.99078
1816.24993	0.99126
1814.19302	0.99141
1812.13611	0.99120
1810.07920	0.99090
1808.02229	0.99062
1805.96538	0.99046
1803.90848	0.99016
1801.85157	0.98964
1799.79466	0.98931
1797.73775	0.98900
1795.68084	0.98860
1793.62394	0.98841
1791.56703	0.98846
1789.51012	0.98863
1787.45321	0.98849
1785.39630	0.98791
1783.33939	0.98729
1781.28249	0.98643
1779.22558	0.98505
1777.16867	0.98348
1775.11176	0.98145
1773.05485	0.97822
1770.99795	0.97406
1768.94104	0.96965
1766.88413	0.96425
1764.82722	0.95834
1762.77031	0.95146
1760.71340	0.94284
1758.65650	0.93486
1756.59959	0.92778
1754.54268	0.92186
1752.48577	0.91659
1750.42886	0.91035
1748.37196	0.90438
1746.31505	0.90015
1744.25814	0.89664
1742.20123	0.89298
1740.14432	0.88946
1738.08741	0.88769
1736.03051	0.88786
1733.97360	0.88789
1731.91669	0.88795
1729.85978	0.88938
1727.80287	0.89175
1725.74597	0.89510
1723.68906	0.89957
1721.63215	0.90421
1719.57524	0.90869
1717.51833	0.91418
1715.46142	0.92043
1713.40452	0.92590
1711.34761	0.93092
1709.29070	0.93569
1707.23379	0.94031
1705.17688	0.94477
1703.11998	0.94829
1701.06307	0.95155
1699.00616	0.95511
1696.94925	0.95795
1694.89234	0.96009
1692.83543	0.96176
1690.77853	0.96358
1688.72162	0.96555
1686.66471	0.96724
1684.60780	0.96855
1682.55089	0.96913
1680.49399	0.96980
1678.43708	0.97081
1676.38017	0.97178
1674.32326	0.97235
1672.26635	0.97272
1670.20944	0.97329
1668.15254	0.97366
1666.09563	0.97371
1664.03872	0.97372
1661.98181	0.97380
1659.92490	0.97391
1657.86800	0.97385
1655.81109	0.97388
1653.75418	0.97390
1651.69727	0.97360
1649.64036	0.97368
1647.58345	0.97368
1645.52655	0.97346
1643.46964	0.97356
1641.41273	0.97384
1639.35582	0.97411
1637.29891	0.97435
1635.24201	0.97439
1633.18510	0.97454
1631.12819	0.97507
1629.07128	0.97547
1627.01437	0.97561
1624.95746	0.97600
1622.90056	0.97658
1620.84365	0.97696
1618.78674	0.97716
1616.72983	0.97726
1614.67292	0.97747
1612.61602	0.97767
1610.55911	0.97779
1608.50220	0.97827
1606.44529	0.97903
1604.38838	0.97953
1602.33147	0.97979
1600.27457	0.98016
1598.21766	0.98075
1596.16075	0.98131
1594.10384	0.98145
1592.04693	0.98140
1589.99003	0.98158
1587.93312	0.98180
1585.87621	0.98182
1583.81930	0.98185
1581.76239	0.98215
1579.70548	0.98257
1577.64858	0.98285
1575.59167	0.98273
1573.53476	0.98237
1571.47785	0.98224
1569.42094	0.98232
1567.36404	0.98261
1565.30713	0.98308
1563.25022	0.98350
1561.19331	0.98379
1559.13640	0.98372
1557.07949	0.98301
1555.02259	0.98276
1552.96568	0.98299
1550.90877	0.98322
1548.85186	0.98338
1546.79495	0.98350
1544.73805	0.98346
1542.68114	0.98342
1540.62423	0.98354
1538.56732	0.98364
1536.51041	0.98357
1534.45350	0.98332
1532.39660	0.98323
1530.33969	0.98352
1528.28278	0.98379
1526.22587	0.98376
1524.16896	0.98383
1522.11206	0.98415
1520.05515	0.98436
1517.99824	0.98457
1515.94133	0.98478
1513.88442	0.98481
1511.82751	0.98487
1509.77061	0.98514
1507.71370	0.98546
1505.65679	0.98554
1503.59988	0.98524
1501.54297	0.98495
1499.48607	0.98481
1497.42916	0.98473
1495.37225	0.98471
1493.31534	0.98487
1491.25843	0.98503
1489.20152	0.98498
1487.14462	0.98495
1485.08771	0.98497
1483.03080	0.98487
1480.97389	0.98465
1478.91698	0.98432
1476.86008	0.98388
1474.80317	0.98350
1472.74626	0.98344
1470.68935	0.98308
1468.63244	0.98211
1466.57553	0.98101
1464.51863	0.98016
1462.46172	0.97952
1460.40481	0.97893
1458.34790	0.97794
1456.29099	0.97627
1454.23409	0.97532
1452.17718	0.97482
1450.12027	0.97407
1448.06336	0.97306
1446.00645	0.97204
1443.94954	0.97117
1441.89264	0.97025
1439.83573	0.96930
1437.77882	0.96843
1435.72191	0.96784
1433.66500	0.96770
1431.60810	0.96756
1429.55119	0.96732
1427.49428	0.96763
1425.43737	0.96858
1423.38046	0.96968
1421.32355	0.97060
1419.26665	0.97115
1417.20974	0.97148
1415.15283	0.97212
1413.09592	0.97305
1411.03901	0.97407
1408.98211	0.97496
1406.92520	0.97538
1404.86829	0.97521
1402.81138	0.97492
1400.75447	0.97467
1398.69756	0.97417
1396.64066	0.97325
1394.58375	0.97167
1392.52684	0.96960
1390.46993	0.96724
1388.41302	0.96391
1386.35612	0.95959
1384.29921	0.95526
1382.24230	0.95106
1380.18539	0.94699
1378.12848	0.94318
1376.07157	0.93914
1374.01467	0.93451
1371.95776	0.93027
1369.90085	0.92723
1367.84394	0.92540
1365.78703	0.92544
1363.73013	0.92815
1361.67322	0.93379
1359.61631	0.94060
1357.55940	0.94742
1355.50249	0.95405
1353.44558	0.95970
1351.38868	0.96405
1349.33177	0.96745
1347.27486	0.96972
1345.21795	0.97076
1343.16104	0.97147
1341.10414	0.97252
1339.04723	0.97339
1336.99032	0.97370
1334.93341	0.97402
1332.87650	0.97440
1330.81959	0.97439
1328.76269	0.97406
1326.70578	0.97377
1324.64887	0.97367
1322.59196	0.97385
1320.53505	0.97422
1318.47815	0.97446
1316.42124	0.97451
1314.36433	0.97462
1312.30742	0.97483
1310.25051	0.97514
1308.19360	0.97549
1306.13670	0.97567
1304.07979	0.97556
1302.02288	0.97527
1299.96597	0.97503
1297.90906	0.97457
1295.85216	0.97370
1293.79525	0.97295
1291.73834	0.97249
1289.68143	0.97179
1287.62452	0.97061
1285.56761	0.96908
1283.51071	0.96747
1281.45380	0.96578
1279.39689	0.96374
1277.33998	0.96143
1275.28307	0.95893
1273.22617	0.95605
1271.16926	0.95284
1269.11235	0.94953
1267.05544	0.94611
1264.99853	0.94246
1262.94162	0.93852
1260.88472	0.93424
1258.82781	0.92974
1256.77090	0.92512
1254.71399	0.92019
1252.65708	0.91494
1250.60018	0.90972
1248.54327	0.90463
1246.48636	0.89922
1244.42945	0.89335
1242.37254	0.88736
1240.31563	0.88167
1238.25873	0.87622
1236.20182	0.87079
1234.14491	0.86566
1232.08800	0.86106
1230.03109	0.85692
1227.97419	0.85337
1225.91728	0.85049
1223.86037	0.84829
1221.80346	0.84672
1219.74655	0.84565
1217.68964	0.84500
1215.63274	0.84483
1213.57583	0.84547
1211.51892	0.84745
1209.46201	0.85093
1207.40510	0.85575
1205.34820	0.86207
1203.29129	0.87003
1201.23438	0.87931
1199.17747	0.88902
1197.12056	0.89806
1195.06365	0.90622
1193.00675	0.91383
1190.94984	0.92045
1188.89293	0.92545
1186.83602	0.92899
1184.77911	0.93155
1182.72221	0.93313
1180.66530	0.93375
1178.60839	0.93367
1176.55148	0.93308
1174.49457	0.93209
1172.43766	0.93094
1170.38076	0.93009
1168.32385	0.92965
1166.26694	0.92944
1164.21003	0.92945
1162.15312	0.92974
1160.09622	0.93022
1158.03931	0.93092
1155.98240	0.93206
1153.92549	0.93364
1151.86858	0.93541
1149.81167	0.93706
1147.75477	0.93853
1145.69786	0.93976
1143.64095	0.94041
1141.58404	0.94031
1139.52713	0.94006
1137.47023	0.93982
1135.41332	0.93884
1133.35641	0.93725
1131.29950	0.93579
1129.24259	0.93439
1127.18568	0.93293
1125.12878	0.93177
1123.07187	0.93087
1121.01496	0.93038
1118.95805	0.93043
1116.90114	0.93057
1114.84424	0.93077
1112.78733	0.93100
1110.73042	0.93104
1108.67351	0.93099
1106.61660	0.93076
1104.55969	0.93001
1102.50279	0.92873
1100.44588	0.92723
1098.38897	0.92574
1096.33206	0.92418
1094.27515	0.92234
1092.21825	0.92006
1090.16134	0.91742
1088.10443	0.91459
1086.04752	0.91176
1083.99061	0.90897
1081.93370	0.90574
1079.87680	0.90194
1077.81989	0.89835
1075.76298	0.89538
1073.70607	0.89257
1071.64916	0.88965
1069.59226	0.88694
1067.53535	0.88444
1065.47844	0.88167
1063.42153	0.87828
1061.36462	0.87449
1059.30771	0.87085
1057.25081	0.86750
1055.19390	0.86411
1053.13699	0.86037
1051.08008	0.85648
1049.02317	0.85300
1046.96627	0.84964
1044.90936	0.84612
1042.85245	0.84285
1040.79554	0.83973
1038.73863	0.83656
1036.68172	0.83347
1034.62482	0.83078
1032.56791	0.82886
1030.51100	0.82773
1028.45409	0.82734
1026.39718	0.82776
1024.34028	0.82920
1022.28337	0.83173
1020.22646	0.83487
1018.16955	0.83821
1016.11264	0.84171
1014.05573	0.84522
1011.99883	0.84863
1009.94192	0.85204
1007.88501	0.85561
1005.82810	0.85932
1003.77119	0.86298
1001.71429	0.86661
999.65738	0.87013
997.60047	0.87334
995.54356	0.87637
993.48665	0.87908
991.42974	0.88125
989.37284	0.88324
987.31593	0.88542
985.25902	0.88776
983.20211	0.88985
981.14520	0.89163
979.08830	0.89354
977.03139	0.89568
974.97448	0.89794
972.91757	0.90020
970.86066	0.90249
968.80375	0.90523
966.74685	0.90834
964.68994	0.91122
962.63303	0.91338
960.57612	0.91496
958.51921	0.91629
956.46231	0.91726
954.40540	0.91812
952.34849	0.91897
950.29158	0.91978
948.23467	0.92083
946.17776	0.92206
944.12086	0.92331
942.06395	0.92450
940.00704	0.92558
937.95013	0.92688
935.89322	0.92824
933.83632	0.92904
931.77941	0.92922
929.72250	0.92918
927.66559	0.92901
925.60868	0.92857
923.55177	0.92768
921.49487	0.92659
919.43796	0.92567
917.38105	0.92489
915.32414	0.92432
913.26723	0.92390
911.21033	0.92325
909.15342	0.92213
907.09651	0.92031
905.03960	0.91820
902.98269	0.91666
900.92578	0.91610
898.86888	0.91626
896.81197	0.91684
894.75506	0.91779
892.69815	0.91933
890.64124	0.92156
888.58434	0.92359
886.52743	0.92480
884.47052	0.92579
882.41361	0.92694
880.35670	0.92804
878.29979	0.92911
876.24289	0.93016
874.18598	0.93104
872.12907	0.93226
870.07216	0.93412
868.01525	0.93596
865.95835	0.93746
863.90144	0.93897
861.84453	0.94035
859.78762	0.94143
857.73071	0.94259
855.67380	0.94377
853.61690	0.94458
851.55999	0.94527
849.50308	0.94577
847.44617	0.94549
845.38926	0.94439
843.33236	0.94314
841.27545	0.94258
839.21854	0.94270
837.16163	0.94288
835.10472	0.94322
833.04781	0.94402
830.99091	0.94507
828.93400	0.94603
826.87709	0.94676
824.82018	0.94776
822.76327	0.94904
820.70637	0.94971
818.64946	0.95032
816.59255	0.95140
814.53564	0.95184
812.47873	0.95182
810.42182	0.95227
808.36492	0.95307
806.30801	0.95406
804.25110	0.95479
802.19419	0.95490
800.13728	0.95458
798.08038	0.95424
796.02347	0.95438
793.96656	0.95500
791.90965	0.95612
789.85274	0.95676
787.79583	0.95613
785.73893	0.95560
783.68202	0.95578
781.62511	0.95626
779.56820	0.95692
777.51129	0.95773
775.45439	0.95839
773.39748	0.95828
771.34057	0.95753
769.28366	0.95704
767.22675	0.95744
765.16984	0.95835
763.11294	0.95881
761.05603	0.95884
758.99912	0.95910
756.94221	0.95936
754.88530	0.95916
752.82839	0.95884
750.77149	0.95891
748.71458	0.95946
746.65767	0.95964
744.60076	0.95917
742.54385	0.95946
740.48695	0.96056
738.43004	0.96080
736.37313	0.95971
734.31622	0.95826
732.25931	0.95773
730.20240	0.95830
728.14550	0.95882
726.08859	0.95842
724.03168	0.95760
721.97477	0.95728
719.91786	0.95726
717.86096	0.95688
715.80405	0.95639
713.74714	0.95643
711.69023	0.95664
709.63332	0.95613
707.57641	0.95544
705.51951	0.95536
703.46260	0.95549
701.40569	0.95551
699.34878	0.95525
697.29187	0.95447
695.23497	0.95334
693.17806	0.95243
691.12115	0.95221
689.06424	0.95235
687.00733	0.95190
684.95042	0.95120
682.89352	0.95138
680.83661	0.95180
678.77970	0.95157
676.72279	0.95166
674.66588	0.95214
672.60898	0.95169
670.55207	0.95065
668.49516	0.95031
666.43825	0.95115
664.38134	0.95196
662.32443	0.95185
660.26753	0.95110
658.21062	0.95072
656.15371	0.95107
654.09680	0.95139
652.03989	0.95069
649.98299	0.94942
647.92608	0.94881
645.86917	0.94810
643.81226	0.94621
641.75535	0.94443
639.69844	0.94400
637.64154	0.94379
635.58463	0.94297
633.52772	0.94259
631.47081	0.94270
629.41390	0.94222
627.35700	0.94148
625.30009	0.94061
623.24318	0.93883
621.18627	0.93687
619.12936	0.93585
617.07245	0.93531
615.01555	0.93384
612.95864	0.93109
610.90173	0.92790
608.84482	0.92440
606.78791	0.92048
604.73101	0.91653
602.67410	0.91345
600.61719	0.91254
598.56028	0.91389
596.50337	0.91661
594.44646	0.92017
592.38956	0.92351
590.33265	0.92599
588.27574	0.92801
586.21883	0.92977
584.16192	0.93138
582.10502	0.93287
580.04811	0.93415
577.99120	0.93510
575.93429	0.93566
573.87738	0.93592
571.82047	0.93531
569.76357	0.93355
567.70666	0.93214
565.64975	0.93148
563.59284	0.93074
561.53593	0.93112
559.47903	0.93247
557.42212	0.93239
555.36521	0.93124
553.30830	0.93128
551.25139	0.93237
549.19448	0.93332
547.13758	0.93426
545.08067	0.93406
543.02376	0.93218
540.96685	0.93160
538.90994	0.93319
536.85304	0.93440
534.79613	0.93407
532.73922	0.93302
530.68231	0.93234
528.62540	0.93296
526.56849	0.93418
524.51159	0.93410
522.45468	0.93306
520.39777	0.93258
518.34086	0.93256
516.28395	0.93225
514.22705	0.93182
512.17014	0.93196
510.11323	0.93219
508.05632	0.93149
505.99941	0.92987
503.94250	0.92870
501.88560	0.92875
499.82869	0.92795
497.77178	0.92490
495.71487	0.92264
493.65796	0.92405
491.60106	0.92613
489.54415	0.92606
487.48724	0.92527
485.43033	0.92447
483.37342	0.92418
481.31651	0.92410
479.25961	0.92261
477.20270	0.92092
475.14579	0.92078
473.08888	0.92011
471.03197	0.91923
468.97507	0.92050
466.91816	0.92111
464.86125	0.92017
462.80434	0.91980
460.74743	0.92033
458.69052	0.92063
456.63362	0.91807
454.57671	0.91307
452.51980	0.91011
450.46289	0.91150
448.40598	0.91404
446.34908	0.91376
444.29217	0.91164
442.23526	0.91111
440.17835	0.91142
438.12144	0.91068
436.06453	0.91081
434.00763	0.91259
431.95072	0.91370
429.89381	0.91442
427.83690	0.91691
425.77999	0.91982
423.72309	0.92120
421.66618	0.92116
419.60927	0.91980
417.55236	0.91784
415.49545	0.91632
413.43854	0.91647
411.38164	0.91878
409.32473	0.91891
407.26782	0.91422
405.21091	0.91036
403.15400	0.91099
401.09710	0.91300
399.04019	0.91359
