3996.57260	0.98178
3994.51569	0.98226
3992.45878	0.98303
3990.40188	0.98305
3988.34497	0.98244
3986.28806	0.98206
3984.23115	0.98208
3982.17424	0.98250
3980.11733	0.98313
3978.06043	0.98315
3976.00352	0.98259
3973.94661	0.98244
3971.88970	0.98289
3969.83279	0.98351
3967.77589	0.98393
3965.71898	0.98391
3963.66207	0.98380
3961.60516	0.98352
3959.54825	0.98298
3957.49134	0.98283
3955.43444	0.98295
3953.37753	0.98300
3951.32062	0.98295
3949.26371	0.98251
3947.20680	0.98190
3945.14990	0.98171
3943.09299	0.98196
3941.03608	0.98233
3938.97917	0.98248
3936.92226	0.98250
3934.86535	0.98278
3932.80845	0.98293
3930.75154	0.98247
3928.69463	0.98190
3926.63772	0.98171
3924.58081	0.98155
3922.52391	0.98129
3920.46700	0.98152
3918.41009	0.98207
3916.35318	0.98220
3914.29627	0.98210
3912.23936	0.98252
3910.18246	0.98291
3908.12555	0.98252
3906.06864	0.98207
3904.01173	0.98182
3901.95482	0.98159
3899.89792	0.98201
3897.84101	0.98271
3895.78410	0.98322
3893.72719	0.98373
3891.67028	0.98405
3889.61337	0.98404
3887.55647	0.98395
3885.49956	0.98357
3883.44265	0.98297
3881.38574	0.98249
3879.32883	0.98244
3877.27193	0.98295
3875.21502	0.98339
3873.15811	0.98346
3871.10120	0.98314
3869.04429	0.98211
3866.98738	0.98143
3864.93048	0.98189
3862.87357	0.98241
3860.81666	0.98258
3858.75975	0.98269
3856.70284	0.98263
3854.64594	0.98293
3852.58903	0.98319
3850.53212	0.98271
3848.47521	0.98281
3846.41830	0.98365
3844.36139	0.98437
3842.30449	0.98471
3840.24758	0.98516
3838.19067	0.98498
3836.13376	0.98374
3834.07685	0.98271
3832.01995	0.98200
3829.96304	0.98168
3827.90613	0.98201
3825.84922	0.98250
3823.79231	0.98285
3821.73540	0.98304
3819.67850	0.98298
3817.62159	0.98309
3815.56468	0.98325
3813.50777	0.98307
3811.45086	0.98272
3809.39396	0.98251
3807.33705	0.98225
3805.28014	0.98208
3803.22323	0.98269
3801.16632	0.98313
3799.10941	0.98269
3797.05251	0.98296
3794.99560	0.98396
3792.93869	0.98406
3790.88178	0.98297
3788.82487	0.98187
3786.76796	0.98187
3784.71106	0.98283
3782.65415	0.98367
3780.59724	0.98338
3778.54033	0.98260
3776.48342	0.98275
3774.42652	0.98335
3772.36961	0.98374
3770.31270	0.98352
3768.25579	0.98305
3766.19888	0.98270
3764.14197	0.98221
3762.08507	0.98248
3760.02816	0.98371
3757.97125	0.98447
3755.91434	0.98424
3753.85743	0.98380
3751.80053	0.98294
3749.74362	0.98182
3747.68671	0.98174
3745.62980	0.98222
3743.57289	0.98268
3741.51598	0.98278
3739.45908	0.98275
3737.40217	0.98285
3735.34526	0.98271
3733.28835	0.98234
3731.23144	0.98210
3729.17454	0.98187
3727.11763	0.98197
3725.06072	0.98294
3723.00381	0.98370
3720.94690	0.98351
3718.88999	0.98359
3716.83309	0.98402
3714.77618	0.98435
3712.71927	0.98450
3710.66236	0.98404
3708.60545	0.98368
3706.54855	0.98354
3704.49164	0.98295
3702.43473	0.98271
3700.37782	0.98341
3698.32091	0.98366
3696.26400	0.98317
3694.20710	0.98308
3692.15019	0.98360
3690.09328	0.98381
3688.03637	0.98316
3685.97946	0.98282
3683.92256	0.98330
3681.86565	0.98374
3679.80874	0.98362
3677.75183	0.98370
3675.69492	0.98475
3673.63801	0.98523
3671.58111	0.98417
3669.52420	0.98295
3667.46729	0.98266
3665.41038	0.98254
3663.35347	0.98233
3661.29657	0.98240
3659.23966	0.98269
3657.18275	0.98264
3655.12584	0.98192
3653.06893	0.98170
3651.01202	0.98191
3648.95512	0.98113
3646.89821	0.98022
3644.84130	0.98010
3642.78439	0.98011
3640.72748	0.98004
3638.67058	0.97994
3636.61367	0.97955
3634.55676	0.97904
3632.49985	0.97909
3630.44294	0.97975
3628.38603	0.97998
3626.32913	0.97915
3624.27222	0.97883
3622.21531	0.97944
3620.15840	0.98002
3618.10149	0.97982
3616.04459	0.97888
3613.98768	0.97761
3611.93077	0.97664
3609.87386	0.97636
3607.81695	0.97651
3605.76004	0.97662
3603.70314	0.97692
3601.64623	0.97757
3599.58932	0.97806
3597.53241	0.97809
3595.47550	0.97769
3593.41860	0.97738
3591.36169	0.97749
3589.30478	0.97772
3587.24787	0.97792
3585.19096	0.97781
3583.13405	0.97710
3581.07715	0.97587
3579.02024	0.97510
3576.96333	0.97561
3574.90642	0.97656
3572.84951	0.97703
3570.79261	0.97707
3568.73570	0.97671
3566.67879	0.97574
3564.62188	0.97465
3562.56497	0.97441
3560.50806	0.97473
3558.45116	0.97442
3556.39425	0.97353
3554.33734	0.97316
3552.28043	0.97336
3550.22352	0.97350
3548.16662	0.97384
3546.10971	0.97443
3544.05280	0.97423
3541.99589	0.97334
3539.93898	0.97230
3537.88207	0.97121
3535.82517	0.97073
3533.76826	0.97094
3531.71135	0.97112
3529.65444	0.97074
3527.59753	0.96989
3525.54063	0.96939
3523.48372	0.96946
3521.42681	0.96967
3519.36990	0.96970
3517.31299	0.96959
3515.25608	0.96937
3513.19918	0.96880
3511.14227	0.96805
3509.08536	0.96765
3507.02845	0.96755
3504.97154	0.96747
3502.91464	0.96773
3500.85773	0.96811
3498.80082	0.96795
3496.74391	0.96760
3494.68700	0.96738
3492.63009	0.96734
3490.57319	0.96758
3488.51628	0.96763
3486.45937	0.96727
3484.40246	0.96682
3482.34555	0.96645
3480.28865	0.96641
3478.23174	0.96646
3476.17483	0.96628
3474.11792	0.96629
3472.06101	0.96645
3470.00410	0.96664
3467.94720	0.96683
3465.89029	0.96666
3463.83338	0.96638
3461.77647	0.96650
3459.71956	0.96703
3457.66266	0.96744
3455.60575	0.96729
3453.54884	0.96705
3451.49193	0.96711
3449.43502	0.96754
3447.37811	0.96814
3445.32121	0.96827
3443.26430	0.96791
3441.20739	0.96767
3439.15048	0.96794
3437.09357	0.96837
3435.03667	0.96838
3432.97976	0.96850
3430.92285	0.96914
3428.86594	0.96938
3426.80903	0.96888
3424.75212	0.96837
3422.69522	0.96855
3420.63831	0.96906
3418.58140	0.96925
3416.52449	0.96914
3414.46758	0.96899
3412.41068	0.96905
3410.35377	0.96946
3408.29686	0.97017
3406.23995	0.97078
3404.18304	0.97093
3402.12613	0.97059
3400.06923	0.97013
3398.01232	0.97041
3395.95541	0.97127
3393.89850	0.97156
3391.84159	0.97145
3389.78469	0.97152
3387.72778	0.97153
3385.67087	0.97137
3383.61396	0.97112
3381.55705	0.97099
3379.50014	0.97116
3377.44324	0.97173
3375.38633	0.97243
3373.32942	0.97270
3371.27251	0.97281
3369.21560	0.97296
3367.15870	0.97289
3365.10179	0.97270
3363.04488	0.97264
3360.98797	0.97257
3358.93106	0.97222
3356.87415	0.97181
3354.81725	0.97183
3352.76034	0.97232
3350.70343	0.97306
3348.64652	0.97348
3346.58961	0.97338
3344.53271	0.97339
3342.47580	0.97374
3340.41889	0.97417
3338.36198	0.97438
3336.30507	0.97406
3334.24816	0.97343
3332.19126	0.97325
3330.13435	0.97363
3328.07744	0.97395
3326.02053	0.97364
3323.96362	0.97297
3321.90672	0.97309
3319.84981	0.97390
3317.79290	0.97443
3315.73599	0.97463
3313.67908	0.97480
3311.62217	0.97477
3309.56527	0.97445
3307.50836	0.97432
3305.45145	0.97455
3303.39454	0.97483
3301.33763	0.97528
3299.28073	0.97580
3297.22382	0.97604
3295.16691	0.97595
3293.11000	0.97564
3291.05309	0.97560
3288.99618	0.97592
3286.93928	0.97608
3284.88237	0.97618
3282.82546	0.97647
3280.76855	0.97642
3278.71164	0.97597
3276.65474	0.97568
3274.59783	0.97565
3272.54092	0.97593
3270.48401	0.97645
3268.42710	0.97686
3266.37019	0.97706
3264.31329	0.97724
3262.25638	0.97726
3260.19947	0.97695
3258.14256	0.97683
3256.08565	0.97708
3254.02875	0.97740
3251.97184	0.97786
3249.91493	0.97822
3247.85802	0.97802
3245.80111	0.97772
3243.74420	0.97764
3241.68730	0.97752
3239.63039	0.97750
3237.57348	0.97745
3235.51657	0.97710
3233.45966	0.97679
3231.40276	0.97704
3229.34585	0.97730
3227.28894	0.97721
3225.23203	0.97736
3223.17512	0.97752
3221.11821	0.97766
3219.06131	0.97810
3217.00440	0.97835
3214.94749	0.97809
3212.89058	0.97775
3210.83367	0.97770
3208.77677	0.97783
3206.71986	0.97783
3204.66295	0.97764
3202.60604	0.97787
3200.54913	0.97832
3198.49222	0.97831
3196.43532	0.97829
3194.37841	0.97840
3192.32150	0.97821
3190.26459	0.97785
3188.20768	0.97761
3186.15078	0.97772
3184.09387	0.97802
3182.03696	0.97825
3179.98005	0.97871
3177.92314	0.97933
3175.86623	0.97953
3173.80933	0.97914
3171.75242	0.97865
3169.69551	0.97872
3167.63860	0.97909
3165.58169	0.97926
3163.52479	0.97930
3161.46788	0.97944
3159.41097	0.97962
3157.35406	0.97964
3155.29715	0.97949
3153.24024	0.97910
3151.18334	0.97865
3149.12643	0.97852
3147.06952	0.97888
3145.01261	0.97943
3142.95570	0.97955
3140.89880	0.97943
3138.84189	0.97949
3136.78498	0.97962
3134.72807	0.97973
3132.67116	0.97980
3130.61425	0.97962
3128.55735	0.97938
3126.50044	0.97979
3124.44353	0.98037
3122.38662	0.98011
3120.32971	0.97946
3118.27281	0.97915
3116.21590	0.97924
3114.15899	0.97948
3112.10208	0.97962
3110.04517	0.97938
3107.98826	0.97894
3105.93136	0.97892
3103.87445	0.97920
3101.81754	0.97933
3099.76063	0.97946
3097.70372	0.97981
3095.64682	0.98016
3093.58991	0.97988
3091.53300	0.97911
3089.47609	0.97890
3087.41918	0.97942
3085.36227	0.98005
3083.30537	0.98036
3081.24846	0.98029
3079.19155	0.98006
3077.13464	0.97961
3075.07773	0.97921
3073.02083	0.97947
3070.96392	0.98008
3068.90701	0.98035
3066.85010	0.98025
3064.79319	0.98009
3062.73628	0.98005
3060.67938	0.97998
3058.62247	0.97989
3056.56556	0.97987
3054.50865	0.97971
3052.45174	0.97955
3050.39484	0.97958
3048.33793	0.97966
3046.28102	0.97974
3044.22411	0.97965
3042.16720	0.97945
3040.11029	0.97954
3038.05339	0.97968
3035.99648	0.97929
3033.93957	0.97869
3031.88266	0.97860
3029.82575	0.97874
3027.76885	0.97888
3025.71194	0.97923
3023.65503	0.97936
3021.59812	0.97910
3019.54121	0.97880
3017.48430	0.97875
3015.42740	0.97873
3013.37049	0.97820
3011.31358	0.97756
3009.25667	0.97753
3007.19976	0.97819
3005.14286	0.97907
3003.08595	0.97947
3001.02904	0.97929
2998.97213	0.97898
2996.91522	0.97856
2994.85831	0.97788
2992.80141	0.97729
2990.74450	0.97702
2988.68759	0.97688
2986.63068	0.97695
2984.57377	0.97717
2982.51687	0.97711
2980.45996	0.97662
2978.40305	0.97591
2976.34614	0.97563
2974.28923	0.97583
2972.23232	0.97594
2970.17542	0.97597
2968.11851	0.97601
2966.06160	0.97575
2964.00469	0.97514
2961.94778	0.97441
2959.89088	0.97386
2957.83397	0.97362
2955.77706	0.97354
2953.72015	0.97356
2951.66324	0.97352
2949.60633	0.97320
2947.54943	0.97272
2945.49252	0.97251
2943.43561	0.97253
2941.37870	0.97234
2939.32179	0.97223
2937.26489	0.97251
2935.20798	0.97281
2933.15107	0.97317
2931.09416	0.97349
2929.03725	0.97351
2926.98034	0.97339
2924.92344	0.97330
2922.86653	0.97338
2920.80962	0.97354
2918.75271	0.97386
2916.69580	0.97429
2914.63890	0.97443
2912.58199	0.97427
2910.52508	0.97373
2908.46817	0.97308
2906.41126	0.97316
2904.35435	0.97362
2902.29745	0.97357
2900.24054	0.97350
2898.18363	0.97388
2896.12672	0.97412
2894.06981	0.97375
2892.01291	0.97320
2889.95600	0.97286
2887.89909	0.97287
2885.84218	0.97329
2883.78527	0.97378
2881.72836	0.97401
2879.67146	0.97389
2877.61455	0.97360
2875.55764	0.97357
2873.50073	0.97388
2871.44382	0.97435
2869.38692	0.97489
2867.33001	0.97530
2865.27310	0.97540
2863.21619	0.97539
2861.15928	0.97555
2859.10237	0.97590
2857.04547	0.97622
2854.98856	0.97632
2852.93165	0.97635
2850.87474	0.97641
2848.81783	0.97642
2846.76093	0.97668
2844.70402	0.97724
2842.64711	0.97757
2840.59020	0.97778
2838.53329	0.97811
2836.47638	0.97802
2834.41948	0.97753
2832.36257	0.97752
2830.30566	0.97810
2828.24875	0.97862
2826.19184	0.97896
2824.13494	0.97913
2822.07803	0.97888
2820.02112	0.97854
2817.96421	0.97855
2815.90730	0.97871
2813.85039	0.97887
2811.79349	0.97896
2809.73658	0.97897
2807.67967	0.97907
2805.62276	0.97913
2803.56585	0.97889
2801.50895	0.97866
2799.45204	0.97875
2797.39513	0.97896
2795.33822	0.97908
2793.28131	0.97910
2791.22440	0.97910
2789.16750	0.97909
2787.11059	0.97886
2785.05368	0.97856
2782.99677	0.97870
2780.93986	0.97906
2778.88296	0.97928
2776.82605	0.97958
2774.76914	0.97994
2772.71223	0.98018
2770.65532	0.98014
2768.59841	0.97984
2766.54151	0.97961
2764.48460	0.97963
2762.42769	0.97974
2760.37078	0.97990
2758.31387	0.97996
2756.25697	0.97975
2754.20006	0.97964
2752.14315	0.97982
2750.08624	0.97998
2748.02933	0.97992
2745.97242	0.97968
2743.91552	0.97939
2741.85861	0.97916
2739.80170	0.97906
2737.74479	0.97928
2735.68788	0.97959
2733.63098	0.97978
2731.57407	0.97990
2729.51716	0.97978
2727.46025	0.97964
2725.40334	0.97970
2723.34643	0.97942
2721.28953	0.97886
2719.23262	0.97866
2717.17571	0.97891
2715.11880	0.97947
2713.06189	0.98003
2711.00499	0.98018
2708.94808	0.98008
2706.89117	0.97994
2704.83426	0.97996
2702.77735	0.98007
2700.72044	0.97990
2698.66354	0.97973
2696.60663	0.97994
2694.54972	0.98013
2692.49281	0.98013
2690.43590	0.97997
2688.37900	0.97979
2686.32209	0.97989
2684.26518	0.98000
2682.20827	0.98014
2680.15136	0.98039
2678.09445	0.98019
2676.03755	0.97979
2673.98064	0.97980
2671.92373	0.98000
2669.86682	0.98008
2667.80991	0.98013
2665.75301	0.98024
2663.69610	0.98020
2661.63919	0.98000
2659.58228	0.97994
2657.52537	0.98003
2655.46846	0.98004
2653.41156	0.97985
2651.35465	0.97956
2649.29774	0.97952
2647.24083	0.97971
2645.18392	0.97977
2643.12702	0.97983
2641.07011	0.98025
2639.01320	0.98068
2636.95629	0.98046
2634.89938	0.98004
2632.84247	0.98009
2630.78557	0.98039
2628.72866	0.98072
2626.67175	0.98089
2624.61484	0.98068
2622.55793	0.98027
2620.50103	0.97990
2618.44412	0.97972
2616.38721	0.97983
2614.33030	0.98024
2612.27339	0.98068
2610.21648	0.98079
2608.15958	0.98061
2606.10267	0.98064
2604.04576	0.98084
2601.98885	0.98073
2599.93194	0.98054
2597.87504	0.98078
2595.81813	0.98115
2593.76122	0.98113
2591.70431	0.98067
2589.64740	0.98014
2587.59049	0.98003
2585.53359	0.98004
2583.47668	0.97990
2581.41977	0.98022
2579.36286	0.98083
2577.30595	0.98094
2575.24905	0.98058
2573.19214	0.98019
2571.13523	0.98025
2569.07832	0.98076
2567.02141	0.98124
2564.96450	0.98165
2562.90760	0.98190
2560.85069	0.98163
2558.79378	0.98119
2556.73687	0.98129
2554.67996	0.98172
2552.62306	0.98175
2550.56615	0.98131
2548.50924	0.98106
2546.45233	0.98127
2544.39542	0.98149
2542.33851	0.98176
2540.28161	0.98241
2538.22470	0.98300
2536.16779	0.98307
2534.11088	0.98304
2532.05397	0.98318
2529.99707	0.98315
2527.94016	0.98268
2525.88325	0.98215
2523.82634	0.98180
2521.76943	0.98168
2519.71252	0.98201
2517.65562	0.98242
2515.59871	0.98254
2513.54180	0.98288
2511.48489	0.98333
2509.42798	0.98303
2507.37108	0.98231
2505.31417	0.98218
2503.25726	0.98252
2501.20035	0.98275
2499.14344	0.98239
2497.08653	0.98168
2495.02963	0.98160
2492.97272	0.98219
2490.91581	0.98254
2488.85890	0.98206
2486.80199	0.98109
2484.74509	0.98048
2482.68818	0.98056
2480.63127	0.98106
2478.57436	0.98174
2476.51745	0.98212
2474.46054	0.98203
2472.40364	0.98195
2470.34673	0.98179
2468.28982	0.98147
2466.23291	0.98124
2464.17600	0.98101
2462.11910	0.98100
2460.06219	0.98104
2458.00528	0.98129
2455.94837	0.98211
2453.89146	0.98253
2451.83455	0.98212
2449.77765	0.98171
2447.72074	0.98147
2445.66383	0.98083
2443.60692	0.98054
2441.55001	0.98126
2439.49311	0.98174
2437.43620	0.98145
2435.37929	0.98134
2433.32238	0.98201
2431.26547	0.98255
2429.20856	0.98231
2427.15166	0.98224
2425.09475	0.98256
2423.03784	0.98280
2420.98093	0.98301
2418.92402	0.98283
2416.86712	0.98195
2414.81021	0.98132
2412.75330	0.98139
2410.69639	0.98163
2408.63948	0.98164
2406.58257	0.98140
2404.52567	0.98144
2402.46876	0.98187
2400.41185	0.98202
2398.35494	0.98199
2396.29803	0.98226
2394.24113	0.98228
2392.18422	0.98189
2390.12731	0.98179
2388.07040	0.98215
2386.01349	0.98268
2383.95658	0.98301
2381.89968	0.98281
2379.84277	0.98244
2377.78586	0.98227
2375.72895	0.98214
2373.67204	0.98233
2371.61514	0.98261
2369.55823	0.98208
2367.50132	0.98109
2365.44441	0.98083
2363.38750	0.98107
2361.33059	0.98143
2359.27369	0.98217
2357.21678	0.98253
2355.15987	0.98246
2353.10296	0.98203
2351.04605	0.98181
2348.98915	0.98243
2346.93224	0.98316
2344.87533	0.98283
2342.81842	0.98204
2340.76151	0.98216
2338.70460	0.98247
2336.64770	0.98236
2334.59079	0.98209
2332.53388	0.98186
2330.47697	0.98165
2328.42006	0.98117
2326.36316	0.98022
2324.30625	0.97971
2322.24934	0.98083
2320.19243	0.98240
2318.13552	0.98301
2316.07861	0.98276
2314.02171	0.98190
2311.96480	0.98104
2309.90789	0.98094
2307.85098	0.98141
2305.79407	0.98160
2303.73717	0.98154
2301.68026	0.98133
2299.62335	0.98103
2297.56644	0.98102
2295.50953	0.98130
2293.45262	0.98148
2291.39572	0.98131
2289.33881	0.98117
2287.28190	0.98152
2285.22499	0.98196
2283.16808	0.98211
2281.11117	0.98220
2279.05427	0.98244
2276.99736	0.98315
2274.94045	0.98384
2272.88354	0.98366
2270.82663	0.98278
2268.76973	0.98150
2266.71282	0.98061
2264.65591	0.98120
2262.59900	0.98216
2260.54209	0.98231
2258.48518	0.98244
2256.42828	0.98224
2254.37137	0.98184
2252.31446	0.98244
2250.25755	0.98346
2248.20064	0.98376
2246.14374	0.98290
2244.08683	0.98186
2242.02992	0.98126
2239.97301	0.98054
2237.91610	0.98051
2235.85919	0.98144
2233.80229	0.98187
2231.74538	0.98156
2229.68847	0.98171
2227.63156	0.98234
2225.57465	0.98281
2223.51775	0.98374
2221.46084	0.98430
2219.40393	0.98305
2217.34702	0.98227
2215.29011	0.98253
2213.23320	0.98188
2211.17630	0.98180
2209.11939	0.98316
2207.06248	0.98469
2205.00557	0.98538
2202.94866	0.98438
2200.89176	0.98328
2198.83485	0.98432
2196.77794	0.98600
2194.72103	0.98544
2192.66412	0.98410
2190.60721	0.98402
2188.55031	0.98258
2186.49340	0.98046
2184.43649	0.98124
2182.37958	0.98265
2180.32267	0.98246
2178.26577	0.98352
2176.20886	0.98647
2174.15195	0.98675
2172.09504	0.98326
2170.03813	0.98074
2167.98122	0.98071
2165.92432	0.98048
2163.86741	0.97955
2161.81050	0.98036
2159.75359	0.98533
2157.69668	0.99162
2155.63978	0.99200
2153.58287	0.98799
2151.52596	0.98620
2149.46905	0.98707
2147.41214	0.98770
2145.35523	0.98720
2143.29833	0.98659
2141.24142	0.98740
2139.18451	0.98882
2137.12760	0.98877
2135.07069	0.98777
2133.01379	0.98656
2130.95688	0.98529
2128.89997	0.98470
2126.84306	0.98458
2124.78615	0.98383
2122.72924	0.98305
2120.67234	0.98370
2118.61543	0.98498
2116.55852	0.98530
2114.50161	0.98486
2112.44470	0.98456
2110.38780	0.98418
2108.33089	0.98370
2106.27398	0.98342
2104.21707	0.98294
2102.16016	0.98261
2100.10325	0.98260
2098.04635	0.98308
2095.98944	0.98447
2093.93253	0.98500
2091.87562	0.98353
2089.81871	0.98201
2087.76181	0.98183
2085.70490	0.98235
2083.64799	0.98337
2081.59108	0.98388
2079.53417	0.98298
2077.47726	0.98250
2075.42036	0.98345
2073.36345	0.98442
2071.30654	0.98429
2069.24963	0.98347
2067.19272	0.98265
2065.13582	0.98210
2063.07891	0.98256
2061.02200	0.98338
2058.96509	0.98298
2056.90818	0.98155
2054.85127	0.98008
2052.79437	0.97963
2050.73746	0.98046
2048.68055	0.98162
2046.62364	0.98279
2044.56673	0.98419
2042.50983	0.98508
2040.45292	0.98459
2038.39601	0.98353
2036.33910	0.98375
2034.28219	0.98571
2032.22528	0.98787
2030.16838	0.98758
2028.11147	0.98546
2026.05456	0.98469
2023.99765	0.98459
2021.94074	0.98433
2019.88384	0.98538
2017.82693	0.98709
2015.77002	0.98789
2013.71311	0.98839
2011.65620	0.98908
2009.59929	0.98912
2007.54239	0.98813
2005.48548	0.98648
2003.42857	0.98523
2001.37166	0.98497
1999.31475	0.98525
1997.25785	0.98475
1995.20094	0.98349
1993.14403	0.98313
1991.08712	0.98386
1989.03021	0.98407
1986.97330	0.98360
1984.91640	0.98346
1982.85949	0.98288
1980.80258	0.98256
1978.74567	0.98349
1976.68876	0.98348
1974.63186	0.98364
1972.57495	0.98656
1970.51804	0.98895
1968.46113	0.98850
1966.40422	0.98817
1964.34731	0.98913
1962.29041	0.98922
1960.23350	0.98759
1958.17659	0.98622
1956.11968	0.98632
1954.06277	0.98676
1952.00587	0.98730
1949.94896	0.98822
1947.89205	0.98845
1945.83514	0.98750
1943.77823	0.98684
1941.72132	0.98675
1939.66442	0.98638
1937.60751	0.98627
1935.55060	0.98675
1933.49369	0.98713
1931.43678	0.98667
1929.37988	0.98575
1927.32297	0.98551
1925.26606	0.98604
1923.20915	0.98620
1921.15224	0.98562
1919.09533	0.98539
1917.03843	0.98601
1914.98152	0.98681
1912.92461	0.98695
1910.86770	0.98639
1908.81079	0.98600
1906.75389	0.98615
1904.69698	0.98612
1902.64007	0.98608
1900.58316	0.98676
1898.52625	0.98762
1896.46934	0.98747
1894.41244	0.98620
1892.35553	0.98506
1890.29862	0.98532
1888.24171	0.98672
1886.18480	0.98765
1884.12790	0.98775
1882.07099	0.98758
1880.01408	0.98732
1877.95717	0.98703
1875.90026	0.98705
1873.84335	0.98695
1871.78645	0.98644
1869.72954	0.98578
1867.67263	0.98575
1865.61572	0.98636
1863.55881	0.98625
1861.50191	0.98616
1859.44500	0.98719
1857.38809	0.98789
1855.33118	0.98732
1853.27427	0.98697
1851.21736	0.98726
1849.16046	0.98754
1847.10355	0.98781
1845.04664	0.98801
1842.98973	0.98802
1840.93282	0.98796
1838.87592	0.98799
1836.81901	0.98789
1834.76210	0.98732
1832.70519	0.98695
1830.64828	0.98728
1828.59137	0.98732
1826.53447	0.98681
1824.47756	0.98624
1822.42065	0.98599
1820.36374	0.98634
1818.30683	0.98711
1816.24993	0.98764
1814.19302	0.98742
1812.13611	0.98699
1810.07920	0.98678
1808.02229	0.98645
1805.96538	0.98610
1803.90848	0.98620
1801.85157	0.98618
1799.79466	0.98537
1797.73775	0.98461
1795.68084	0.98433
1793.62394	0.98410
1791.56703	0.98389
1789.51012	0.98374
1787.45321	0.98326
1785.39630	0.98263
1783.33939	0.98209
1781.28249	0.98141
1779.22558	0.98027
1777.16867	0.97874
1775.11176	0.97666
1773.05485	0.97340
1770.99795	0.96842
1768.94104	0.96213
1766.88413	0.95499
1764.82722	0.94740
1762.77031	0.93801
1760.71340	0.92672
1758.65650	0.91656
1756.59959	0.90673
1754.54268	0.89807
1752.48577	0.89074
1750.42886	0.88240
1748.37196	0.87407
1746.31505	0.86727
1744.25814	0.86134
1742.20123	0.85618
1740.14432	0.85190
1738.08741	0.84922
1736.03051	0.84786
1733.97360	0.84611
1731.91669	0.84591
1729.85978	0.84809
1727.80287	0.85095
1725.74597	0.85454
1723.68906	0.85923
1721.63215	0.86453
1719.57524	0.87071
1717.51833	0.87903
1715.46142	0.88820
1713.40452	0.89614
1711.34761	0.90346
1709.29070	0.91066
1707.23379	0.91797
1705.17688	0.92503
1703.11998	0.93033
1701.06307	0.93472
1699.00616	0.93931
1696.94925	0.94335
1694.89234	0.94711
1692.83543	0.95008
1690.77853	0.95237
1688.72162	0.95435
1686.66471	0.95622
1684.60780	0.95805
1682.55089	0.95903
1680.49399	0.95974
1678.43708	0.96054
1676.38017	0.96131
1674.32326	0.96236
1672.26635	0.96351
1670.20944	0.96422
1668.15254	0.96427
1666.09563	0.96431
1664.03872	0.96465
1661.98181	0.96494
1659.92490	0.96484
1657.86800	0.96445
1655.81109	0.96392
1653.75418	0.96328
1651.69727	0.96351
1649.64036	0.96447
1647.58345	0.96488
1645.52655	0.96457
1643.46964	0.96423
1641.41273	0.96409
1639.35582	0.96442
1637.29891	0.96525
1635.24201	0.96571
1633.18510	0.96562
1631.12819	0.96586
1629.07128	0.96636
1627.01437	0.96686
1624.95746	0.96734
1622.90056	0.96772
1620.84365	0.96802
1618.78674	0.96851
1616.72983	0.96910
1614.67292	0.96979
1612.61602	0.97077
1610.55911	0.97158
1608.50220	0.97194
1606.44529	0.97226
1604.38838	0.97283
1602.33147	0.97329
1600.27457	0.97362
1598.21766	0.97397
1596.16075	0.97428
1594.10384	0.97466
1592.04693	0.97514
1589.99003	0.97544
1587.93312	0.97566
1585.87621	0.97606
1583.81930	0.97642
1581.76239	0.97648
1579.70548	0.97646
1577.64858	0.97666
1575.59167	0.97688
1573.53476	0.97698
1571.47785	0.97724
1569.42094	0.97741
1567.36404	0.97717
1565.30713	0.97704
1563.25022	0.97738
1561.19331	0.97803
1559.13640	0.97849
1557.07949	0.97824
1555.02259	0.97806
1552.96568	0.97789
1550.90877	0.97775
1548.85186	0.97796
1546.79495	0.97839
1544.73805	0.97870
1542.68114	0.97881
1540.62423	0.97869
1538.56732	0.97845
1536.51041	0.97846
1534.45350	0.97841
1532.39660	0.97831
1530.33969	0.97852
1528.28278	0.97882
1526.22587	0.97887
1524.16896	0.97897
1522.11206	0.97948
1520.05515	0.97991
1517.99824	0.97995
1515.94133	0.97969
1513.88442	0.97949
1511.82751	0.97946
1509.77061	0.97916
1507.71370	0.97861
1505.65679	0.97871
1503.59988	0.97909
1501.54297	0.97936
1499.48607	0.97970
1497.42916	0.98014
1495.37225	0.98022
1493.31534	0.97994
1491.25843	0.97979
1489.20152	0.97941
1487.14462	0.97881
1485.08771	0.97880
1483.03080	0.97903
1480.97389	0.97888
1478.91698	0.97848
1476.86008	0.97811
1474.80317	0.97760
1472.74626	0.97651
1470.68935	0.97528
1468.63244	0.97453
1466.57553	0.97373
1464.51863	0.97231
1462.46172	0.97089
1460.40481	0.97000
1458.34790	0.96868
1456.29099	0.96626
1454.23409	0.96484
1452.17718	0.96440
1450.12027	0.96400
1448.06336	0.96332
1446.00645	0.96205
1443.94954	0.96035
1441.89264	0.95888
1439.83573	0.95805
1437.77882	0.95737
1435.72191	0.95602
1433.66500	0.95487
1431.60810	0.95446
1429.55119	0.95457
1427.49428	0.95520
1425.43737	0.95614
1423.38046	0.95714
1421.32355	0.95832
1419.26665	0.95961
1417.20974	0.96057
1415.15283	0.96129
1413.09592	0.96197
1411.03901	0.96267
1408.98211	0.96324
1406.92520	0.96354
1404.86829	0.96368
1402.81138	0.96358
1400.75447	0.96321
1398.69756	0.96262
1396.64066	0.96140
1394.58375	0.95891
1392.52684	0.95563
1390.46993	0.95219
1388.41302	0.94782
1386.35612	0.94248
1384.29921	0.93747
1382.24230	0.93221
1380.18539	0.92609
1378.12848	0.91991
1376.07157	0.91410
1374.01467	0.90828
1371.95776	0.90323
1369.90085	0.89982
1367.84394	0.89813
1365.78703	0.89887
1363.73013	0.90287
1361.67322	0.91044
1359.61631	0.91982
1357.55940	0.92925
1355.50249	0.93800
1353.44558	0.94521
1351.38868	0.95045
1349.33177	0.95424
1347.27486	0.95714
1345.21795	0.95917
1343.16104	0.96043
1341.10414	0.96120
1339.04723	0.96185
1336.99032	0.96255
1334.93341	0.96306
1332.87650	0.96321
1330.81959	0.96298
1328.76269	0.96267
1326.70578	0.96256
1324.64887	0.96256
1322.59196	0.96260
1320.53505	0.96250
1318.47815	0.96240
1316.42124	0.96263
1314.36433	0.96294
1312.30742	0.96313
1310.25051	0.96363
1308.19360	0.96417
1306.13670	0.96422
1304.07979	0.96413
1302.02288	0.96402
1299.96597	0.96352
1297.90906	0.96282
1295.85216	0.96225
1293.79525	0.96143
1291.73834	0.96000
1289.68143	0.95819
1287.62452	0.95625
1285.56761	0.95406
1283.51071	0.95160
1281.45380	0.94886
1279.39689	0.94573
1277.33998	0.94224
1275.28307	0.93853
1273.22617	0.93467
1271.16926	0.93055
1269.11235	0.92617
1267.05544	0.92146
1264.99853	0.91630
1262.94162	0.91076
1260.88472	0.90487
1258.82781	0.89859
1256.77090	0.89192
1254.71399	0.88497
1252.65708	0.87800
1250.60018	0.87095
1248.54327	0.86370
1246.48636	0.85626
1244.42945	0.84859
1242.37254	0.84092
1240.31563	0.83337
1238.25873	0.82585
1236.20182	0.81856
1234.14491	0.81161
1232.08800	0.80502
1230.03109	0.79921
1227.97419	0.79454
1225.91728	0.79065
1223.86037	0.78748
1221.80346	0.78552
1219.74655	0.78472
1217.68964	0.78489
1215.63274	0.78623
1213.57583	0.78906
1211.51892	0.79390
1209.46201	0.80108
1207.40510	0.81041
1205.34820	0.82174
1203.29129	0.83465
1201.23438	0.84816
1199.17747	0.86153
1197.12056	0.87415
1195.06365	0.88530
1193.00675	0.89455
1190.94984	0.90199
1188.89293	0.90778
1186.83602	0.91172
1184.77911	0.91376
1182.72221	0.91453
1180.66530	0.91457
1178.60839	0.91405
1176.55148	0.91289
1174.49457	0.91129
1172.43766	0.90961
1170.38076	0.90794
1168.32385	0.90634
1166.26694	0.90518
1164.21003	0.90483
1162.15312	0.90513
1160.09622	0.90584
1158.03931	0.90701
1155.98240	0.90857
1153.92549	0.91061
1151.86858	0.91287
1149.81167	0.91474
1147.75477	0.91625
1145.69786	0.91774
1143.64095	0.91904
1141.58404	0.91935
1139.52713	0.91833
1137.47023	0.91672
1135.41332	0.91489
1133.35641	0.91274
1131.29950	0.91055
1129.24259	0.90845
1127.18568	0.90615
1125.12878	0.90379
1123.07187	0.90220
1121.01496	0.90169
1118.95805	0.90148
1116.90114	0.90118
1114.84424	0.90105
1112.78733	0.90087
1110.73042	0.90036
1108.67351	0.89955
1106.61660	0.89857
1104.55969	0.89759
1102.50279	0.89659
1100.44588	0.89525
1098.38897	0.89330
1096.33206	0.89082
1094.27515	0.88796
1092.21825	0.88472
1090.16134	0.88088
1088.10443	0.87652
1086.04752	0.87213
1083.99061	0.86778
1081.93370	0.86336
1079.87680	0.85905
1077.81989	0.85466
1075.76298	0.85020
1073.70607	0.84589
1071.64916	0.84162
1069.59226	0.83764
1067.53535	0.83424
1065.47844	0.83069
1063.42153	0.82658
1061.36462	0.82219
1059.30771	0.81759
1057.25081	0.81298
1055.19390	0.80852
1053.13699	0.80336
1051.08008	0.79746
1049.02317	0.79194
1046.96627	0.78711
1044.90936	0.78285
1042.85245	0.77893
1040.79554	0.77495
1038.73863	0.77088
1036.68172	0.76674
1034.62482	0.76254
1032.56791	0.75884
1030.51100	0.75646
1028.45409	0.75582
1026.39718	0.75670
1024.34028	0.75896
1022.28337	0.76245
1020.22646	0.76662
1018.16955	0.77126
1016.11264	0.77654
1014.05573	0.78238
1011.99883	0.78846
1009.94192	0.79447
1007.88501	0.80033
1005.82810	0.80601
1003.77119	0.81151
1001.71429	0.81712
999.65738	0.82237
997.60047	0.82676
995.54356	0.83105
993.48665	0.83530
991.42974	0.83882
989.37284	0.84200
987.31593	0.84528
985.25902	0.84856
983.20211	0.85157
981.14520	0.85439
979.08830	0.85730
977.03139	0.86055
974.97448	0.86447
972.91757	0.86880
970.86066	0.87290
968.80375	0.87684
966.74685	0.88096
964.68994	0.88490
962.63303	0.88796
960.57612	0.89024
958.51921	0.89210
956.46231	0.89361
954.40540	0.89504
952.34849	0.89657
950.29158	0.89809
948.23467	0.89951
946.17776	0.90107
944.12086	0.90269
942.06395	0.90406
940.00704	0.90557
937.95013	0.90713
935.89322	0.90819
933.83632	0.90874
931.77941	0.90873
929.72250	0.90823
927.66559	0.90757
925.60868	0.90697
923.55177	0.90636
921.49487	0.90526
919.43796	0.90359
917.38105	0.90211
915.32414	0.90128
913.26723	0.90060
911.21033	0.89960
909.15342	0.89841
907.09651	0.89704
905.03960	0.89590
902.98269	0.89546
900.92578	0.89548
898.86888	0.89579
896.81197	0.89686
894.75506	0.89882
892.69815	0.90101
890.64124	0.90292
888.58434	0.90475
886.52743	0.90679
884.47052	0.90857
882.41361	0.90972
880.35670	0.91089
878.29979	0.91257
876.24289	0.91445
874.18598	0.91644
872.12907	0.91899
870.07216	0.92206
868.01525	0.92488
865.95835	0.92692
863.90144	0.92828
861.84453	0.92921
859.78762	0.93023
857.73071	0.93189
855.67380	0.93322
853.61690	0.93358
851.55999	0.93373
849.50308	0.93359
847.44617	0.93294
845.38926	0.93239
843.33236	0.93239
841.27545	0.93263
839.21854	0.93239
837.16163	0.93189
835.10472	0.93186
833.04781	0.93267
830.99091	0.93401
828.93400	0.93534
826.87709	0.93690
824.82018	0.93874
822.76327	0.94012
820.70637	0.94090
818.64946	0.94155
816.59255	0.94209
814.53564	0.94262
812.47873	0.94338
810.42182	0.94419
808.36492	0.94507
806.30801	0.94591
804.25110	0.94610
802.19419	0.94543
800.13728	0.94505
798.08038	0.94539
796.02347	0.94552
793.96656	0.94541
791.90965	0.94605
789.85274	0.94736
787.79583	0.94816
785.73893	0.94816
783.68202	0.94791
781.62511	0.94766
779.56820	0.94720
777.51129	0.94692
775.45439	0.94721
773.39748	0.94756
771.34057	0.94796
769.28366	0.94845
767.22675	0.94896
765.16984	0.94948
763.11294	0.94967
761.05603	0.94967
758.99912	0.94976
756.94221	0.94996
754.88530	0.95017
752.82839	0.95025
750.77149	0.95026
748.71458	0.95047
746.65767	0.95076
744.60076	0.95091
742.54385	0.95095
740.48695	0.95044
738.43004	0.94965
736.37313	0.94957
734.31622	0.95000
732.25931	0.95024
730.20240	0.95025
728.14550	0.94996
726.08859	0.94885
724.03168	0.94711
721.97477	0.94594
719.91786	0.94621
717.86096	0.94675
715.80405	0.94625
713.74714	0.94529
711.69023	0.94464
709.63332	0.94448
707.57641	0.94426
705.51951	0.94383
703.46260	0.94349
701.40569	0.94265
699.34878	0.94150
697.29187	0.94101
695.23497	0.94090
693.17806	0.94058
691.12115	0.93966
689.06424	0.93853
687.00733	0.93817
684.95042	0.93788
682.89352	0.93718
680.83661	0.93698
678.77970	0.93748
676.72279	0.93824
674.66588	0.93880
672.60898	0.93859
670.55207	0.93777
668.49516	0.93764
666.43825	0.93792
664.38134	0.93784
662.32443	0.93800
660.26753	0.93755
658.21062	0.93636
656.15371	0.93516
654.09680	0.93374
652.03989	0.93249
649.98299	0.93139
647.92608	0.92975
645.86917	0.92809
643.81226	0.92681
641.75535	0.92552
639.69844	0.92426
637.64154	0.92327
635.58463	0.92244
633.52772	0.92197
631.47081	0.92174
629.41390	0.92144
627.35700	0.92146
625.30009	0.92143
623.24318	0.92029
621.18627	0.91819
619.12936	0.91594
617.07245	0.91415
615.01555	0.91263
612.95864	0.91006
610.90173	0.90542
608.84482	0.89942
606.78791	0.89333
604.73101	0.88800
602.67410	0.88512
600.61719	0.88594
598.56028	0.88882
596.50337	0.89175
594.44646	0.89496
592.38956	0.89884
590.33265	0.90259
588.27574	0.90559
586.21883	0.90820
584.16192	0.91113
582.10502	0.91400
580.04811	0.91496
577.99120	0.91430
575.93429	0.91380
573.87738	0.91374
571.82047	0.91480
569.76357	0.91639
567.70666	0.91628
565.64975	0.91399
563.59284	0.91053
561.53593	0.90756
559.47903	0.90623
557.42212	0.90584
555.36521	0.90588
553.30830	0.90700
551.25139	0.90846
549.19448	0.90985
547.13758	0.91156
545.08067	0.91158
543.02376	0.90967
540.96685	0.90925
538.90994	0.91152
536.85304	0.91354
534.79613	0.91339
532.73922	0.91279
530.68231	0.91306
528.62540	0.91293
526.56849	0.91132
524.51159	0.90938
522.45468	0.90817
520.39777	0.90748
518.34086	0.90771
516.28395	0.90838
514.22705	0.90810
512.17014	0.90748
510.11323	0.90703
508.05632	0.90637
505.99941	0.90552
503.94250	0.90403
501.88560	0.90261
499.82869	0.90287
497.77178	0.90280
495.71487	0.90006
493.65796	0.89714
491.60106	0.89697
489.54415	0.89826
487.48724	0.89924
485.43033	0.89877
483.37342	0.89654
481.31651	0.89443
479.25961	0.89288
477.20270	0.89033
475.14579	0.88905
473.08888	0.89125
471.03197	0.89196
468.97507	0.89027
466.91816	0.89023
464.86125	0.89078
462.80434	0.88976
460.74743	0.88729
458.69052	0.88346
456.63362	0.88004
454.57671	0.87988
452.51980	0.88082
450.46289	0.88081
448.40598	0.88003
446.34908	0.87892
444.29217	0.87810
442.23526	0.87638
440.17835	0.87476
438.12144	0.87580
436.06453	0.87952
434.00763	0.88420
431.95072	0.88707
429.89381	0.88707
427.83690	0.88567
425.77999	0.88358
423.72309	0.88271
421.66618	0.88576
419.60927	0.89013
417.55236	0.89221
415.49545	0.89229
413.43854	0.89166
411.38164	0.89083
409.32473	0.89017
407.26782	0.89107
405.21091	0.89138
403.15400	0.88826
401.09710	0.88611
399.04019	0.88670
