3996.56942	0.98335
3994.51251	0.98312
3992.45560	0.98310
3990.39870	0.98338
3988.34179	0.98376
3986.28488	0.98388
3984.22798	0.98395
3982.17107	0.98426
3980.11417	0.98471
3978.05726	0.98503
3976.00035	0.98499
3973.94345	0.98412
3971.88654	0.98289
3969.82963	0.98292
3967.77273	0.98411
3965.71582	0.98471
3963.65891	0.98438
3961.60201	0.98411
3959.54510	0.98420
3957.48819	0.98436
3955.43129	0.98459
3953.37438	0.98455
3951.31747	0.98401
3949.26057	0.98375
3947.20366	0.98411
3945.14675	0.98420
3943.08985	0.98377
3941.03294	0.98336
3938.97603	0.98371
3936.91913	0.98456
3934.86222	0.98452
3932.80531	0.98384
3930.74841	0.98377
3928.69150	0.98389
3926.63459	0.98408
3924.57769	0.98448
3922.52078	0.98447
3920.46388	0.98435
3918.40697	0.98454
3916.35006	0.98456
3914.29316	0.98431
3912.23625	0.98428
3910.17934	0.98411
3908.12244	0.98341
3906.06553	0.98280
3904.00862	0.98253
3901.95172	0.98249
3899.89481	0.98280
3897.83790	0.98310
3895.78100	0.98353
3893.72409	0.98422
3891.66718	0.98450
3889.61028	0.98440
3887.55337	0.98459
3885.49646	0.98453
3883.43956	0.98410
3881.38265	0.98394
3879.32574	0.98388
3877.26884	0.98389
3875.21193	0.98395
3873.15502	0.98416
3871.09812	0.98481
3869.04121	0.98532
3866.98431	0.98527
3864.92740	0.98502
3862.87049	0.98492
3860.81359	0.98526
3858.75668	0.98532
3856.69977	0.98467
3854.64287	0.98434
3852.58596	0.98506
3850.52905	0.98515
3848.47215	0.98481
3846.41524	0.98464
3844.35833	0.98466
3842.30143	0.98493
3840.24452	0.98464
3838.18761	0.98347
3836.13071	0.98324
3834.07380	0.98420
3832.01689	0.98479
3829.95999	0.98437
3827.90308	0.98378
3825.84617	0.98368
3823.78927	0.98392
3821.73236	0.98467
3819.67545	0.98523
3817.61855	0.98485
3815.56164	0.98426
3813.50473	0.98428
3811.44783	0.98492
3809.39092	0.98554
3807.33402	0.98592
3805.27711	0.98620
3803.22020	0.98595
3801.16330	0.98505
3799.10639	0.98465
3797.04948	0.98487
3794.99258	0.98524
3792.93567	0.98560
3790.87876	0.98549
3788.82186	0.98504
3786.76495	0.98481
3784.70804	0.98446
3782.65114	0.98411
3780.59423	0.98414
3778.53732	0.98409
3776.48042	0.98405
3774.42351	0.98460
3772.36660	0.98522
3770.30970	0.98503
3768.25279	0.98459
3766.19588	0.98447
3764.13898	0.98434
3762.08207	0.98451
3760.02516	0.98474
3757.96826	0.98446
3755.91135	0.98429
3753.85445	0.98483
3751.79754	0.98624
3749.74063	0.98760
3747.68373	0.98833
3745.62682	0.98933
3743.56991	0.98884
3741.51301	0.98671
3739.45610	0.98573
3737.39919	0.98604
3735.34229	0.98638
3733.28538	0.98603
3731.22847	0.98536
3729.17157	0.98480
3727.11466	0.98485
3725.05775	0.98559
3723.00085	0.98602
3720.94394	0.98587
3718.88703	0.98585
3716.83013	0.98592
3714.77322	0.98625
3712.71631	0.98714
3710.65941	0.98754
3708.60250	0.98686
3706.54559	0.98604
3704.48869	0.98578
3702.43178	0.98622
3700.37487	0.98644
3698.31797	0.98583
3696.26106	0.98507
3694.20416	0.98472
3692.14725	0.98444
3690.09034	0.98385
3688.03344	0.98386
3685.97653	0.98451
3683.91962	0.98488
3681.86272	0.98518
3679.80581	0.98554
3677.74890	0.98556
3675.69200	0.98540
3673.63509	0.98521
3671.57818	0.98492
3669.52128	0.98408
3667.46437	0.98311
3665.40746	0.98279
3663.35056	0.98266
3661.29365	0.98259
3659.23674	0.98313
3657.17984	0.98420
3655.12293	0.98461
3653.06602	0.98395
3651.00912	0.98334
3648.95221	0.98344
3646.89530	0.98346
3644.83840	0.98312
3642.78149	0.98311
3640.72459	0.98352
3638.66768	0.98392
3636.61077	0.98394
3634.55387	0.98344
3632.49696	0.98278
3630.44005	0.98196
3628.38315	0.98109
3626.32624	0.98124
3624.26933	0.98189
3622.21243	0.98241
3620.15552	0.98254
3618.09861	0.98227
3616.04171	0.98200
3613.98480	0.98159
3611.92789	0.98105
3609.87099	0.98072
3607.81408	0.98043
3605.75717	0.98036
3603.70027	0.98097
3601.64336	0.98144
3599.58645	0.98077
3597.52955	0.97974
3595.47264	0.97907
3593.41573	0.97851
3591.35883	0.97829
3589.30192	0.97832
3587.24501	0.97799
3585.18811	0.97770
3583.13120	0.97772
3581.07430	0.97751
3579.01739	0.97705
3576.96048	0.97624
3574.90358	0.97534
3572.84667	0.97517
3570.78976	0.97538
3568.73286	0.97474
3566.67595	0.97327
3564.61904	0.97296
3562.56214	0.97364
3560.50523	0.97413
3558.44832	0.97433
3556.39142	0.97387
3554.33451	0.97250
3552.27760	0.97092
3550.22070	0.96996
3548.16379	0.96978
3546.10688	0.97026
3544.04998	0.97069
3541.99307	0.97037
3539.93616	0.96988
3537.87926	0.96945
3535.82235	0.96882
3533.76544	0.96817
3531.70854	0.96754
3529.65163	0.96677
3527.59473	0.96610
3525.53782	0.96593
3523.48091	0.96583
3521.42401	0.96543
3519.36710	0.96458
3517.31019	0.96329
3515.25329	0.96266
3513.19638	0.96297
3511.13947	0.96315
3509.08257	0.96301
3507.02566	0.96275
3504.96875	0.96237
3502.91185	0.96217
3500.85494	0.96177
3498.79803	0.96080
3496.74113	0.96019
3494.68422	0.96057
3492.62731	0.96101
3490.57041	0.96063
3488.51350	0.96009
3486.45659	0.95980
3484.39969	0.95953
3482.34278	0.95930
3480.28587	0.95897
3478.22897	0.95846
3476.17206	0.95808
3474.11515	0.95792
3472.05825	0.95767
3470.00134	0.95756
3467.94444	0.95779
3465.88753	0.95821
3463.83062	0.95855
3461.77372	0.95858
3459.71681	0.95846
3457.65990	0.95853
3455.60300	0.95884
3453.54609	0.95869
3451.48918	0.95783
3449.43228	0.95725
3447.37537	0.95777
3445.31846	0.95874
3443.26156	0.95909
3441.20465	0.95906
3439.14774	0.95955
3437.09084	0.96027
3435.03393	0.96044
3432.97702	0.96018
3430.92012	0.95978
3428.86321	0.95980
3426.80630	0.96044
3424.74940	0.96121
3422.69249	0.96160
3420.63558	0.96129
3418.57868	0.96073
3416.52177	0.96050
3414.46487	0.96043
3412.40796	0.96022
3410.35105	0.96039
3408.29415	0.96142
3406.23724	0.96242
3404.18033	0.96257
3402.12343	0.96241
3400.06652	0.96261
3398.00961	0.96305
3395.95271	0.96343
3393.89580	0.96333
3391.83889	0.96284
3389.78199	0.96284
3387.72508	0.96358
3385.66817	0.96419
3383.61127	0.96403
3381.55436	0.96366
3379.49745	0.96347
3377.44055	0.96329
3375.38364	0.96314
3373.32673	0.96371
3371.26983	0.96498
3369.21292	0.96566
3367.15601	0.96573
3365.09911	0.96582
3363.04220	0.96590
3360.98530	0.96617
3358.92839	0.96637
3356.87148	0.96598
3354.81458	0.96563
3352.75767	0.96597
3350.70076	0.96655
3348.64386	0.96685
3346.58695	0.96665
3344.53004	0.96611
3342.47314	0.96586
3340.41623	0.96650
3338.35932	0.96775
3336.30242	0.96855
3334.24551	0.96847
3332.18860	0.96822
3330.13170	0.96820
3328.07479	0.96833
3326.01788	0.96872
3323.96098	0.96891
3321.90407	0.96868
3319.84716	0.96866
3317.79026	0.96898
3315.73335	0.96927
3313.67644	0.96947
3311.61954	0.96958
3309.56263	0.96964
3307.50572	0.97017
3305.44882	0.97086
3303.39191	0.97099
3301.33501	0.97114
3299.27810	0.97186
3297.22119	0.97256
3295.16429	0.97272
3293.10738	0.97231
3291.05047	0.97168
3288.99357	0.97160
3286.93666	0.97197
3284.87975	0.97201
3282.82285	0.97177
3280.76594	0.97192
3278.70903	0.97260
3276.65213	0.97326
3274.59522	0.97320
3272.53831	0.97282
3270.48141	0.97290
3268.42450	0.97297
3266.36759	0.97277
3264.31069	0.97293
3262.25378	0.97353
3260.19687	0.97428
3258.13997	0.97497
3256.08306	0.97523
3254.02615	0.97506
3251.96925	0.97495
3249.91234	0.97506
3247.85544	0.97482
3245.79853	0.97426
3243.74162	0.97436
3241.68472	0.97500
3239.62781	0.97545
3237.57090	0.97575
3235.51400	0.97587
3233.45709	0.97568
3231.40018	0.97564
3229.34328	0.97594
3227.28637	0.97622
3225.22946	0.97660
3223.17256	0.97706
3221.11565	0.97726
3219.05874	0.97723
3217.00184	0.97721
3214.94493	0.97743
3212.88802	0.97769
3210.83112	0.97739
3208.77421	0.97676
3206.71730	0.97652
3204.66040	0.97696
3202.60349	0.97768
3200.54658	0.97809
3198.48968	0.97838
3196.43277	0.97867
3194.37586	0.97874
3192.31896	0.97886
3190.26205	0.97884
3188.20515	0.97841
3186.14824	0.97818
3184.09133	0.97839
3182.03443	0.97846
3179.97752	0.97828
3177.92061	0.97833
3175.86371	0.97877
3173.80680	0.97944
3171.74989	0.97977
3169.69299	0.97944
3167.63608	0.97900
3165.57917	0.97875
3163.52227	0.97875
3161.46536	0.97911
3159.40845	0.97951
3157.35155	0.97955
3155.29464	0.97900
3153.23773	0.97839
3151.18083	0.97860
3149.12392	0.97926
3147.06701	0.97964
3145.01011	0.97994
3142.95320	0.98017
3140.89629	0.98007
3138.83939	0.98007
3136.78248	0.98018
3134.72558	0.98017
3132.66867	0.98047
3130.61176	0.98080
3128.55486	0.98092
3126.49795	0.98129
3124.44104	0.98178
3122.38414	0.98198
3120.32723	0.98181
3118.27032	0.98150
3116.21342	0.98136
3114.15651	0.98136
3112.09960	0.98142
3110.04270	0.98146
3107.98579	0.98109
3105.92888	0.98067
3103.87198	0.98103
3101.81507	0.98159
3099.75816	0.98153
3097.70126	0.98106
3095.64435	0.98052
3093.58744	0.98026
3091.53054	0.98063
3089.47363	0.98138
3087.41672	0.98178
3085.35982	0.98152
3083.30291	0.98113
3081.24600	0.98107
3079.18910	0.98135
3077.13219	0.98174
3075.07529	0.98162
3073.01838	0.98102
3070.96147	0.98088
3068.90457	0.98138
3066.84766	0.98185
3064.79075	0.98186
3062.73385	0.98159
3060.67694	0.98169
3058.62003	0.98210
3056.56313	0.98227
3054.50622	0.98219
3052.44931	0.98208
3050.39241	0.98181
3048.33550	0.98152
3046.27859	0.98160
3044.22169	0.98180
3042.16478	0.98184
3040.10787	0.98186
3038.05097	0.98208
3035.99406	0.98216
3033.93715	0.98194
3031.88025	0.98175
3029.82334	0.98158
3027.76643	0.98149
3025.70953	0.98162
3023.65262	0.98168
3021.59572	0.98158
3019.53881	0.98138
3017.48190	0.98104
3015.42500	0.98085
3013.36809	0.98100
3011.31118	0.98116
3009.25428	0.98121
3007.19737	0.98120
3005.14046	0.98087
3003.08356	0.98060
3001.02665	0.98089
2998.96974	0.98138
2996.91284	0.98124
2994.85593	0.98038
2992.79902	0.97990
2990.74212	0.98017
2988.68521	0.98046
2986.62830	0.98031
2984.57140	0.97989
2982.51449	0.97943
2980.45758	0.97889
2978.40068	0.97846
2976.34377	0.97841
2974.28686	0.97828
2972.22996	0.97791
2970.17305	0.97782
2968.11614	0.97779
2966.05924	0.97731
2964.00233	0.97662
2961.94543	0.97613
2959.88852	0.97588
2957.83161	0.97571
2955.77471	0.97558
2953.71780	0.97568
2951.66089	0.97586
2949.60399	0.97534
2947.54708	0.97430
2945.49017	0.97393
2943.43327	0.97414
2941.37636	0.97394
2939.31945	0.97356
2937.26255	0.97393
2935.20564	0.97465
2933.14873	0.97466
2931.09183	0.97443
2929.03492	0.97450
2926.97801	0.97432
2924.92111	0.97414
2922.86420	0.97434
2920.80729	0.97449
2918.75039	0.97442
2916.69348	0.97423
2914.63657	0.97396
2912.57967	0.97376
2910.52276	0.97370
2908.46586	0.97364
2906.40895	0.97350
2904.35204	0.97329
2902.29514	0.97308
2900.23823	0.97280
2898.18132	0.97258
2896.12442	0.97254
2894.06751	0.97249
2892.01060	0.97232
2889.95370	0.97197
2887.89679	0.97190
2885.83988	0.97232
2883.78298	0.97256
2881.72607	0.97253
2879.66916	0.97259
2877.61226	0.97264
2875.55535	0.97274
2873.49844	0.97308
2871.44154	0.97329
2869.38463	0.97310
2867.32772	0.97316
2865.27082	0.97397
2863.21391	0.97492
2861.15700	0.97535
2859.10010	0.97574
2857.04319	0.97641
2854.98628	0.97690
2852.92938	0.97717
2850.87247	0.97747
2848.81557	0.97788
2846.75866	0.97834
2844.70175	0.97853
2842.64485	0.97847
2840.58794	0.97870
2838.53103	0.97923
2836.47413	0.97956
2834.41722	0.97969
2832.36031	0.97990
2830.30341	0.98021
2828.24650	0.98060
2826.18959	0.98075
2824.13269	0.98046
2822.07578	0.98002
2820.01887	0.97978
2817.96197	0.97993
2815.90506	0.98036
2813.84815	0.98061
2811.79125	0.98071
2809.73434	0.98076
2807.67743	0.98055
2805.62053	0.98038
2803.56362	0.98058
2801.50671	0.98102
2799.44981	0.98124
2797.39290	0.98087
2795.33600	0.98061
2793.27909	0.98098
2791.22218	0.98148
2789.16528	0.98177
2787.10837	0.98176
2785.05146	0.98139
2782.99456	0.98111
2780.93765	0.98117
2778.88074	0.98114
2776.82384	0.98090
2774.76693	0.98104
2772.71002	0.98143
2770.65312	0.98145
2768.59621	0.98132
2766.53930	0.98158
2764.48240	0.98205
2762.42549	0.98232
2760.36858	0.98235
2758.31168	0.98211
2756.25477	0.98192
2754.19786	0.98203
2752.14096	0.98202
2750.08405	0.98177
2748.02714	0.98165
2745.97024	0.98165
2743.91333	0.98164
2741.85642	0.98166
2739.79952	0.98181
2737.74261	0.98198
2735.68571	0.98212
2733.62880	0.98244
2731.57189	0.98271
2729.51499	0.98264
2727.45808	0.98239
2725.40117	0.98229
2723.34427	0.98230
2721.28736	0.98206
2719.23045	0.98203
2717.17355	0.98248
2715.11664	0.98293
2713.05973	0.98316
2711.00283	0.98305
2708.94592	0.98283
2706.88901	0.98279
2704.83211	0.98264
2702.77520	0.98245
2700.71829	0.98259
2698.66139	0.98267
2696.60448	0.98279
2694.54757	0.98337
2692.49067	0.98376
2690.43376	0.98346
2688.37685	0.98300
2686.31995	0.98275
2684.26304	0.98267
2682.20614	0.98265
2680.14923	0.98253
2678.09232	0.98259
2676.03542	0.98300
2673.97851	0.98335
2671.92160	0.98334
2669.86470	0.98294
2667.80779	0.98264
2665.75088	0.98280
2663.69398	0.98301
2661.63707	0.98293
2659.58016	0.98263
2657.52326	0.98257
2655.46635	0.98285
2653.40944	0.98297
2651.35254	0.98307
2649.29563	0.98347
2647.23872	0.98381
2645.18182	0.98390
2643.12491	0.98378
2641.06800	0.98337
2639.01110	0.98313
2636.95419	0.98342
2634.89728	0.98377
2632.84038	0.98367
2630.78347	0.98338
2628.72656	0.98348
2626.66966	0.98377
2624.61275	0.98387
2622.55585	0.98389
2620.49894	0.98388
2618.44203	0.98391
2616.38513	0.98397
2614.32822	0.98398
2612.27131	0.98395
2610.21441	0.98386
2608.15750	0.98361
2606.10059	0.98350
2604.04369	0.98363
2601.98678	0.98370
2599.92987	0.98369
2597.87297	0.98358
2595.81606	0.98380
2593.75915	0.98438
2591.70225	0.98451
2589.64534	0.98448
2587.58843	0.98475
2585.53153	0.98487
2583.47462	0.98469
2581.41771	0.98426
2579.36081	0.98426
2577.30390	0.98505
2575.24699	0.98504
2573.19009	0.98382
2571.13318	0.98328
2569.07628	0.98391
2567.01937	0.98481
2564.96246	0.98531
2562.90556	0.98498
2560.84865	0.98480
2558.79174	0.98528
2556.73484	0.98525
2554.67793	0.98467
2552.62102	0.98453
2550.56412	0.98486
2548.50721	0.98509
2546.45030	0.98513
2544.39340	0.98522
2542.33649	0.98529
2540.27958	0.98513
2538.22268	0.98470
2536.16577	0.98492
2534.10886	0.98590
2532.05196	0.98589
2529.99505	0.98509
2527.93814	0.98490
2525.88124	0.98493
2523.82433	0.98469
2521.76742	0.98426
2519.71052	0.98382
2517.65361	0.98384
2515.59670	0.98441
2513.53980	0.98525
2511.48289	0.98603
2509.42599	0.98630
2507.36908	0.98637
2505.31217	0.98629
2503.25527	0.98619
2501.19836	0.98652
2499.14145	0.98687
2497.08455	0.98677
2495.02764	0.98618
2492.97073	0.98557
2490.91383	0.98537
2488.85692	0.98572
2486.80001	0.98604
2484.74311	0.98550
2482.68620	0.98477
2480.62929	0.98478
2478.57239	0.98498
2476.51548	0.98491
2474.45857	0.98509
2472.40167	0.98556
2470.34476	0.98593
2468.28785	0.98570
2466.23095	0.98502
2464.17404	0.98449
2462.11713	0.98426
2460.06023	0.98427
2458.00332	0.98421
2455.94642	0.98414
2453.88951	0.98449
2451.83260	0.98508
2449.77570	0.98531
2447.71879	0.98518
2445.66188	0.98511
2443.60498	0.98545
2441.54807	0.98606
2439.49116	0.98593
2437.43426	0.98515
2435.37735	0.98477
2433.32044	0.98461
2431.26354	0.98439
2429.20663	0.98458
2427.14972	0.98498
2425.09282	0.98530
2423.03591	0.98543
2420.97900	0.98530
2418.92210	0.98536
2416.86519	0.98591
2414.80828	0.98625
2412.75138	0.98583
2410.69447	0.98547
2408.63756	0.98553
2406.58066	0.98552
2404.52375	0.98565
2402.46684	0.98594
2400.40994	0.98553
2398.35303	0.98447
2396.29613	0.98432
2394.23922	0.98535
2392.18231	0.98579
2390.12541	0.98514
2388.06850	0.98478
2386.01159	0.98542
2383.95469	0.98630
2381.89778	0.98670
2379.84087	0.98697
2377.78397	0.98727
2375.72706	0.98732
2373.67015	0.98754
2371.61325	0.98850
2369.55634	0.99056
2367.49943	0.99226
2365.44253	0.99041
2363.38562	0.98882
2361.32871	0.98957
2359.27181	0.98603
2357.21490	0.98216
2355.15799	0.98348
2353.10109	0.98750
2351.04418	0.99004
2348.98727	0.98951
2346.93037	0.98738
2344.87346	0.98672
2342.81656	0.98966
2340.75965	0.99157
2338.70274	0.98989
2336.64584	0.98634
2334.58893	0.98426
2332.53202	0.98496
2330.47512	0.98587
2328.41821	0.98616
2326.36130	0.98651
2324.30440	0.98674
2322.24749	0.98675
2320.19058	0.98666
2318.13368	0.98619
2316.07677	0.98525
2314.01986	0.98486
2311.96296	0.98586
2309.90605	0.98708
2307.84914	0.98743
2305.79224	0.98713
2303.73533	0.98658
2301.67842	0.98648
2299.62152	0.98640
2297.56461	0.98586
2295.50770	0.98598
2293.45080	0.98653
2291.39389	0.98621
2289.33698	0.98534
2287.28008	0.98495
2285.22317	0.98522
2283.16627	0.98571
2281.10936	0.98576
2279.05245	0.98497
2276.99555	0.98418
2274.93864	0.98475
2272.88173	0.98593
2270.82483	0.98655
2268.76792	0.98696
2266.71101	0.98738
2264.65411	0.98782
2262.59720	0.98806
2260.54029	0.98806
2258.48339	0.98847
2256.42648	0.98836
2254.36957	0.98722
2252.31267	0.98694
2250.25576	0.98787
2248.19885	0.98906
2246.14195	0.98951
2244.08504	0.98863
2242.02813	0.98728
2239.97123	0.98647
2237.91432	0.98639
2235.85741	0.98627
2233.80051	0.98609
2231.74360	0.98682
2229.68670	0.98821
2227.62979	0.98879
2225.57288	0.98795
2223.51598	0.98696
2221.45907	0.98730
2219.40216	0.98860
2217.34526	0.98906
2215.28835	0.98872
2213.23144	0.98807
2211.17454	0.98738
2209.11763	0.98871
2207.06072	0.99064
2205.00382	0.98937
2202.94691	0.98623
2200.89000	0.98507
2198.83310	0.98636
2196.77619	0.98761
2194.71928	0.98718
2192.66238	0.98702
2190.60547	0.98937
2188.54856	0.99087
2186.49166	0.98830
2184.43475	0.98530
2182.37784	0.98572
2180.32094	0.98785
2178.26403	0.98832
2176.20712	0.98679
2174.15022	0.98479
2172.09331	0.98353
2170.03641	0.98310
2167.97950	0.98265
2165.92259	0.98248
2163.86569	0.98458
2161.80878	0.98798
2159.75187	0.98795
2157.69497	0.98552
2155.63806	0.98606
2153.58115	0.98835
2151.52425	0.98971
2149.46734	0.99016
2147.41043	0.99009
2145.35353	0.98997
2143.29662	0.99017
2141.23971	0.98991
2139.18281	0.98824
2137.12590	0.98692
2135.06899	0.98781
2133.01209	0.98877
2130.95518	0.98804
2128.89827	0.98680
2126.84137	0.98594
2124.78446	0.98559
2122.72755	0.98551
2120.67065	0.98533
2118.61374	0.98537
2116.55684	0.98605
2114.49993	0.98718
2112.44302	0.98784
2110.38612	0.98766
2108.32921	0.98710
2106.27230	0.98632
2104.21540	0.98596
2102.15849	0.98629
2100.10158	0.98644
2098.04468	0.98687
2095.98777	0.98750
2093.93086	0.98690
2091.87396	0.98666
2089.81705	0.98805
2087.76014	0.98864
2085.70324	0.98766
2083.64633	0.98674
2081.58942	0.98639
2079.53252	0.98662
2077.47561	0.98765
2075.41870	0.98865
2073.36180	0.98809
2071.30489	0.98690
2069.24798	0.98710
2067.19108	0.98802
2065.13417	0.98904
2063.07726	0.98987
2061.02036	0.98874
2058.96345	0.98613
2056.90655	0.98528
2054.84964	0.98752
2052.79273	0.98930
2050.73583	0.98802
2048.67892	0.98718
2046.62201	0.98840
2044.56511	0.98849
2042.50820	0.98811
2040.45129	0.98889
2038.39439	0.98867
2036.33748	0.98803
2034.28057	0.98985
2032.22367	0.99191
2030.16676	0.99144
2028.10985	0.99037
2026.05295	0.99085
2023.99604	0.99325
2021.93913	0.99484
2019.88223	0.99361
2017.82532	0.99218
2015.76841	0.99201
2013.71151	0.99063
2011.65460	0.98799
2009.59769	0.98878
2007.54079	0.99249
2005.48388	0.99371
2003.42698	0.99228
2001.37007	0.99046
1999.31316	0.99008
1997.25626	0.99168
1995.19935	0.99265
1993.14244	0.99113
1991.08554	0.98829
1989.02863	0.98626
1986.97172	0.98628
1984.91482	0.98718
1982.85791	0.98701
1980.80100	0.98691
1978.74410	0.98854
1976.68719	0.98976
1974.63028	0.98987
1972.57338	0.99092
1970.51647	0.99194
1968.45956	0.99188
1966.40266	0.99125
1964.34575	0.99101
1962.28884	0.99161
1960.23194	0.99188
1958.17503	0.99131
1956.11812	0.98985
1954.06122	0.98768
1952.00431	0.98638
1949.94740	0.98668
1947.89050	0.98737
1945.83359	0.98743
1943.77669	0.98780
1941.71978	0.98893
1939.66287	0.98923
1937.60597	0.98884
1935.54906	0.98905
1933.49215	0.98999
1931.43525	0.99077
1929.37834	0.99032
1927.32143	0.98911
1925.26453	0.98823
1923.20762	0.98809
1921.15071	0.98881
1919.09381	0.98976
1917.03690	0.99007
1914.97999	0.98945
1912.92309	0.98835
1910.86618	0.98799
1908.80927	0.98883
1906.75237	0.98969
1904.69546	0.98969
1902.63855	0.98939
1900.58165	0.98937
1898.52474	0.98931
1896.46783	0.98935
1894.41093	0.98955
1892.35402	0.98916
1890.29712	0.98866
1888.24021	0.98856
1886.18330	0.98884
1884.12640	0.98990
1882.06949	0.99101
1880.01258	0.99086
1877.95568	0.98974
1875.89877	0.98907
1873.84186	0.98940
1871.78496	0.98990
1869.72805	0.98981
1867.67114	0.98948
1865.61424	0.98949
1863.55733	0.98944
1861.50042	0.98916
1859.44352	0.98917
1857.38661	0.98986
1855.32970	0.99034
1853.27280	0.99016
1851.21589	0.99010
1849.15898	0.99022
1847.10208	0.98978
1845.04517	0.98880
1842.98826	0.98846
1840.93136	0.98881
1838.87445	0.98872
1836.81754	0.98836
1834.76064	0.98860
1832.70373	0.98897
1830.64683	0.98871
1828.58992	0.98836
1826.53301	0.98850
1824.47611	0.98867
1822.41920	0.98876
1820.36229	0.98863
1818.30539	0.98842
1816.24848	0.98872
1814.19157	0.98898
1812.13467	0.98871
1810.07776	0.98810
1808.02085	0.98741
1805.96395	0.98689
1803.90704	0.98697
1801.85013	0.98734
1799.79323	0.98734
1797.73632	0.98691
1795.67941	0.98640
1793.62251	0.98587
1791.56560	0.98521
1789.50869	0.98491
1787.45179	0.98473
1785.39488	0.98437
1783.33797	0.98404
1781.28107	0.98340
1779.22416	0.98193
1777.16726	0.98009
1775.11035	0.97795
1773.05344	0.97501
1770.99654	0.97137
1768.93963	0.96715
1766.88272	0.96160
1764.82582	0.95501
1762.76891	0.94651
1760.71200	0.93554
1758.65510	0.92477
1756.59819	0.91391
1754.54128	0.90437
1752.48438	0.89626
1750.42747	0.88689
1748.37056	0.87817
1746.31366	0.87244
1744.25675	0.86788
1742.19984	0.86357
1740.14294	0.86014
1738.08603	0.85849
1736.02912	0.85798
1733.97222	0.85662
1731.91531	0.85636
1729.85840	0.85885
1727.80150	0.86243
1725.74459	0.86635
1723.68768	0.87099
1721.63078	0.87622
1719.57387	0.88209
1717.51697	0.89008
1715.46006	0.89949
1713.40315	0.90781
1711.34625	0.91538
1709.28934	0.92276
1707.23243	0.92992
1705.17553	0.93654
1703.11862	0.94184
1701.06171	0.94667
1699.00481	0.95162
1696.94790	0.95565
1694.89099	0.95939
1692.83409	0.96216
1690.77718	0.96416
1688.72027	0.96591
1686.66337	0.96717
1684.60646	0.96809
1682.54955	0.96912
1680.49265	0.97047
1678.43574	0.97167
1676.37883	0.97204
1674.32193	0.97177
1672.26502	0.97193
1670.20811	0.97271
1668.15121	0.97359
1666.09430	0.97382
1664.03740	0.97355
1661.98049	0.97322
1659.92358	0.97315
1657.86668	0.97350
1655.80977	0.97394
1653.75286	0.97347
1651.69596	0.97241
1649.63905	0.97236
1647.58214	0.97233
1645.52524	0.97203
1643.46833	0.97216
1641.41142	0.97246
1639.35452	0.97266
1637.29761	0.97273
1635.24070	0.97264
1633.18380	0.97309
1631.12689	0.97396
1629.06998	0.97474
1627.01308	0.97531
1624.95617	0.97570
1622.89926	0.97606
1620.84236	0.97658
1618.78545	0.97719
1616.72854	0.97765
1614.67164	0.97783
1612.61473	0.97818
1610.55782	0.97890
1608.50092	0.97967
1606.44401	0.97996
1604.38711	0.97983
1602.33020	0.97989
1600.27329	0.98039
1598.21639	0.98098
1596.15948	0.98130
1594.10257	0.98131
1592.04567	0.98135
1589.98876	0.98173
1587.93185	0.98226
1585.87495	0.98251
1583.81804	0.98228
1581.76113	0.98216
1579.70423	0.98257
1577.64732	0.98299
1575.59041	0.98297
1573.53351	0.98292
1571.47660	0.98288
1569.41969	0.98262
1567.36279	0.98249
1565.30588	0.98273
1563.24897	0.98312
1561.19207	0.98363
1559.13516	0.98417
1557.07825	0.98410
1555.02135	0.98384
1552.96444	0.98365
1550.90754	0.98339
1548.85063	0.98298
1546.79372	0.98281
1544.73682	0.98300
1542.67991	0.98315
1540.62300	0.98298
1538.56610	0.98289
1536.50919	0.98339
1534.45228	0.98403
1532.39538	0.98433
1530.33847	0.98422
1528.28156	0.98394
1526.22466	0.98389
1524.16775	0.98416
1522.11084	0.98409
1520.05394	0.98378
1517.99703	0.98380
1515.94012	0.98386
1513.88322	0.98396
1511.82631	0.98429
1509.76940	0.98474
1507.71250	0.98498
1505.65559	0.98448
1503.59868	0.98392
1501.54178	0.98369
1499.48487	0.98361
1497.42796	0.98389
1495.37106	0.98424
1493.31415	0.98415
1491.25725	0.98385
1489.20034	0.98379
1487.14343	0.98387
1485.08653	0.98348
1483.02962	0.98285
1480.97271	0.98224
1478.91581	0.98174
1476.85890	0.98125
1474.80199	0.98040
1472.74509	0.97892
1470.68818	0.97734
1468.63127	0.97618
1466.57437	0.97526
1464.51746	0.97440
1462.46055	0.97346
1460.40365	0.97231
1458.34674	0.97048
1456.28983	0.96844
1454.23293	0.96769
1452.17602	0.96726
1450.11911	0.96642
1448.06221	0.96513
1446.00530	0.96367
1443.94839	0.96230
1441.89149	0.96092
1439.83458	0.95971
1437.77768	0.95852
1435.72077	0.95714
1433.66386	0.95625
1431.60696	0.95597
1429.55005	0.95628
1427.49314	0.95687
1425.43624	0.95743
1423.37933	0.95797
1421.32242	0.95832
1419.26552	0.95861
1417.20861	0.95896
1415.15170	0.95926
1413.09480	0.95956
1411.03789	0.95987
1408.98098	0.96023
1406.92408	0.96073
1404.86717	0.96102
1402.81026	0.96097
1400.75336	0.96069
1398.69645	0.95987
1396.63954	0.95842
1394.58264	0.95622
1392.52573	0.95332
1390.46882	0.95010
1388.41192	0.94605
1386.35501	0.94049
1384.29810	0.93434
1382.24120	0.92835
1380.18429	0.92232
1378.12739	0.91635
1376.07048	0.91090
1374.01357	0.90621
1371.95667	0.90322
1369.89976	0.90263
1367.84285	0.90423
1365.78595	0.90779
1363.72904	0.91345
1361.67213	0.92152
1359.61523	0.93030
1357.55832	0.93807
1355.50141	0.94431
1353.44451	0.94908
1351.38760	0.95269
1349.33069	0.95534
1347.27379	0.95732
1345.21688	0.95878
1343.15997	0.95963
1341.10307	0.96013
1339.04616	0.96053
1336.98925	0.96074
1334.93235	0.96056
1332.87544	0.96022
1330.81853	0.96018
1328.76163	0.96028
1326.70472	0.96001
1324.64782	0.95934
1322.59091	0.95876
1320.53400	0.95864
1318.47710	0.95869
1316.42019	0.95852
1314.36328	0.95802
1312.30638	0.95757
1310.24947	0.95765
1308.19256	0.95793
1306.13566	0.95800
1304.07875	0.95802
1302.02184	0.95802
1299.96494	0.95762
1297.90803	0.95676
1295.85112	0.95579
1293.79422	0.95459
1291.73731	0.95305
1289.68040	0.95125
1287.62350	0.94902
1285.56659	0.94631
1283.50968	0.94347
1281.45278	0.94056
1279.39587	0.93716
1277.33896	0.93295
1275.28206	0.92806
1273.22515	0.92301
1271.16824	0.91798
1269.11134	0.91262
1267.05443	0.90667
1264.99753	0.90020
1262.94062	0.89352
1260.88371	0.88644
1258.82681	0.87878
1256.76990	0.87086
1254.71299	0.86295
1252.65609	0.85526
1250.59918	0.84774
1248.54227	0.84012
1246.48537	0.83241
1244.42846	0.82477
1242.37155	0.81732
1240.31465	0.81020
1238.25774	0.80349
1236.20083	0.79749
1234.14393	0.79226
1232.08702	0.78747
1230.03011	0.78355
1227.97321	0.78156
1225.91630	0.78210
1223.85939	0.78501
1221.80249	0.79007
1219.74558	0.79749
1217.68867	0.80734
1215.63177	0.81922
1213.57486	0.83256
1211.51796	0.84647
1209.46105	0.86006
1207.40414	0.87288
1205.34724	0.88475
1203.29033	0.89574
1201.23342	0.90585
1199.17652	0.91465
1197.11961	0.92209
1195.06270	0.92842
1193.00580	0.93358
1190.94889	0.93758
1188.89198	0.94037
1186.83508	0.94172
1184.77817	0.94176
1182.72126	0.94085
1180.66436	0.93918
1178.60745	0.93686
1176.55054	0.93400
1174.49364	0.93081
1172.43673	0.92732
1170.37982	0.92373
1168.32292	0.92038
1166.26601	0.91734
1164.20910	0.91461
1162.15220	0.91252
1160.09529	0.91157
1158.03839	0.91205
1155.98148	0.91355
1153.92457	0.91567
1151.86767	0.91826
1149.81076	0.92078
1147.75385	0.92279
1145.69695	0.92411
1143.64004	0.92429
1141.58313	0.92344
1139.52623	0.92233
1137.46932	0.92097
1135.41241	0.91871
1133.35551	0.91567
1131.29860	0.91227
1129.24169	0.90876
1127.18479	0.90569
1125.12788	0.90305
1123.07097	0.90056
1121.01407	0.89847
1118.95716	0.89672
1116.90025	0.89518
1114.84335	0.89378
1112.78644	0.89243
1110.72953	0.89115
1108.67263	0.88980
1106.61572	0.88795
1104.55881	0.88560
1102.50191	0.88323
1100.44500	0.88096
1098.38810	0.87848
1096.33119	0.87532
1094.27428	0.87118
1092.21738	0.86647
1090.16047	0.86170
1088.10356	0.85645
1086.04666	0.85022
1083.98975	0.84306
1081.93284	0.83570
1079.87594	0.82897
1077.81903	0.82290
1075.76212	0.81725
1073.70522	0.81187
1071.64831	0.80684
1069.59140	0.80242
1067.53450	0.79851
1065.47759	0.79477
1063.42068	0.79068
1061.36378	0.78615
1059.30687	0.78195
1057.24996	0.77792
1055.19306	0.77338
1053.13615	0.76872
1051.07924	0.76448
1049.02234	0.76049
1046.96543	0.75651
1044.90853	0.75264
1042.85162	0.74900
1040.79471	0.74549
1038.73781	0.74212
1036.68090	0.73906
1034.62399	0.73658
1032.56709	0.73552
1030.51018	0.73639
1028.45327	0.73873
1026.39637	0.74267
1024.33946	0.74865
1022.28255	0.75613
1020.22565	0.76415
1018.16874	0.77216
1016.11183	0.78013
1014.05493	0.78843
1011.99802	0.79716
1009.94111	0.80539
1007.88421	0.81265
1005.82730	0.81950
1003.77039	0.82612
1001.71349	0.83242
999.65658	0.83848
997.59967	0.84417
995.54277	0.84935
993.48586	0.85436
991.42895	0.85947
989.37205	0.86421
987.31514	0.86833
985.25824	0.87221
983.20133	0.87641
981.14442	0.88076
979.08752	0.88459
977.03061	0.88827
974.97370	0.89265
972.91680	0.89731
970.85989	0.90159
968.80298	0.90569
966.74608	0.90961
964.68917	0.91339
962.63226	0.91721
960.57536	0.92052
958.51845	0.92263
956.46154	0.92408
954.40464	0.92563
952.34773	0.92753
950.29082	0.92946
948.23392	0.93050
946.17701	0.93085
944.12010	0.93162
942.06320	0.93274
940.00629	0.93355
937.94938	0.93401
935.89248	0.93435
933.83557	0.93443
931.77867	0.93418
929.72176	0.93418
927.66485	0.93439
925.60795	0.93414
923.55104	0.93357
921.49413	0.93258
919.43723	0.93122
917.38032	0.93019
915.32341	0.92925
913.26651	0.92778
911.20960	0.92617
909.15269	0.92500
907.09579	0.92395
905.03888	0.92281
902.98197	0.92254
900.92507	0.92371
898.86816	0.92563
896.81125	0.92746
894.75435	0.92899
892.69744	0.93032
890.64053	0.93153
888.58363	0.93298
886.52672	0.93487
884.46981	0.93703
882.41291	0.93911
880.35600	0.94109
878.29909	0.94355
876.24219	0.94692
874.18528	0.95022
872.12838	0.95216
870.07147	0.95354
868.01456	0.95493
865.95766	0.95587
863.90075	0.95685
861.84384	0.95802
859.78694	0.95864
857.73003	0.95914
855.67312	0.96004
853.61622	0.96014
851.55931	0.95920
849.50240	0.95861
847.44550	0.95875
845.38859	0.95871
843.33168	0.95826
841.27478	0.95820
839.21787	0.95872
837.16096	0.95933
835.10406	0.95990
833.04715	0.96057
830.99024	0.96111
828.93334	0.96194
826.87643	0.96314
824.81952	0.96381
822.76262	0.96393
820.70571	0.96409
818.64881	0.96439
816.59190	0.96480
814.53499	0.96537
812.47809	0.96584
810.42118	0.96578
808.36427	0.96552
806.30737	0.96546
804.25046	0.96562
802.19355	0.96646
800.13665	0.96727
798.07974	0.96701
796.02283	0.96638
793.96593	0.96628
791.90902	0.96722
789.85211	0.96825
787.79521	0.96803
785.73830	0.96711
783.68139	0.96665
781.62449	0.96692
779.56758	0.96762
777.51067	0.96817
775.45377	0.96814
773.39686	0.96791
771.33995	0.96812
769.28305	0.96873
767.22614	0.96861
765.16923	0.96773
763.11233	0.96768
761.05542	0.96835
758.99852	0.96864
756.94161	0.96867
754.88470	0.96858
752.82780	0.96823
750.77089	0.96784
748.71398	0.96768
746.65708	0.96737
744.60017	0.96647
742.54326	0.96592
740.48636	0.96630
738.42945	0.96634
736.37254	0.96569
734.31564	0.96534
732.25873	0.96497
730.20182	0.96403
728.14492	0.96321
726.08801	0.96268
724.03110	0.96225
721.97420	0.96194
719.91729	0.96153
717.86038	0.96052
715.80348	0.95896
713.74657	0.95754
711.68966	0.95676
709.63276	0.95699
707.57585	0.95745
705.51895	0.95701
703.46204	0.95645
701.40513	0.95614
699.34823	0.95486
697.29132	0.95290
695.23441	0.95149
693.17751	0.95039
691.12060	0.94938
689.06369	0.94905
687.00679	0.94845
684.94988	0.94689
682.89297	0.94611
680.83607	0.94608
678.77916	0.94511
676.72225	0.94387
674.66535	0.94376
672.60844	0.94468
670.55153	0.94562
668.49463	0.94568
666.43772	0.94448
664.38081	0.94349
662.32391	0.94330
660.26700	0.94329
658.21009	0.94227
656.15319	0.94067
654.09628	0.93913
652.03937	0.93792
649.98247	0.93628
647.92556	0.93415
645.86866	0.93382
643.81175	0.93421
641.75484	0.93288
639.69794	0.93007
637.64103	0.92766
635.58412	0.92698
633.52722	0.92666
631.47031	0.92532
629.41340	0.92322
627.35650	0.92134
625.29959	0.92022
623.24268	0.91946
621.18578	0.91854
619.12887	0.91640
617.07196	0.91350
615.01506	0.91162
612.95815	0.90939
610.90124	0.90487
608.84434	0.89934
606.78743	0.89506
604.73052	0.89267
602.67362	0.89231
600.61671	0.89468
598.55980	0.89907
596.50290	0.90347
594.44599	0.90684
592.38909	0.90963
590.33218	0.91274
588.27527	0.91584
586.21837	0.91721
584.16146	0.91656
582.10455	0.91601
580.04765	0.91546
577.99074	0.91402
575.93383	0.91347
573.87693	0.91428
571.82002	0.91426
569.76311	0.91268
567.70621	0.91141
565.64930	0.91075
563.59239	0.90998
561.53549	0.90914
559.47858	0.90762
557.42167	0.90666
555.36477	0.90785
553.30786	0.90922
551.25095	0.90973
549.19405	0.91040
547.13714	0.91118
545.08023	0.91132
543.02333	0.91087
540.96642	0.91099
538.90951	0.91142
536.85261	0.91146
534.79570	0.91151
532.73880	0.91127
530.68189	0.91093
528.62498	0.91131
526.56808	0.91132
524.51117	0.90907
522.45426	0.90602
520.39736	0.90570
518.34045	0.90803
516.28354	0.90862
514.22664	0.90630
512.16973	0.90421
510.11282	0.90442
508.05592	0.90598
505.99901	0.90586
503.94210	0.90375
501.88520	0.90299
499.82829	0.90364
497.77138	0.90296
495.71448	0.90109
493.65757	0.89868
491.60066	0.89677
489.54376	0.89650
487.48685	0.89685
485.42994	0.89731
483.37304	0.89822
481.31613	0.89916
479.25923	0.89936
477.20232	0.89853
475.14541	0.89927
473.08851	0.90135
471.03160	0.90007
468.97469	0.89706
466.91779	0.89439
464.86088	0.89287
462.80397	0.89363
460.74707	0.89410
458.69016	0.89274
456.63325	0.89050
454.57635	0.88911
452.51944	0.89082
450.46253	0.89421
448.40563	0.89256
446.34872	0.88667
444.29181	0.88536
442.23491	0.89070
440.17800	0.89585
438.12109	0.89385
436.06419	0.88733
434.00728	0.88620
431.95037	0.89239
429.89347	0.89905
427.83656	0.90188
425.77965	0.90034
423.72275	0.89577
421.66584	0.89335
419.60894	0.89572
417.55203	0.89886
415.49512	0.90026
413.43822	0.89901
411.38131	0.89409
409.32440	0.88871
407.26750	0.88610
405.21059	0.88812
403.15368	0.89185
401.09678	0.89266
399.03987	0.88909
