3996.57260	0.98762
3994.51569	0.98749
3992.45878	0.98779
3990.40188	0.98824
3988.34497	0.98807
3986.28806	0.98764
3984.23115	0.98774
3982.17424	0.98795
3980.11733	0.98774
3978.06043	0.98731
3976.00352	0.98695
3973.94661	0.98687
3971.88970	0.98738
3969.83279	0.98809
3967.77589	0.98806
3965.71898	0.98754
3963.66207	0.98737
3961.60516	0.98770
3959.54825	0.98766
3957.49134	0.98686
3955.43444	0.98628
3953.37753	0.98637
3951.32062	0.98685
3949.26371	0.98735
3947.20680	0.98764
3945.14990	0.98785
3943.09299	0.98792
3941.03608	0.98784
3938.97917	0.98781
3936.92226	0.98800
3934.86535	0.98846
3932.80845	0.98839
3930.75154	0.98788
3928.69463	0.98794
3926.63772	0.98809
3924.58081	0.98809
3922.52391	0.98846
3920.46700	0.98865
3918.41009	0.98789
3916.35318	0.98703
3914.29627	0.98688
3912.23936	0.98684
3910.18246	0.98697
3908.12555	0.98761
3906.06864	0.98814
3904.01173	0.98826
3901.95482	0.98809
3899.89792	0.98765
3897.84101	0.98740
3895.78410	0.98751
3893.72719	0.98762
3891.67028	0.98738
3889.61337	0.98725
3887.55647	0.98799
3885.49956	0.98906
3883.44265	0.98891
3881.38574	0.98778
3879.32883	0.98701
3877.27193	0.98684
3875.21502	0.98704
3873.15811	0.98772
3871.10120	0.98862
3869.04429	0.98851
3866.98738	0.98759
3864.93048	0.98749
3862.87357	0.98822
3860.81666	0.98852
3858.75975	0.98811
3856.70284	0.98795
3854.64594	0.98883
3852.58903	0.98969
3850.53212	0.98942
3848.47521	0.98906
3846.41830	0.98886
3844.36139	0.98886
3842.30449	0.98909
3840.24758	0.98922
3838.19067	0.98889
3836.13376	0.98838
3834.07685	0.98789
3832.01995	0.98745
3829.96304	0.98748
3827.90613	0.98795
3825.84922	0.98859
3823.79231	0.98877
3821.73540	0.98826
3819.67850	0.98788
3817.62159	0.98786
3815.56468	0.98766
3813.50777	0.98729
3811.45086	0.98755
3809.39396	0.98869
3807.33705	0.98945
3805.28014	0.98859
3803.22323	0.98728
3801.16632	0.98681
3799.10941	0.98766
3797.05251	0.98841
3794.99560	0.98770
3792.93869	0.98651
3790.88178	0.98622
3788.82487	0.98694
3786.76796	0.98765
3784.71106	0.98770
3782.65415	0.98758
3780.59724	0.98757
3778.54033	0.98734
3776.48342	0.98718
3774.42652	0.98749
3772.36961	0.98768
3770.31270	0.98725
3768.25579	0.98662
3766.19888	0.98636
3764.14197	0.98654
3762.08507	0.98695
3760.02816	0.98750
3757.97125	0.98803
3755.91434	0.98826
3753.85743	0.98829
3751.80053	0.98841
3749.74362	0.98883
3747.68671	0.98925
3745.62980	0.98927
3743.57289	0.98874
3741.51598	0.98839
3739.45908	0.98852
3737.40217	0.98896
3735.34526	0.98931
3733.28835	0.98841
3731.23144	0.98718
3729.17454	0.98711
3727.11763	0.98766
3725.06072	0.98828
3723.00381	0.98868
3720.94690	0.98825
3718.88999	0.98738
3716.83309	0.98707
3714.77618	0.98713
3712.71927	0.98742
3710.66236	0.98829
3708.60545	0.98865
3706.54855	0.98800
3704.49164	0.98752
3702.43473	0.98784
3700.37782	0.98815
3698.32091	0.98808
3696.26400	0.98805
3694.20710	0.98830
3692.15019	0.98865
3690.09328	0.98859
3688.03637	0.98770
3685.97946	0.98682
3683.92256	0.98723
3681.86565	0.98818
3679.80874	0.98874
3677.75183	0.98931
3675.69492	0.98892
3673.63801	0.98760
3671.58111	0.98734
3669.52420	0.98727
3667.46729	0.98692
3665.41038	0.98644
3663.35347	0.98601
3661.29657	0.98618
3659.23966	0.98647
3657.18275	0.98586
3655.12584	0.98494
3653.06893	0.98495
3651.01202	0.98587
3648.95512	0.98721
3646.89821	0.98733
3644.84130	0.98656
3642.78439	0.98578
3640.72748	0.98514
3638.67058	0.98476
3636.61367	0.98453
3634.55676	0.98473
3632.49985	0.98557
3630.44294	0.98668
3628.38603	0.98656
3626.32913	0.98519
3624.27222	0.98482
3622.21531	0.98496
3620.15840	0.98426
3618.10149	0.98279
3616.04459	0.98197
3613.98768	0.98176
3611.93077	0.98152
3609.87386	0.98131
3607.81695	0.98118
3605.76004	0.98127
3603.70314	0.98128
3601.64623	0.98104
3599.58932	0.98133
3597.53241	0.98165
3595.47550	0.98103
3593.41860	0.97999
3591.36169	0.97951
3589.30478	0.97973
3587.24787	0.97962
3585.19096	0.97913
3583.13405	0.97904
3581.07715	0.97896
3579.02024	0.97882
3576.96333	0.97863
3574.90642	0.97835
3572.84951	0.97800
3570.79261	0.97746
3568.73570	0.97686
3566.67879	0.97641
3564.62188	0.97624
3562.56497	0.97597
3560.50806	0.97550
3558.45116	0.97520
3556.39425	0.97515
3554.33734	0.97530
3552.28043	0.97541
3550.22352	0.97518
3548.16662	0.97476
3546.10971	0.97403
3544.05280	0.97332
3541.99589	0.97304
3539.93898	0.97252
3537.88207	0.97149
3535.82517	0.97050
3533.76826	0.97003
3531.71135	0.97008
3529.65444	0.97048
3527.59753	0.97059
3525.54063	0.96997
3523.48372	0.96919
3521.42681	0.96882
3519.36990	0.96855
3517.31299	0.96831
3515.25608	0.96848
3513.19918	0.96855
3511.14227	0.96787
3509.08536	0.96738
3507.02845	0.96729
3504.97154	0.96641
3502.91464	0.96547
3500.85773	0.96550
3498.80082	0.96549
3496.74391	0.96505
3494.68700	0.96505
3492.63009	0.96536
3490.57319	0.96543
3488.51628	0.96531
3486.45937	0.96470
3484.40246	0.96370
3482.34555	0.96322
3480.28865	0.96333
3478.23174	0.96335
3476.17483	0.96322
3474.11792	0.96313
3472.06101	0.96307
3470.00410	0.96294
3467.94720	0.96268
3465.89029	0.96246
3463.83338	0.96241
3461.77647	0.96244
3459.71956	0.96265
3457.66266	0.96345
3455.60575	0.96411
3453.54884	0.96393
3451.49193	0.96335
3449.43502	0.96257
3447.37811	0.96216
3445.32121	0.96246
3443.26430	0.96293
3441.20739	0.96356
3439.15048	0.96432
3437.09357	0.96424
3435.03667	0.96355
3432.97976	0.96332
3430.92285	0.96305
3428.86594	0.96254
3426.80903	0.96285
3424.75212	0.96389
3422.69522	0.96476
3420.63831	0.96494
3418.58140	0.96434
3416.52449	0.96378
3414.46758	0.96359
3412.41068	0.96343
3410.35377	0.96385
3408.29686	0.96467
3406.23995	0.96459
3404.18304	0.96409
3402.12613	0.96408
3400.06923	0.96445
3398.01232	0.96522
3395.95541	0.96582
3393.89850	0.96600
3391.84159	0.96610
3389.78469	0.96605
3387.72778	0.96649
3385.67087	0.96716
3383.61396	0.96685
3381.55705	0.96629
3379.50014	0.96657
3377.44324	0.96732
3375.38633	0.96789
3373.32942	0.96795
3371.27251	0.96773
3369.21560	0.96791
3367.15870	0.96873
3365.10179	0.96934
3363.04488	0.96909
3360.98797	0.96868
3358.93106	0.96883
3356.87415	0.96926
3354.81725	0.96925
3352.76034	0.96906
3350.70343	0.96943
3348.64652	0.97005
3346.58961	0.97052
3344.53271	0.97082
3342.47580	0.97097
3340.41889	0.97077
3338.36198	0.97026
3336.30507	0.96994
3334.24816	0.96983
3332.19126	0.97004
3330.13435	0.97060
3328.07744	0.97064
3326.02053	0.97042
3323.96362	0.97078
3321.90672	0.97119
3319.84981	0.97107
3317.79290	0.97087
3315.73599	0.97109
3313.67908	0.97184
3311.62217	0.97257
3309.56527	0.97306
3307.50836	0.97364
3305.45145	0.97376
3303.39454	0.97316
3301.33763	0.97287
3299.28073	0.97328
3297.22382	0.97360
3295.16691	0.97366
3293.11000	0.97375
3291.05309	0.97376
3288.99618	0.97378
3286.93928	0.97383
3284.88237	0.97377
3282.82546	0.97380
3280.76855	0.97375
3278.71164	0.97343
3276.65474	0.97346
3274.59783	0.97382
3272.54092	0.97398
3270.48401	0.97434
3268.42710	0.97525
3266.37019	0.97584
3264.31329	0.97572
3262.25638	0.97553
3260.19947	0.97529
3258.14256	0.97512
3256.08565	0.97542
3254.02875	0.97566
3251.97184	0.97561
3249.91493	0.97586
3247.85802	0.97613
3245.80111	0.97586
3243.74420	0.97562
3241.68730	0.97569
3239.63039	0.97586
3237.57348	0.97621
3235.51657	0.97659
3233.45966	0.97676
3231.40276	0.97701
3229.34585	0.97743
3227.28894	0.97742
3225.23203	0.97704
3223.17512	0.97708
3221.11821	0.97714
3219.06131	0.97711
3217.00440	0.97752
3214.94749	0.97779
3212.89058	0.97783
3210.83367	0.97823
3208.77677	0.97843
3206.71986	0.97810
3204.66295	0.97799
3202.60604	0.97851
3200.54913	0.97926
3198.49222	0.97951
3196.43532	0.97928
3194.37841	0.97952
3192.32150	0.98032
3190.26459	0.98067
3188.20768	0.98042
3186.15078	0.98037
3184.09387	0.98048
3182.03696	0.98027
3179.98005	0.98003
3177.92314	0.97991
3175.86623	0.97977
3173.80933	0.97989
3171.75242	0.98009
3169.69551	0.98002
3167.63860	0.98007
3165.58169	0.98034
3163.52479	0.98065
3161.46788	0.98083
3159.41097	0.98080
3157.35406	0.98067
3155.29715	0.98030
3153.24024	0.97984
3151.18334	0.97964
3149.12643	0.97980
3147.06952	0.98025
3145.01261	0.98091
3142.95570	0.98140
3140.89880	0.98119
3138.84189	0.98049
3136.78498	0.98028
3134.72807	0.98081
3132.67116	0.98135
3130.61425	0.98146
3128.55735	0.98135
3126.50044	0.98143
3124.44353	0.98179
3122.38662	0.98198
3120.32971	0.98140
3118.27281	0.98074
3116.21590	0.98102
3114.15899	0.98147
3112.10208	0.98160
3110.04517	0.98180
3107.98826	0.98178
3105.93136	0.98156
3103.87445	0.98176
3101.81754	0.98240
3099.76063	0.98275
3097.70372	0.98239
3095.64682	0.98199
3093.58991	0.98204
3091.53300	0.98222
3089.47609	0.98230
3087.41918	0.98238
3085.36227	0.98260
3083.30537	0.98264
3081.24846	0.98216
3079.19155	0.98149
3077.13464	0.98114
3075.07773	0.98123
3073.02083	0.98160
3070.96392	0.98204
3068.90701	0.98230
3066.85010	0.98223
3064.79319	0.98189
3062.73628	0.98163
3060.67938	0.98197
3058.62247	0.98249
3056.56556	0.98223
3054.50865	0.98181
3052.45174	0.98213
3050.39484	0.98258
3048.33793	0.98258
3046.28102	0.98230
3044.22411	0.98214
3042.16720	0.98198
3040.11029	0.98164
3038.05339	0.98151
3035.99648	0.98169
3033.93957	0.98198
3031.88266	0.98209
3029.82575	0.98186
3027.76885	0.98179
3025.71194	0.98195
3023.65503	0.98185
3021.59812	0.98156
3019.54121	0.98127
3017.48430	0.98121
3015.42740	0.98135
3013.37049	0.98133
3011.31358	0.98103
3009.25667	0.98058
3007.19976	0.98034
3005.14286	0.98055
3003.08595	0.98081
3001.02904	0.98078
2998.97213	0.98040
2996.91522	0.97990
2994.85831	0.97999
2992.80141	0.98041
2990.74450	0.98021
2988.68759	0.97973
2986.63068	0.97966
2984.57377	0.97997
2982.51687	0.98033
2980.45996	0.98034
2978.40305	0.97990
2976.34614	0.97935
2974.28923	0.97887
2972.23232	0.97823
2970.17542	0.97776
2968.11851	0.97788
2966.06160	0.97801
2964.00469	0.97761
2961.94778	0.97671
2959.89088	0.97578
2957.83397	0.97548
2955.77706	0.97572
2953.72015	0.97570
2951.66324	0.97508
2949.60633	0.97446
2947.54943	0.97431
2945.49252	0.97437
2943.43561	0.97441
2941.37870	0.97455
2939.32179	0.97469
2937.26489	0.97451
2935.20798	0.97420
2933.15107	0.97421
2931.09416	0.97461
2929.03725	0.97504
2926.98034	0.97505
2924.92344	0.97465
2922.86653	0.97416
2920.80962	0.97404
2918.75271	0.97432
2916.69580	0.97442
2914.63890	0.97425
2912.58199	0.97405
2910.52508	0.97376
2908.46817	0.97350
2906.41126	0.97344
2904.35435	0.97344
2902.29745	0.97332
2900.24054	0.97328
2898.18363	0.97338
2896.12672	0.97323
2894.06981	0.97292
2892.01291	0.97291
2889.95600	0.97317
2887.89909	0.97349
2885.84218	0.97365
2883.78527	0.97367
2881.72836	0.97374
2879.67146	0.97412
2877.61455	0.97458
2875.55764	0.97458
2873.50073	0.97430
2871.44382	0.97416
2869.38692	0.97423
2867.33001	0.97446
2865.27310	0.97493
2863.21619	0.97547
2861.15928	0.97595
2859.10237	0.97651
2857.04547	0.97678
2854.98856	0.97663
2852.93165	0.97667
2850.87474	0.97713
2848.81783	0.97776
2846.76093	0.97824
2844.70402	0.97849
2842.64711	0.97866
2840.59020	0.97890
2838.53329	0.97900
2836.47638	0.97888
2834.41948	0.97906
2832.36257	0.97959
2830.30566	0.98012
2828.24875	0.98037
2826.19184	0.98024
2824.13494	0.98013
2822.07803	0.98028
2820.02112	0.98035
2817.96421	0.98019
2815.90730	0.98007
2813.85039	0.98022
2811.79349	0.98060
2809.73658	0.98086
2807.67967	0.98075
2805.62276	0.98055
2803.56585	0.98071
2801.50895	0.98103
2799.45204	0.98133
2797.39513	0.98163
2795.33822	0.98157
2793.28131	0.98116
2791.22440	0.98087
2789.16750	0.98090
2787.11059	0.98114
2785.05368	0.98128
2782.99677	0.98111
2780.93986	0.98078
2778.88296	0.98062
2776.82605	0.98095
2774.76914	0.98141
2772.71223	0.98145
2770.65532	0.98126
2768.59841	0.98119
2766.54151	0.98127
2764.48460	0.98134
2762.42769	0.98129
2760.37078	0.98137
2758.31387	0.98166
2756.25697	0.98194
2754.20006	0.98213
2752.14315	0.98209
2750.08624	0.98183
2748.02933	0.98160
2745.97242	0.98157
2743.91552	0.98167
2741.85861	0.98194
2739.80170	0.98218
2737.74479	0.98218
2735.68788	0.98215
2733.63098	0.98196
2731.57407	0.98159
2729.51716	0.98155
2727.46025	0.98175
2725.40334	0.98177
2723.34643	0.98156
2721.28953	0.98117
2719.23262	0.98091
2717.17571	0.98121
2715.11880	0.98184
2713.06189	0.98217
2711.00499	0.98201
2708.94808	0.98170
2706.89117	0.98150
2704.83426	0.98138
2702.77735	0.98135
2700.72044	0.98150
2698.66354	0.98187
2696.60663	0.98226
2694.54972	0.98235
2692.49281	0.98212
2690.43590	0.98196
2688.37900	0.98194
2686.32209	0.98204
2684.26518	0.98229
2682.20827	0.98234
2680.15136	0.98223
2678.09445	0.98231
2676.03755	0.98228
2673.98064	0.98205
2671.92373	0.98219
2669.86682	0.98262
2667.80991	0.98284
2665.75301	0.98273
2663.69610	0.98229
2661.63919	0.98189
2659.58228	0.98181
2657.52537	0.98192
2655.46846	0.98212
2653.41156	0.98221
2651.35465	0.98196
2649.29774	0.98161
2647.24083	0.98140
2645.18392	0.98127
2643.12702	0.98145
2641.07011	0.98184
2639.01320	0.98190
2636.95629	0.98179
2634.89938	0.98185
2632.84247	0.98206
2630.78557	0.98246
2628.72866	0.98289
2626.67175	0.98302
2624.61484	0.98281
2622.55793	0.98248
2620.50103	0.98233
2618.44412	0.98245
2616.38721	0.98260
2614.33030	0.98259
2612.27339	0.98283
2610.21648	0.98324
2608.15958	0.98306
2606.10267	0.98252
2604.04576	0.98262
2601.98885	0.98360
2599.93194	0.98417
2597.87504	0.98355
2595.81813	0.98283
2593.76122	0.98261
2591.70431	0.98269
2589.64740	0.98284
2587.59049	0.98271
2585.53359	0.98274
2583.47668	0.98353
2581.41977	0.98435
2579.36286	0.98431
2577.30595	0.98377
2575.24905	0.98315
2573.19214	0.98272
2571.13523	0.98284
2569.07832	0.98316
2567.02141	0.98330
2564.96450	0.98317
2562.90760	0.98277
2560.85069	0.98264
2558.79378	0.98259
2556.73687	0.98240
2554.67996	0.98235
2552.62306	0.98242
2550.56615	0.98259
2548.50924	0.98238
2546.45233	0.98205
2544.39542	0.98246
2542.33851	0.98300
2540.28161	0.98329
2538.22470	0.98379
2536.16779	0.98430
2534.11088	0.98422
2532.05397	0.98364
2529.99707	0.98328
2527.94016	0.98356
2525.88325	0.98396
2523.82634	0.98399
2521.76943	0.98368
2519.71252	0.98321
2517.65562	0.98298
2515.59871	0.98312
2513.54180	0.98310
2511.48489	0.98304
2509.42798	0.98346
2507.37108	0.98397
2505.31417	0.98410
2503.25726	0.98415
2501.20035	0.98424
2499.14344	0.98394
2497.08653	0.98344
2495.02963	0.98307
2492.97272	0.98316
2490.91581	0.98370
2488.85890	0.98384
2486.80199	0.98353
2484.74509	0.98334
2482.68818	0.98353
2480.63127	0.98401
2478.57436	0.98432
2476.51745	0.98412
2474.46054	0.98356
2472.40364	0.98329
2470.34673	0.98375
2468.28982	0.98460
2466.23291	0.98515
2464.17600	0.98508
2462.11910	0.98460
2460.06219	0.98409
2458.00528	0.98401
2455.94837	0.98405
2453.89146	0.98363
2451.83455	0.98317
2449.77765	0.98326
2447.72074	0.98386
2445.66383	0.98444
2443.60692	0.98432
2441.55001	0.98393
2439.49311	0.98406
2437.43620	0.98426
2435.37929	0.98396
2433.32238	0.98341
2431.26547	0.98325
2429.20856	0.98368
2427.15166	0.98414
2425.09475	0.98437
2423.03784	0.98479
2420.98093	0.98528
2418.92402	0.98542
2416.86712	0.98503
2414.81021	0.98443
2412.75330	0.98417
2410.69639	0.98406
2408.63948	0.98408
2406.58257	0.98448
2404.52567	0.98478
2402.46876	0.98486
2400.41185	0.98469
2398.35494	0.98435
2396.29803	0.98446
2394.24113	0.98465
2392.18422	0.98447
2390.12731	0.98423
2388.07040	0.98446
2386.01349	0.98500
2383.95658	0.98495
2381.89968	0.98435
2379.84277	0.98399
2377.78586	0.98424
2375.72895	0.98518
2373.67204	0.98664
2371.61514	0.98789
2369.55823	0.98808
2367.50132	0.98774
2365.44441	0.98799
2363.38750	0.98788
2361.33059	0.98660
2359.27369	0.98528
2357.21678	0.98468
2355.15987	0.98522
2353.10296	0.98584
2351.04605	0.98539
2348.98915	0.98517
2346.93224	0.98573
2344.87533	0.98632
2342.81842	0.98630
2340.76151	0.98561
2338.70460	0.98475
2336.64770	0.98419
2334.59079	0.98404
2332.53388	0.98409
2330.47697	0.98410
2328.42006	0.98412
2326.36316	0.98382
2324.30625	0.98289
2322.24934	0.98232
2320.19243	0.98282
2318.13552	0.98346
2316.07861	0.98378
2314.02171	0.98413
2311.96480	0.98437
2309.90789	0.98456
2307.85098	0.98501
2305.79407	0.98490
2303.73717	0.98388
2301.68026	0.98312
2299.62335	0.98293
2297.56644	0.98291
2295.50953	0.98304
2293.45262	0.98300
2291.39572	0.98267
2289.33881	0.98269
2287.28190	0.98340
2285.22499	0.98403
2283.16808	0.98403
2281.11117	0.98379
2279.05427	0.98363
2276.99736	0.98370
2274.94045	0.98377
2272.88354	0.98395
2270.82663	0.98442
2268.76973	0.98450
2266.71282	0.98512
2264.65591	0.98673
2262.59900	0.98730
2260.54209	0.98629
2258.48518	0.98495
2256.42828	0.98448
2254.37137	0.98483
2252.31446	0.98499
2250.25755	0.98528
2248.20064	0.98590
2246.14374	0.98582
2244.08683	0.98496
2242.02992	0.98464
2239.97301	0.98501
2237.91610	0.98510
2235.85919	0.98504
2233.80229	0.98524
2231.74538	0.98520
2229.68847	0.98567
2227.63156	0.98723
2225.57465	0.98767
2223.51775	0.98603
2221.46084	0.98444
2219.40393	0.98473
2217.34702	0.98567
2215.29011	0.98587
2213.23320	0.98631
2211.17630	0.98638
2209.11939	0.98548
2207.06248	0.98473
2205.00557	0.98384
2202.94866	0.98293
2200.89176	0.98339
2198.83485	0.98459
2196.77794	0.98529
2194.72103	0.98579
2192.66412	0.98580
2190.60721	0.98487
2188.55031	0.98397
2186.49340	0.98433
2184.43649	0.98563
2182.37958	0.98675
2180.32267	0.98715
2178.26577	0.98717
2176.20886	0.98681
2174.15195	0.98601
2172.09504	0.98602
2170.03813	0.98648
2167.98122	0.98587
2165.92432	0.98510
2163.86741	0.98472
2161.81050	0.98462
2159.75359	0.98529
2157.69668	0.98642
2155.63978	0.98785
2153.58287	0.98829
2151.52596	0.98727
2149.46905	0.98627
2147.41214	0.98650
2145.35523	0.98775
2143.29833	0.98900
2141.24142	0.98938
2139.18451	0.98867
2137.12760	0.98797
2135.07069	0.98706
2133.01379	0.98576
2130.95688	0.98534
2128.89997	0.98542
2126.84306	0.98476
2124.78615	0.98380
2122.72924	0.98358
2120.67234	0.98354
2118.61543	0.98294
2116.55852	0.98270
2114.50161	0.98381
2112.44470	0.98507
2110.38780	0.98526
2108.33089	0.98501
2106.27398	0.98483
2104.21707	0.98500
2102.16016	0.98557
2100.10325	0.98588
2098.04635	0.98594
2095.98944	0.98577
2093.93253	0.98507
2091.87562	0.98483
2089.81871	0.98539
2087.76181	0.98537
2085.70490	0.98431
2083.64799	0.98368
2081.59108	0.98504
2079.53417	0.98740
2077.47726	0.98804
2075.42036	0.98695
2073.36345	0.98611
2071.30654	0.98562
2069.24963	0.98572
2067.19272	0.98746
2065.13582	0.98909
2063.07891	0.98902
2061.02200	0.98903
2058.96509	0.98910
2056.90818	0.98712
2054.85127	0.98425
2052.79437	0.98333
2050.73746	0.98408
2048.68055	0.98408
2046.62364	0.98331
2044.56673	0.98413
2042.50983	0.98614
2040.45292	0.98676
2038.39601	0.98636
2036.33910	0.98657
2034.28219	0.98716
2032.22528	0.98662
2030.16838	0.98465
2028.11147	0.98322
2026.05456	0.98397
2023.99765	0.98560
2021.94074	0.98582
2019.88384	0.98596
2017.82693	0.98733
2015.77002	0.98733
2013.71311	0.98512
2011.65620	0.98454
2009.59929	0.98766
2007.54239	0.99084
2005.48548	0.99091
2003.42857	0.98937
2001.37166	0.98847
1999.31475	0.98752
1997.25785	0.98555
1995.20094	0.98415
1993.14403	0.98493
1991.08712	0.98645
1989.03021	0.98640
1986.97330	0.98566
1984.91640	0.98564
1982.85949	0.98679
1980.80258	0.98824
1978.74567	0.98777
1976.68876	0.98587
1974.63186	0.98515
1972.57495	0.98613
1970.51804	0.98817
1968.46113	0.99042
1966.40422	0.99106
1964.34731	0.99060
1962.29041	0.99048
1960.23350	0.98993
1958.17659	0.98908
1956.11968	0.98866
1954.06277	0.98858
1952.00587	0.98875
1949.94896	0.98887
1947.89205	0.98838
1945.83514	0.98778
1943.77823	0.98792
1941.72132	0.98861
1939.66442	0.98889
1937.60751	0.98823
1935.55060	0.98743
1933.49369	0.98646
1931.43678	0.98528
1929.37988	0.98513
1927.32297	0.98529
1925.26606	0.98508
1923.20915	0.98519
1921.15224	0.98559
1919.09533	0.98673
1917.03843	0.98824
1914.98152	0.98867
1912.92461	0.98836
1910.86770	0.98784
1908.81079	0.98755
1906.75389	0.98787
1904.69698	0.98764
1902.64007	0.98683
1900.58316	0.98699
1898.52625	0.98789
1896.46934	0.98803
1894.41244	0.98763
1892.35553	0.98792
1890.29862	0.98899
1888.24171	0.98956
1886.18480	0.98880
1884.12790	0.98809
1882.07099	0.98824
1880.01408	0.98830
1877.95717	0.98806
1875.90026	0.98819
1873.84335	0.98855
1871.78645	0.98883
1869.72954	0.98912
1867.67263	0.98914
1865.61572	0.98913
1863.55881	0.98947
1861.50191	0.98943
1859.44500	0.98871
1857.38809	0.98821
1855.33118	0.98816
1853.27427	0.98823
1851.21736	0.98836
1849.16046	0.98856
1847.10355	0.98890
1845.04664	0.98925
1842.98973	0.98909
1840.93282	0.98859
1838.87592	0.98823
1836.81901	0.98814
1834.76210	0.98840
1832.70519	0.98870
1830.64828	0.98881
1828.59137	0.98849
1826.53447	0.98783
1824.47756	0.98760
1822.42065	0.98797
1820.36374	0.98816
1818.30683	0.98801
1816.24993	0.98788
1814.19302	0.98774
1812.13611	0.98759
1810.07920	0.98771
1808.02229	0.98780
1805.96538	0.98738
1803.90848	0.98697
1801.85157	0.98707
1799.79466	0.98741
1797.73775	0.98744
1795.68084	0.98732
1793.62394	0.98728
1791.56703	0.98702
1789.51012	0.98657
1787.45321	0.98617
1785.39630	0.98585
1783.33939	0.98518
1781.28249	0.98408
1779.22558	0.98298
1777.16867	0.98208
1775.11176	0.98098
1773.05485	0.97857
1770.99795	0.97486
1768.94104	0.97097
1766.88413	0.96578
1764.82722	0.95959
1762.77031	0.95257
1760.71340	0.94396
1758.65650	0.93504
1756.59959	0.92574
1754.54268	0.91756
1752.48577	0.91075
1750.42886	0.90257
1748.37196	0.89422
1746.31505	0.88826
1744.25814	0.88334
1742.20123	0.87863
1740.14432	0.87430
1738.08741	0.87124
1736.03051	0.86975
1733.97360	0.86824
1731.91669	0.86734
1729.85978	0.86800
1727.80287	0.86931
1725.74597	0.87088
1723.68906	0.87306
1721.63215	0.87600
1719.57524	0.87959
1717.51833	0.88407
1715.46142	0.88899
1713.40452	0.89389
1711.34761	0.89936
1709.29070	0.90548
1707.23379	0.91224
1705.17688	0.91958
1703.11998	0.92592
1701.06307	0.93197
1699.00616	0.93771
1696.94925	0.94144
1694.89234	0.94498
1692.83543	0.94841
1690.77853	0.95155
1688.72162	0.95426
1686.66471	0.95635
1684.60780	0.95884
1682.55089	0.96068
1680.49399	0.96118
1678.43708	0.96165
1676.38017	0.96258
1674.32326	0.96379
1672.26635	0.96472
1670.20944	0.96537
1668.15254	0.96566
1666.09563	0.96571
1664.03872	0.96572
1661.98181	0.96558
1659.92490	0.96550
1657.86800	0.96559
1655.81109	0.96592
1653.75418	0.96658
1651.69727	0.96670
1649.64036	0.96639
1647.58345	0.96578
1645.52655	0.96515
1643.46964	0.96546
1641.41273	0.96614
1639.35582	0.96689
1637.29891	0.96777
1635.24201	0.96800
1633.18510	0.96758
1631.12819	0.96773
1629.07128	0.96838
1627.01437	0.96895
1624.95746	0.96951
1622.90056	0.97023
1620.84365	0.97076
1618.78674	0.97109
1616.72983	0.97139
1614.67292	0.97185
1612.61602	0.97260
1610.55911	0.97327
1608.50220	0.97375
1606.44529	0.97424
1604.38838	0.97475
1602.33147	0.97521
1600.27457	0.97544
1598.21766	0.97562
1596.16075	0.97612
1594.10384	0.97673
1592.04693	0.97719
1589.99003	0.97747
1587.93312	0.97758
1585.87621	0.97769
1583.81930	0.97788
1581.76239	0.97796
1579.70548	0.97798
1577.64858	0.97835
1575.59167	0.97896
1573.53476	0.97927
1571.47785	0.97953
1569.42094	0.97976
1567.36404	0.97978
1565.30713	0.97970
1563.25022	0.97974
1561.19331	0.98019
1559.13640	0.98084
1557.07949	0.98067
1555.02259	0.98049
1552.96568	0.98058
1550.90877	0.98068
1548.85186	0.98073
1546.79495	0.98087
1544.73805	0.98135
1542.68114	0.98226
1540.62423	0.98274
1538.56732	0.98175
1536.51041	0.98120
1534.45350	0.98158
1532.39660	0.98194
1530.33969	0.98202
1528.28278	0.98216
1526.22587	0.98214
1524.16896	0.98186
1522.11206	0.98168
1520.05515	0.98201
1517.99824	0.98246
1515.94133	0.98242
1513.88442	0.98227
1511.82751	0.98257
1509.77061	0.98320
1507.71370	0.98347
1505.65679	0.98276
1503.59988	0.98203
1501.54297	0.98182
1499.48607	0.98211
1497.42916	0.98263
1495.37225	0.98280
1493.31534	0.98283
1491.25843	0.98297
1489.20152	0.98285
1487.14462	0.98232
1485.08771	0.98189
1483.03080	0.98155
1480.97389	0.98118
1478.91698	0.98095
1476.86008	0.98089
1474.80317	0.98082
1472.74626	0.97975
1470.68935	0.97769
1468.63244	0.97633
1466.57553	0.97573
1464.51863	0.97511
1462.46172	0.97404
1460.40481	0.97298
1458.34790	0.97194
1456.29099	0.97033
1454.23409	0.96881
1452.17718	0.96779
1450.12027	0.96695
1448.06336	0.96581
1446.00645	0.96417
1443.94954	0.96254
1441.89264	0.96122
1439.83573	0.96026
1437.77882	0.95937
1435.72191	0.95802
1433.66500	0.95713
1431.60810	0.95720
1429.55119	0.95760
1427.49428	0.95797
1425.43737	0.95858
1423.38046	0.95946
1421.32355	0.96055
1419.26665	0.96174
1417.20974	0.96230
1415.15283	0.96240
1413.09592	0.96274
1411.03901	0.96327
1408.98211	0.96378
1406.92520	0.96421
1404.86829	0.96447
1402.81138	0.96456
1400.75447	0.96430
1398.69756	0.96349
1396.64066	0.96257
1394.58375	0.96113
1392.52684	0.95862
1390.46993	0.95555
1388.41302	0.95153
1386.35612	0.94613
1384.29921	0.94036
1382.24230	0.93484
1380.18539	0.92962
1378.12848	0.92476
1376.07157	0.91997
1374.01467	0.91512
1371.95776	0.91148
1369.90085	0.90979
1367.84394	0.90972
1365.78703	0.91164
1363.73013	0.91597
1361.67322	0.92262
1359.61631	0.93009
1357.55940	0.93719
1355.50249	0.94349
1353.44558	0.94878
1351.38868	0.95295
1349.33177	0.95593
1347.27486	0.95801
1345.21795	0.95966
1343.16104	0.96114
1341.10414	0.96222
1339.04723	0.96250
1336.99032	0.96247
1334.93341	0.96268
1332.87650	0.96309
1330.81959	0.96351
1328.76269	0.96357
1326.70578	0.96323
1324.64887	0.96291
1322.59196	0.96287
1320.53505	0.96290
1318.47815	0.96268
1316.42124	0.96224
1314.36433	0.96183
1312.30742	0.96175
1310.25051	0.96221
1308.19360	0.96283
1306.13670	0.96345
1304.07979	0.96396
1302.02288	0.96386
1299.96597	0.96320
1297.90906	0.96240
1295.85216	0.96159
1293.79525	0.96055
1291.73834	0.95915
1289.68143	0.95761
1287.62452	0.95598
1285.56761	0.95384
1283.51071	0.95130
1281.45380	0.94873
1279.39689	0.94574
1277.33998	0.94221
1275.28307	0.93853
1273.22617	0.93472
1271.16926	0.93076
1269.11235	0.92666
1267.05544	0.92207
1264.99853	0.91702
1262.94162	0.91193
1260.88472	0.90653
1258.82781	0.90056
1256.77090	0.89456
1254.71399	0.88892
1252.65708	0.88317
1250.60018	0.87696
1248.54327	0.87068
1246.48636	0.86493
1244.42945	0.85957
1242.37254	0.85398
1240.31563	0.84805
1238.25873	0.84203
1236.20182	0.83630
1234.14491	0.83110
1232.08800	0.82660
1230.03109	0.82267
1227.97419	0.81932
1225.91728	0.81691
1223.86037	0.81548
1221.80346	0.81498
1219.74655	0.81562
1217.68964	0.81755
1215.63274	0.82095
1213.57583	0.82617
1211.51892	0.83313
1209.46201	0.84143
1207.40510	0.85069
1205.34820	0.86040
1203.29129	0.87024
1201.23438	0.88007
1199.17747	0.88981
1197.12056	0.89911
1195.06365	0.90745
1193.00675	0.91452
1190.94984	0.92029
1188.89293	0.92482
1186.83602	0.92808
1184.77911	0.93000
1182.72221	0.93081
1180.66530	0.93071
1178.60839	0.92967
1176.55148	0.92827
1174.49457	0.92709
1172.43766	0.92570
1170.38076	0.92387
1168.32385	0.92219
1166.26694	0.92070
1164.21003	0.91938
1162.15312	0.91873
1160.09622	0.91878
1158.03931	0.91941
1155.98240	0.92067
1153.92549	0.92254
1151.86858	0.92479
1149.81167	0.92689
1147.75477	0.92849
1145.69786	0.92946
1143.64095	0.92984
1141.58404	0.92993
1139.52713	0.92956
1137.47023	0.92830
1135.41332	0.92630
1133.35641	0.92421
1131.29950	0.92225
1129.24259	0.92000
1127.18568	0.91752
1125.12878	0.91531
1123.07187	0.91348
1121.01496	0.91205
1118.95805	0.91090
1116.90114	0.90979
1114.84424	0.90872
1112.78733	0.90763
1110.73042	0.90664
1108.67351	0.90574
1106.61660	0.90478
1104.55969	0.90391
1102.50279	0.90309
1100.44588	0.90189
1098.38897	0.90034
1096.33206	0.89851
1094.27515	0.89625
1092.21825	0.89349
1090.16134	0.89010
1088.10443	0.88590
1086.04752	0.88116
1083.99061	0.87606
1081.93370	0.87088
1079.87680	0.86647
1077.81989	0.86303
1075.76298	0.85982
1073.70607	0.85681
1071.64916	0.85408
1069.59226	0.85103
1067.53535	0.84771
1065.47844	0.84467
1063.42153	0.84162
1061.36462	0.83833
1059.30771	0.83510
1057.25081	0.83194
1055.19390	0.82842
1053.13699	0.82425
1051.08008	0.81980
1049.02317	0.81548
1046.96627	0.81112
1044.90936	0.80679
1042.85245	0.80283
1040.79554	0.79910
1038.73863	0.79544
1036.68172	0.79222
1034.62482	0.78956
1032.56791	0.78746
1030.51100	0.78632
1028.45409	0.78598
1026.39718	0.78618
1024.34028	0.78692
1022.28337	0.78828
1020.22646	0.79033
1018.16955	0.79296
1016.11264	0.79598
1014.05573	0.79918
1011.99883	0.80261
1009.94192	0.80659
1007.88501	0.81109
1005.82810	0.81552
1003.77119	0.81934
1001.71429	0.82285
999.65738	0.82670
997.60047	0.83067
995.54356	0.83453
993.48665	0.83864
991.42974	0.84268
989.37284	0.84611
987.31593	0.84906
985.25902	0.85186
983.20211	0.85446
981.14520	0.85664
979.08830	0.85845
977.03139	0.86009
974.97448	0.86201
972.91757	0.86480
970.86066	0.86875
968.80375	0.87341
966.74685	0.87783
964.68994	0.88183
962.63303	0.88564
960.57612	0.88898
958.51921	0.89171
956.46231	0.89388
954.40540	0.89595
952.34849	0.89811
950.29158	0.90014
948.23467	0.90211
946.17776	0.90415
944.12086	0.90613
942.06395	0.90789
940.00704	0.90941
937.95013	0.91062
935.89322	0.91152
933.83632	0.91184
931.77941	0.91122
929.72250	0.91009
927.66559	0.90920
925.60868	0.90872
923.55177	0.90850
921.49487	0.90847
919.43796	0.90844
917.38105	0.90825
915.32414	0.90793
913.26723	0.90722
911.21033	0.90607
909.15342	0.90503
907.09651	0.90419
905.03960	0.90359
902.98269	0.90353
900.92578	0.90371
898.86888	0.90410
896.81197	0.90527
894.75506	0.90700
892.69815	0.90841
890.64124	0.90901
888.58434	0.90932
886.52743	0.91055
884.47052	0.91263
882.41361	0.91452
880.35670	0.91681
878.29979	0.91991
876.24289	0.92252
874.18598	0.92469
872.12907	0.92719
870.07216	0.92957
868.01525	0.93165
865.95835	0.93368
863.90144	0.93531
861.84453	0.93639
859.78762	0.93737
857.73071	0.93831
855.67380	0.93876
853.61690	0.93907
851.55999	0.93978
849.50308	0.94020
847.44617	0.93973
845.38926	0.93883
843.33236	0.93793
841.27545	0.93700
839.21854	0.93676
837.16163	0.93761
835.10472	0.93861
833.04781	0.93942
830.99091	0.94036
828.93400	0.94148
826.87709	0.94273
824.82018	0.94430
822.76327	0.94586
820.70637	0.94656
818.64946	0.94681
816.59255	0.94735
814.53564	0.94802
812.47873	0.94856
810.42182	0.94894
808.36492	0.94946
806.30801	0.95033
804.25110	0.95105
802.19419	0.95075
800.13728	0.94985
798.08038	0.94947
796.02347	0.94983
793.96656	0.95041
791.90965	0.95078
789.85274	0.95101
787.79583	0.95100
785.73893	0.95052
783.68202	0.95019
781.62511	0.95091
779.56820	0.95228
777.51129	0.95290
775.45439	0.95278
773.39748	0.95295
771.34057	0.95321
769.28366	0.95283
767.22675	0.95246
765.16984	0.95290
763.11294	0.95285
761.05603	0.95176
758.99912	0.95148
756.94221	0.95226
754.88530	0.95278
752.82839	0.95289
750.77149	0.95297
748.71458	0.95329
746.65767	0.95384
744.60076	0.95408
742.54385	0.95378
740.48695	0.95319
738.43004	0.95238
736.37313	0.95187
734.31622	0.95208
732.25931	0.95216
730.20240	0.95143
728.14550	0.95063
726.08859	0.95036
724.03168	0.95027
721.97477	0.94977
719.91786	0.94884
717.86096	0.94800
715.80405	0.94747
713.74714	0.94704
711.69023	0.94667
709.63332	0.94668
707.57641	0.94679
705.51951	0.94583
703.46260	0.94432
701.40569	0.94348
699.34878	0.94294
697.29187	0.94225
695.23497	0.94153
693.17806	0.94122
691.12115	0.94181
689.06424	0.94237
687.00733	0.94155
684.95042	0.93969
682.89352	0.93807
680.83661	0.93727
678.77970	0.93711
676.72279	0.93735
674.66588	0.93739
672.60898	0.93701
670.55207	0.93673
668.49516	0.93679
666.43825	0.93669
664.38134	0.93587
662.32443	0.93480
660.26753	0.93423
658.21062	0.93369
656.15371	0.93265
654.09680	0.93195
652.03989	0.93156
649.98299	0.93042
647.92608	0.92876
645.86917	0.92747
643.81226	0.92641
641.75535	0.92480
639.69844	0.92290
637.64154	0.92183
635.58463	0.92127
633.52772	0.92015
631.47081	0.91873
629.41390	0.91802
627.35700	0.91812
625.30009	0.91814
623.24318	0.91712
621.18627	0.91542
619.12936	0.91370
617.07245	0.91183
615.01555	0.90978
612.95864	0.90693
610.90173	0.90317
608.84482	0.89967
606.78791	0.89642
604.73101	0.89353
602.67410	0.89201
600.61719	0.89182
598.56028	0.89260
596.50337	0.89411
594.44646	0.89660
592.38956	0.90008
590.33265	0.90245
588.27574	0.90346
586.21883	0.90512
584.16192	0.90746
582.10502	0.90920
580.04811	0.90907
577.99120	0.90777
575.93429	0.90753
573.87738	0.90787
571.82047	0.90775
569.76357	0.90747
567.70666	0.90713
565.64975	0.90616
563.59284	0.90405
561.53593	0.90207
559.47903	0.90147
557.42212	0.90194
555.36521	0.90265
553.30830	0.90318
551.25139	0.90430
549.19448	0.90476
547.13758	0.90343
545.08067	0.90344
543.02376	0.90557
540.96685	0.90658
538.90994	0.90576
536.85304	0.90433
534.79613	0.90350
532.73922	0.90408
530.68231	0.90388
528.62540	0.90197
526.56849	0.90061
524.51159	0.90040
522.45468	0.90092
520.39777	0.90187
518.34086	0.90211
516.28395	0.90105
514.22705	0.90019
512.17014	0.90053
510.11323	0.90048
508.05632	0.89972
505.99941	0.89906
503.94250	0.89831
501.88560	0.89776
499.82869	0.89711
497.77178	0.89592
495.71487	0.89485
493.65796	0.89355
491.60106	0.89185
489.54415	0.89180
487.48724	0.89293
485.43033	0.89351
483.37342	0.89371
481.31651	0.89346
479.25961	0.89377
477.20270	0.89484
475.14579	0.89453
473.08888	0.89302
471.03197	0.89227
468.97507	0.89192
466.91816	0.89112
464.86125	0.88995
462.80434	0.88891
460.74743	0.88796
458.69052	0.88606
456.63362	0.88366
454.57671	0.88255
452.51980	0.88247
450.46289	0.88326
448.40598	0.88368
446.34908	0.88087
444.29217	0.87783
442.23526	0.87944
440.17835	0.88218
438.12144	0.88115
436.06453	0.87766
434.00763	0.87672
431.95072	0.87928
429.89381	0.88071
427.83690	0.88024
425.77999	0.88243
423.72309	0.88654
421.66618	0.88784
419.60927	0.88881
417.55236	0.88999
415.49545	0.88815
413.43854	0.88642
411.38164	0.88442
409.32473	0.88268
407.26782	0.88372
405.21091	0.88492
403.15400	0.88524
401.09710	0.88720
399.04019	0.88998
