3996.57260	0.98606
3994.51569	0.98593
3992.45878	0.98624
3990.40188	0.98683
3988.34497	0.98708
3986.28806	0.98735
3984.23115	0.98744
3982.17424	0.98719
3980.11733	0.98720
3978.06043	0.98731
3976.00352	0.98738
3973.94661	0.98761
3971.88970	0.98765
3969.83279	0.98721
3967.77589	0.98683
3965.71898	0.98681
3963.66207	0.98697
3961.60516	0.98718
3959.54825	0.98746
3957.49134	0.98790
3955.43444	0.98807
3953.37753	0.98794
3951.32062	0.98806
3949.26371	0.98792
3947.20680	0.98728
3945.14990	0.98703
3943.09299	0.98711
3941.03608	0.98695
3938.97917	0.98702
3936.92226	0.98759
3934.86535	0.98789
3932.80845	0.98768
3930.75154	0.98735
3928.69463	0.98720
3926.63772	0.98737
3924.58081	0.98756
3922.52391	0.98738
3920.46700	0.98707
3918.41009	0.98717
3916.35318	0.98756
3914.29627	0.98803
3912.23936	0.98820
3910.18246	0.98757
3908.12555	0.98684
3906.06864	0.98680
3904.01173	0.98694
3901.95482	0.98660
3899.89792	0.98623
3897.84101	0.98626
3895.78410	0.98666
3893.72719	0.98687
3891.67028	0.98674
3889.61337	0.98705
3887.55647	0.98709
3885.49956	0.98625
3883.44265	0.98603
3881.38574	0.98671
3879.32883	0.98718
3877.27193	0.98752
3875.21502	0.98822
3873.15811	0.98885
3871.10120	0.98855
3869.04429	0.98774
3866.98738	0.98741
3864.93048	0.98721
3862.87357	0.98680
3860.81666	0.98645
3858.75975	0.98664
3856.70284	0.98748
3854.64594	0.98839
3852.58903	0.98793
3850.53212	0.98700
3848.47521	0.98722
3846.41830	0.98768
3844.36139	0.98745
3842.30449	0.98727
3840.24758	0.98739
3838.19067	0.98693
3836.13376	0.98648
3834.07685	0.98683
3832.01995	0.98745
3829.96304	0.98752
3827.90613	0.98738
3825.84922	0.98747
3823.79231	0.98744
3821.73540	0.98740
3819.67850	0.98768
3817.62159	0.98816
3815.56468	0.98807
3813.50777	0.98739
3811.45086	0.98740
3809.39396	0.98771
3807.33705	0.98696
3805.28014	0.98607
3803.22323	0.98704
3801.16632	0.98857
3799.10941	0.98818
3797.05251	0.98701
3794.99560	0.98667
3792.93869	0.98728
3790.88178	0.98789
3788.82487	0.98809
3786.76796	0.98807
3784.71106	0.98760
3782.65415	0.98695
3780.59724	0.98677
3778.54033	0.98711
3776.48342	0.98770
3774.42652	0.98810
3772.36961	0.98770
3770.31270	0.98668
3768.25579	0.98636
3766.19888	0.98732
3764.14197	0.98856
3762.08507	0.98888
3760.02816	0.98837
3757.97125	0.98787
3755.91434	0.98777
3753.85743	0.98776
3751.80053	0.98777
3749.74362	0.98829
3747.68671	0.98854
3745.62980	0.98751
3743.57289	0.98595
3741.51598	0.98598
3739.45908	0.98719
3737.40217	0.98815
3735.34526	0.98801
3733.28835	0.98755
3731.23144	0.98771
3729.17454	0.98814
3727.11763	0.98792
3725.06072	0.98651
3723.00381	0.98481
3720.94690	0.98406
3718.88999	0.98466
3716.83309	0.98610
3714.77618	0.98700
3712.71927	0.98654
3710.66236	0.98620
3708.60545	0.98676
3706.54855	0.98689
3704.49164	0.98694
3702.43473	0.98716
3700.37782	0.98725
3698.32091	0.98731
3696.26400	0.98747
3694.20710	0.98801
3692.15019	0.98823
3690.09328	0.98712
3688.03637	0.98661
3685.97946	0.98714
3683.92256	0.98728
3681.86565	0.98746
3679.80874	0.98769
3677.75183	0.98725
3675.69492	0.98640
3673.63801	0.98612
3671.58111	0.98574
3669.52420	0.98522
3667.46729	0.98587
3665.41038	0.98666
3663.35347	0.98617
3661.29657	0.98536
3659.23966	0.98546
3657.18275	0.98569
3655.12584	0.98520
3653.06893	0.98477
3651.01202	0.98507
3648.95512	0.98577
3646.89821	0.98639
3644.84130	0.98648
3642.78439	0.98591
3640.72748	0.98518
3638.67058	0.98486
3636.61367	0.98527
3634.55676	0.98599
3632.49985	0.98625
3630.44294	0.98573
3628.38603	0.98442
3626.32913	0.98372
3624.27222	0.98402
3622.21531	0.98386
3620.15840	0.98325
3618.10149	0.98406
3616.04459	0.98516
3613.98768	0.98477
3611.93077	0.98391
3609.87386	0.98376
3607.81695	0.98384
3605.76004	0.98365
3603.70314	0.98341
3601.64623	0.98346
3599.58932	0.98378
3597.53241	0.98401
3595.47550	0.98408
3593.41860	0.98368
3591.36169	0.98316
3589.30478	0.98306
3587.24787	0.98297
3585.19096	0.98281
3583.13405	0.98260
3581.07715	0.98227
3579.02024	0.98224
3576.96333	0.98228
3574.90642	0.98219
3572.84951	0.98218
3570.79261	0.98206
3568.73570	0.98197
3566.67879	0.98210
3564.62188	0.98195
3562.56497	0.98169
3560.50806	0.98151
3558.45116	0.98107
3556.39425	0.98060
3554.33734	0.98041
3552.28043	0.98036
3550.22352	0.98029
3548.16662	0.97985
3546.10971	0.97921
3544.05280	0.97908
3541.99589	0.97928
3539.93898	0.97950
3537.88207	0.97964
3535.82517	0.97938
3533.76826	0.97904
3531.71135	0.97899
3529.65444	0.97887
3527.59753	0.97846
3525.54063	0.97830
3523.48372	0.97837
3521.42681	0.97843
3519.36990	0.97850
3517.31299	0.97815
3515.25608	0.97718
3513.19918	0.97621
3511.14227	0.97615
3509.08536	0.97655
3507.02845	0.97651
3504.97154	0.97636
3502.91464	0.97605
3500.85773	0.97570
3498.80082	0.97609
3496.74391	0.97678
3494.68700	0.97691
3492.63009	0.97663
3490.57319	0.97613
3488.51628	0.97566
3486.45937	0.97518
3484.40246	0.97463
3482.34555	0.97464
3480.28865	0.97496
3478.23174	0.97523
3476.17483	0.97564
3474.11792	0.97582
3472.06101	0.97566
3470.00410	0.97559
3467.94720	0.97579
3465.89029	0.97613
3463.83338	0.97639
3461.77647	0.97621
3459.71956	0.97541
3457.66266	0.97482
3455.60575	0.97489
3453.54884	0.97507
3451.49193	0.97524
3449.43502	0.97551
3447.37811	0.97597
3445.32121	0.97652
3443.26430	0.97667
3441.20739	0.97643
3439.15048	0.97615
3437.09357	0.97615
3435.03667	0.97649
3432.97976	0.97647
3430.92285	0.97569
3428.86594	0.97529
3426.80903	0.97571
3424.75212	0.97604
3422.69522	0.97611
3420.63831	0.97625
3418.58140	0.97668
3416.52449	0.97738
3414.46758	0.97750
3412.41068	0.97679
3410.35377	0.97636
3408.29686	0.97641
3406.23995	0.97632
3404.18304	0.97625
3402.12613	0.97660
3400.06923	0.97715
3398.01232	0.97762
3395.95541	0.97821
3393.89850	0.97911
3391.84159	0.97964
3389.78469	0.97942
3387.72778	0.97920
3385.67087	0.97946
3383.61396	0.97982
3381.55705	0.98007
3379.50014	0.97998
3377.44324	0.97954
3375.38633	0.97898
3373.32942	0.97870
3371.27251	0.97912
3369.21560	0.97937
3367.15870	0.97894
3365.10179	0.97886
3363.04488	0.97944
3360.98797	0.97986
3358.93106	0.97978
3356.87415	0.97937
3354.81725	0.97921
3352.76034	0.97954
3350.70343	0.97972
3348.64652	0.97959
3346.58961	0.97950
3344.53271	0.97963
3342.47580	0.97993
3340.41889	0.98008
3338.36198	0.98024
3336.30507	0.98067
3334.24816	0.98068
3332.19126	0.98023
3330.13435	0.98015
3328.07744	0.98020
3326.02053	0.98007
3323.96362	0.98000
3321.90672	0.98015
3319.84981	0.98055
3317.79290	0.98089
3315.73599	0.98085
3313.67908	0.98068
3311.62217	0.98091
3309.56527	0.98104
3307.50836	0.98078
3305.45145	0.98107
3303.39454	0.98197
3301.33763	0.98234
3299.28073	0.98189
3297.22382	0.98135
3295.16691	0.98140
3293.11000	0.98179
3291.05309	0.98194
3288.99618	0.98201
3286.93928	0.98231
3284.88237	0.98278
3282.82546	0.98317
3280.76855	0.98328
3278.71164	0.98293
3276.65474	0.98233
3274.59783	0.98185
3272.54092	0.98153
3270.48401	0.98177
3268.42710	0.98282
3266.37019	0.98337
3264.31329	0.98271
3262.25638	0.98206
3260.19947	0.98199
3258.14256	0.98205
3256.08565	0.98223
3254.02875	0.98254
3251.97184	0.98277
3249.91493	0.98280
3247.85802	0.98270
3245.80111	0.98245
3243.74420	0.98205
3241.68730	0.98215
3239.63039	0.98287
3237.57348	0.98301
3235.51657	0.98235
3233.45966	0.98206
3231.40276	0.98252
3229.34585	0.98306
3227.28894	0.98313
3225.23203	0.98309
3223.17512	0.98328
3221.11821	0.98317
3219.06131	0.98298
3217.00440	0.98327
3214.94749	0.98339
3212.89058	0.98296
3210.83367	0.98258
3208.77677	0.98266
3206.71986	0.98291
3204.66295	0.98326
3202.60604	0.98360
3200.54913	0.98348
3198.49222	0.98313
3196.43532	0.98316
3194.37841	0.98337
3192.32150	0.98334
3190.26459	0.98316
3188.20768	0.98299
3186.15078	0.98298
3184.09387	0.98319
3182.03696	0.98342
3179.98005	0.98336
3177.92314	0.98307
3175.86623	0.98331
3173.80933	0.98388
3171.75242	0.98408
3169.69551	0.98421
3167.63860	0.98437
3165.58169	0.98455
3163.52479	0.98479
3161.46788	0.98488
3159.41097	0.98506
3157.35406	0.98484
3155.29715	0.98407
3153.24024	0.98407
3151.18334	0.98451
3149.12643	0.98419
3147.06952	0.98379
3145.01261	0.98412
3142.95570	0.98463
3140.89880	0.98494
3138.84189	0.98507
3136.78498	0.98473
3134.72807	0.98432
3132.67116	0.98433
3130.61425	0.98442
3128.55735	0.98433
3126.50044	0.98423
3124.44353	0.98432
3122.38662	0.98456
3120.32971	0.98470
3118.27281	0.98473
3116.21590	0.98496
3114.15899	0.98514
3112.10208	0.98485
3110.04517	0.98432
3107.98826	0.98405
3105.93136	0.98429
3103.87445	0.98477
3101.81754	0.98497
3099.76063	0.98493
3097.70372	0.98505
3095.64682	0.98517
3093.58991	0.98492
3091.53300	0.98436
3089.47609	0.98408
3087.41918	0.98460
3085.36227	0.98514
3083.30537	0.98497
3081.24846	0.98464
3079.19155	0.98462
3077.13464	0.98474
3075.07773	0.98481
3073.02083	0.98485
3070.96392	0.98474
3068.90701	0.98463
3066.85010	0.98467
3064.79319	0.98460
3062.73628	0.98452
3060.67938	0.98451
3058.62247	0.98458
3056.56556	0.98478
3054.50865	0.98490
3052.45174	0.98483
3050.39484	0.98447
3048.33793	0.98384
3046.28102	0.98348
3044.22411	0.98358
3042.16720	0.98371
3040.11029	0.98370
3038.05339	0.98355
3035.99648	0.98342
3033.93957	0.98350
3031.88266	0.98372
3029.82575	0.98403
3027.76885	0.98394
3025.71194	0.98341
3023.65503	0.98293
3021.59812	0.98271
3019.54121	0.98298
3017.48430	0.98362
3015.42740	0.98409
3013.37049	0.98418
3011.31358	0.98405
3009.25667	0.98365
3007.19976	0.98286
3005.14286	0.98241
3003.08595	0.98283
3001.02904	0.98351
2998.97213	0.98372
2996.91522	0.98346
2994.85831	0.98306
2992.80141	0.98273
2990.74450	0.98252
2988.68759	0.98248
2986.63068	0.98248
2984.57377	0.98230
2982.51687	0.98204
2980.45996	0.98190
2978.40305	0.98206
2976.34614	0.98237
2974.28923	0.98240
2972.23232	0.98206
2970.17542	0.98152
2968.11851	0.98076
2966.06160	0.98004
2964.00469	0.97975
2961.94778	0.97975
2959.89088	0.97986
2957.83397	0.98005
2955.77706	0.98022
2953.72015	0.97996
2951.66324	0.97937
2949.60633	0.97912
2947.54943	0.97906
2945.49252	0.97898
2943.43561	0.97929
2941.37870	0.97974
2939.32179	0.97971
2937.26489	0.97954
2935.20798	0.97968
2933.15107	0.98008
2931.09416	0.98042
2929.03725	0.98048
2926.98034	0.98038
2924.92344	0.98018
2922.86653	0.97987
2920.80962	0.97977
2918.75271	0.97992
2916.69580	0.97993
2914.63890	0.97978
2912.58199	0.97982
2910.52508	0.98027
2908.46817	0.98080
2906.41126	0.98088
2904.35435	0.98041
2902.29745	0.97965
2900.24054	0.97923
2898.18363	0.97933
2896.12672	0.97951
2894.06981	0.97964
2892.01291	0.97982
2889.95600	0.97978
2887.89909	0.97955
2885.84218	0.97940
2883.78527	0.97939
2881.72836	0.97951
2879.67146	0.97974
2877.61455	0.98003
2875.55764	0.98021
2873.50073	0.98026
2871.44382	0.98049
2869.38692	0.98083
2867.33001	0.98093
2865.27310	0.98083
2863.21619	0.98079
2861.15928	0.98070
2859.10237	0.98063
2857.04547	0.98085
2854.98856	0.98125
2852.93165	0.98158
2850.87474	0.98187
2848.81783	0.98235
2846.76093	0.98269
2844.70402	0.98256
2842.64711	0.98248
2840.59020	0.98266
2838.53329	0.98266
2836.47638	0.98261
2834.41948	0.98297
2832.36257	0.98342
2830.30566	0.98341
2828.24875	0.98319
2826.19184	0.98324
2824.13494	0.98321
2822.07803	0.98315
2820.02112	0.98344
2817.96421	0.98365
2815.90730	0.98351
2813.85039	0.98313
2811.79349	0.98295
2809.73658	0.98321
2807.67967	0.98325
2805.62276	0.98322
2803.56585	0.98375
2801.50895	0.98433
2799.45204	0.98448
2797.39513	0.98445
2795.33822	0.98439
2793.28131	0.98423
2791.22440	0.98407
2789.16750	0.98410
2787.11059	0.98397
2785.05368	0.98391
2782.99677	0.98429
2780.93986	0.98446
2778.88296	0.98425
2776.82605	0.98410
2774.76914	0.98414
2772.71223	0.98427
2770.65532	0.98433
2768.59841	0.98422
2766.54151	0.98409
2764.48460	0.98406
2762.42769	0.98409
2760.37078	0.98392
2758.31387	0.98370
2756.25697	0.98387
2754.20006	0.98409
2752.14315	0.98405
2750.08624	0.98404
2748.02933	0.98437
2745.97242	0.98481
2743.91552	0.98470
2741.85861	0.98431
2739.80170	0.98428
2737.74479	0.98437
2735.68788	0.98431
2733.63098	0.98435
2731.57407	0.98454
2729.51716	0.98460
2727.46025	0.98454
2725.40334	0.98445
2723.34643	0.98444
2721.28953	0.98455
2719.23262	0.98448
2717.17571	0.98429
2715.11880	0.98415
2713.06189	0.98410
2711.00499	0.98417
2708.94808	0.98422
2706.89117	0.98422
2704.83426	0.98413
2702.77735	0.98403
2700.72044	0.98406
2698.66354	0.98428
2696.60663	0.98446
2694.54972	0.98443
2692.49281	0.98433
2690.43590	0.98428
2688.37900	0.98429
2686.32209	0.98427
2684.26518	0.98418
2682.20827	0.98405
2680.15136	0.98394
2678.09445	0.98396
2676.03755	0.98412
2673.98064	0.98424
2671.92373	0.98429
2669.86682	0.98443
2667.80991	0.98460
2665.75301	0.98460
2663.69610	0.98468
2661.63919	0.98478
2659.58228	0.98449
2657.52537	0.98409
2655.46846	0.98400
2653.41156	0.98405
2651.35465	0.98410
2649.29774	0.98423
2647.24083	0.98461
2645.18392	0.98515
2643.12702	0.98525
2641.07011	0.98474
2639.01320	0.98423
2636.95629	0.98416
2634.89938	0.98442
2632.84247	0.98483
2630.78557	0.98511
2628.72866	0.98512
2626.67175	0.98510
2624.61484	0.98517
2622.55793	0.98508
2620.50103	0.98456
2618.44412	0.98406
2616.38721	0.98415
2614.33030	0.98454
2612.27339	0.98474
2610.21648	0.98479
2608.15958	0.98463
2606.10267	0.98441
2604.04576	0.98469
2601.98885	0.98507
2599.93194	0.98499
2597.87504	0.98483
2595.81813	0.98504
2593.76122	0.98543
2591.70431	0.98550
2589.64740	0.98516
2587.59049	0.98480
2585.53359	0.98481
2583.47668	0.98495
2581.41977	0.98526
2579.36286	0.98563
2577.30595	0.98539
2575.24905	0.98514
2573.19214	0.98549
2571.13523	0.98591
2569.07832	0.98620
2567.02141	0.98623
2564.96450	0.98564
2562.90760	0.98503
2560.85069	0.98559
2558.79378	0.98674
2556.73687	0.98680
2554.67996	0.98609
2552.62306	0.98592
2550.56615	0.98616
2548.50924	0.98627
2546.45233	0.98623
2544.39542	0.98602
2542.33851	0.98570
2540.28161	0.98573
2538.22470	0.98595
2536.16779	0.98583
2534.11088	0.98536
2532.05397	0.98489
2529.99707	0.98473
2527.94016	0.98479
2525.88325	0.98533
2523.82634	0.98618
2521.76943	0.98640
2519.71252	0.98613
2517.65562	0.98578
2515.59871	0.98552
2513.54180	0.98563
2511.48489	0.98584
2509.42798	0.98575
2507.37108	0.98531
2505.31417	0.98510
2503.25726	0.98563
2501.20035	0.98623
2499.14344	0.98636
2497.08653	0.98645
2495.02963	0.98658
2492.97272	0.98635
2490.91581	0.98606
2488.85890	0.98639
2486.80199	0.98708
2484.74509	0.98715
2482.68818	0.98658
2480.63127	0.98633
2478.57436	0.98655
2476.51745	0.98641
2474.46054	0.98561
2472.40364	0.98517
2470.34673	0.98559
2468.28982	0.98566
2466.23291	0.98524
2464.17600	0.98552
2462.11910	0.98648
2460.06219	0.98692
2458.00528	0.98625
2455.94837	0.98518
2453.89146	0.98467
2451.83455	0.98491
2449.77765	0.98566
2447.72074	0.98611
2445.66383	0.98561
2443.60692	0.98510
2441.55001	0.98540
2439.49311	0.98636
2437.43620	0.98747
2435.37929	0.98774
2433.32238	0.98721
2431.26547	0.98683
2429.20856	0.98661
2427.15166	0.98610
2425.09475	0.98550
2423.03784	0.98539
2420.98093	0.98604
2418.92402	0.98715
2416.86712	0.98772
2414.81021	0.98709
2412.75330	0.98595
2410.69639	0.98555
2408.63948	0.98609
2406.58257	0.98694
2404.52567	0.98750
2402.46876	0.98732
2400.41185	0.98688
2398.35494	0.98664
2396.29803	0.98643
2394.24113	0.98635
2392.18422	0.98664
2390.12731	0.98726
2388.07040	0.98756
2386.01349	0.98729
2383.95658	0.98675
2381.89968	0.98644
2379.84277	0.98700
2377.78586	0.98762
2375.72895	0.98720
2373.67204	0.98674
2371.61514	0.98736
2369.55823	0.98779
2367.50132	0.98666
2365.44441	0.98502
2363.38750	0.98496
2361.33059	0.98606
2359.27369	0.98569
2357.21678	0.98453
2355.15987	0.98523
2353.10296	0.98653
2351.04605	0.98636
2348.98915	0.98546
2346.93224	0.98511
2344.87533	0.98528
2342.81842	0.98496
2340.76151	0.98442
2338.70460	0.98469
2336.64770	0.98534
2334.59079	0.98560
2332.53388	0.98546
2330.47697	0.98533
2328.42006	0.98490
2326.36316	0.98375
2324.30625	0.98296
2322.24934	0.98362
2320.19243	0.98519
2318.13552	0.98625
2316.07861	0.98611
2314.02171	0.98558
2311.96480	0.98538
2309.90789	0.98542
2307.85098	0.98577
2305.79407	0.98634
2303.73717	0.98647
2301.68026	0.98632
2299.62335	0.98609
2297.56644	0.98531
2295.50953	0.98449
2293.45262	0.98447
2291.39572	0.98504
2289.33881	0.98545
2287.28190	0.98530
2285.22499	0.98539
2283.16808	0.98629
2281.11117	0.98679
2279.05427	0.98623
2276.99736	0.98501
2274.94045	0.98379
2272.88354	0.98370
2270.82663	0.98492
2268.76973	0.98595
2266.71282	0.98586
2264.65591	0.98615
2262.59900	0.98666
2260.54209	0.98574
2258.48518	0.98527
2256.42828	0.98687
2254.37137	0.98887
2252.31446	0.98943
2250.25755	0.98857
2248.20064	0.98804
2246.14374	0.98777
2244.08683	0.98653
2242.02992	0.98555
2239.97301	0.98580
2237.91610	0.98657
2235.85919	0.98694
2233.80229	0.98667
2231.74538	0.98622
2229.68847	0.98538
2227.63156	0.98477
2225.57465	0.98535
2223.51775	0.98597
2221.46084	0.98603
2219.40393	0.98631
2217.34702	0.98688
2215.29011	0.98738
2213.23320	0.98787
2211.17630	0.98887
2209.11939	0.99027
2207.06248	0.99028
2205.00557	0.98803
2202.94866	0.98592
2200.89176	0.98573
2198.83485	0.98732
2196.77794	0.98886
2194.72103	0.98766
2192.66412	0.98569
2190.60721	0.98513
2188.55031	0.98526
2186.49340	0.98669
2184.43649	0.98832
2182.37958	0.98800
2180.32267	0.98733
2178.26577	0.98833
2176.20886	0.98871
2174.15195	0.98652
2172.09504	0.98449
2170.03813	0.98424
2167.98122	0.98496
2165.92432	0.98580
2163.86741	0.98614
2161.81050	0.98686
2159.75359	0.98819
2157.69668	0.98903
2155.63978	0.98902
2153.58287	0.98872
2151.52596	0.98881
2149.46905	0.98926
2147.41214	0.98994
2145.35523	0.99086
2143.29833	0.99143
2141.24142	0.99032
2139.18451	0.98794
2137.12760	0.98756
2135.07069	0.98964
2133.01379	0.99060
2130.95688	0.99000
2128.89997	0.98919
2126.84306	0.98749
2124.78615	0.98578
2122.72924	0.98544
2120.67234	0.98584
2118.61543	0.98602
2116.55852	0.98583
2114.50161	0.98582
2112.44470	0.98652
2110.38780	0.98702
2108.33089	0.98658
2106.27398	0.98605
2104.21707	0.98637
2102.16016	0.98695
2100.10325	0.98716
2098.04635	0.98795
2095.98944	0.98872
2093.93253	0.98777
2091.87562	0.98636
2089.81871	0.98655
2087.76181	0.98748
2085.70490	0.98751
2083.64799	0.98746
2081.59108	0.98745
2079.53417	0.98675
2077.47726	0.98628
2075.42036	0.98656
2073.36345	0.98708
2071.30654	0.98683
2069.24963	0.98593
2067.19272	0.98618
2065.13582	0.98725
2063.07891	0.98716
2061.02200	0.98656
2058.96509	0.98732
2056.90818	0.98861
2054.85127	0.98836
2052.79437	0.98646
2050.73746	0.98518
2048.68055	0.98573
2046.62364	0.98608
2044.56673	0.98625
2042.50983	0.98707
2040.45292	0.98687
2038.39601	0.98679
2036.33910	0.98913
2034.28219	0.99110
2032.22528	0.99025
2030.16838	0.98930
2028.11147	0.98929
2026.05456	0.98887
2023.99765	0.98887
2021.94074	0.98919
2019.88384	0.98884
2017.82693	0.98842
2015.77002	0.98760
2013.71311	0.98705
2011.65620	0.98795
2009.59929	0.98868
2007.54239	0.98869
2005.48548	0.98852
2003.42857	0.98779
2001.37166	0.98660
1999.31475	0.98594
1997.25785	0.98642
1995.20094	0.98724
1993.14403	0.98748
1991.08712	0.98691
1989.03021	0.98605
1986.97330	0.98514
1984.91640	0.98441
1982.85949	0.98393
1980.80258	0.98431
1978.74567	0.98694
1976.68876	0.99013
1974.63186	0.99264
1972.57495	0.99357
1970.51804	0.99156
1968.46113	0.98942
1966.40422	0.98925
1964.34731	0.98973
1962.29041	0.98927
1960.23350	0.98812
1958.17659	0.98796
1956.11968	0.98865
1954.06277	0.98897
1952.00587	0.98872
1949.94896	0.98837
1947.89205	0.98899
1945.83514	0.98978
1943.77823	0.98927
1941.72132	0.98873
1939.66442	0.98892
1937.60751	0.98862
1935.55060	0.98809
1933.49369	0.98891
1931.43678	0.99042
1929.37988	0.99079
1927.32297	0.98999
1925.26606	0.98914
1923.20915	0.98878
1921.15224	0.98889
1919.09533	0.98898
1917.03843	0.98832
1914.98152	0.98745
1912.92461	0.98752
1910.86770	0.98874
1908.81079	0.98991
1906.75389	0.99001
1904.69698	0.98966
1902.64007	0.98944
1900.58316	0.98915
1898.52625	0.98918
1896.46934	0.98982
1894.41244	0.99000
1892.35553	0.98926
1890.29862	0.98871
1888.24171	0.98879
1886.18480	0.98846
1884.12790	0.98825
1882.07099	0.98946
1880.01408	0.99100
1877.95717	0.99157
1875.90026	0.99106
1873.84335	0.98981
1871.78645	0.98900
1869.72954	0.98922
1867.67263	0.98953
1865.61572	0.98935
1863.55881	0.98943
1861.50191	0.99012
1859.44500	0.99076
1857.38809	0.99072
1855.33118	0.98988
1853.27427	0.98902
1851.21736	0.98896
1849.16046	0.98950
1847.10355	0.99012
1845.04664	0.99056
1842.98973	0.99072
1840.93282	0.99075
1838.87592	0.99079
1836.81901	0.99055
1834.76210	0.99023
1832.70519	0.99040
1830.64828	0.99068
1828.59137	0.99036
1826.53447	0.98990
1824.47756	0.98975
1822.42065	0.98982
1820.36374	0.99003
1818.30683	0.99022
1816.24993	0.99034
1814.19302	0.99019
1812.13611	0.98989
1810.07920	0.98967
1808.02229	0.98960
1805.96538	0.98961
1803.90848	0.98958
1801.85157	0.98950
1799.79466	0.98939
1797.73775	0.98910
1795.68084	0.98871
1793.62394	0.98846
1791.56703	0.98808
1789.51012	0.98766
1787.45321	0.98742
1785.39630	0.98710
1783.33939	0.98634
1781.28249	0.98515
1779.22558	0.98404
1777.16867	0.98326
1775.11176	0.98219
1773.05485	0.97997
1770.99795	0.97654
1768.94104	0.97279
1766.88413	0.96812
1764.82722	0.96218
1762.77031	0.95480
1760.71340	0.94664
1758.65650	0.93955
1756.59959	0.93223
1754.54268	0.92546
1752.48577	0.92019
1750.42886	0.91455
1748.37196	0.90832
1746.31505	0.90293
1744.25814	0.89845
1742.20123	0.89480
1740.14432	0.89172
1738.08741	0.88985
1736.03051	0.88931
1733.97360	0.88825
1731.91669	0.88743
1729.85978	0.88839
1727.80287	0.89030
1725.74597	0.89305
1723.68906	0.89683
1721.63215	0.90120
1719.57524	0.90584
1717.51833	0.91133
1715.46142	0.91744
1713.40452	0.92290
1711.34761	0.92809
1709.29070	0.93335
1707.23379	0.93852
1705.17688	0.94339
1703.11998	0.94732
1701.06307	0.95078
1699.00616	0.95428
1696.94925	0.95729
1694.89234	0.95969
1692.83543	0.96129
1690.77853	0.96275
1688.72162	0.96440
1686.66471	0.96590
1684.60780	0.96728
1682.55089	0.96851
1680.49399	0.96934
1678.43708	0.96994
1676.38017	0.97038
1674.32326	0.97077
1672.26635	0.97140
1670.20944	0.97205
1668.15254	0.97229
1666.09563	0.97260
1664.03872	0.97311
1661.98181	0.97323
1659.92490	0.97315
1657.86800	0.97332
1655.81109	0.97341
1653.75418	0.97307
1651.69727	0.97269
1649.64036	0.97267
1647.58345	0.97244
1645.52655	0.97236
1643.46964	0.97275
1641.41273	0.97317
1639.35582	0.97369
1637.29891	0.97426
1635.24201	0.97412
1633.18510	0.97348
1631.12819	0.97335
1629.07128	0.97373
1627.01437	0.97411
1624.95746	0.97414
1622.90056	0.97433
1620.84365	0.97499
1618.78674	0.97558
1616.72983	0.97596
1614.67292	0.97648
1612.61602	0.97705
1610.55911	0.97754
1608.50220	0.97803
1606.44529	0.97850
1604.38838	0.97896
1602.33147	0.97944
1600.27457	0.97976
1598.21766	0.97988
1596.16075	0.97996
1594.10384	0.98013
1592.04693	0.98040
1589.99003	0.98070
1587.93312	0.98094
1585.87621	0.98117
1583.81930	0.98150
1581.76239	0.98187
1579.70548	0.98200
1577.64858	0.98179
1575.59167	0.98143
1573.53476	0.98147
1571.47785	0.98174
1569.42094	0.98206
1567.36404	0.98240
1565.30713	0.98253
1563.25022	0.98252
1561.19331	0.98261
1559.13640	0.98271
1557.07949	0.98282
1555.02259	0.98312
1552.96568	0.98329
1550.90877	0.98324
1548.85186	0.98336
1546.79495	0.98390
1544.73805	0.98449
1542.68114	0.98470
1540.62423	0.98454
1538.56732	0.98422
1536.51041	0.98417
1534.45350	0.98430
1532.39660	0.98419
1530.33969	0.98403
1528.28278	0.98412
1526.22587	0.98415
1524.16896	0.98387
1522.11206	0.98365
1520.05515	0.98403
1517.99824	0.98423
1515.94133	0.98385
1513.88442	0.98366
1511.82751	0.98393
1509.77061	0.98434
1507.71370	0.98441
1505.65679	0.98399
1503.59988	0.98392
1501.54297	0.98417
1499.48607	0.98437
1497.42916	0.98432
1495.37225	0.98413
1493.31534	0.98414
1491.25843	0.98441
1489.20152	0.98463
1487.14462	0.98460
1485.08771	0.98447
1483.03080	0.98425
1480.97389	0.98389
1478.91698	0.98366
1476.86008	0.98372
1474.80317	0.98367
1472.74626	0.98286
1470.68935	0.98167
1468.63244	0.98085
1466.57553	0.97999
1464.51863	0.97889
1462.46172	0.97800
1460.40481	0.97735
1458.34790	0.97656
1456.29099	0.97546
1454.23409	0.97440
1452.17718	0.97357
1450.12027	0.97288
1448.06336	0.97202
1446.00645	0.97083
1443.94954	0.96968
1441.89264	0.96892
1439.83573	0.96833
1437.77882	0.96747
1435.72191	0.96648
1433.66500	0.96608
1431.60810	0.96627
1429.55119	0.96674
1427.49428	0.96714
1425.43737	0.96760
1423.38046	0.96858
1421.32355	0.96989
1419.26665	0.97055
1417.20974	0.97050
1415.15283	0.97079
1413.09592	0.97144
1411.03901	0.97215
1408.98211	0.97271
1406.92520	0.97302
1404.86829	0.97315
1402.81138	0.97312
1400.75447	0.97279
1398.69756	0.97200
1396.64066	0.97105
1394.58375	0.96972
1392.52684	0.96753
1390.46993	0.96484
1388.41302	0.96165
1386.35612	0.95784
1384.29921	0.95393
1382.24230	0.94977
1380.18539	0.94531
1378.12848	0.94123
1376.07157	0.93742
1374.01467	0.93294
1371.95776	0.92858
1369.90085	0.92574
1367.84394	0.92454
1365.78703	0.92514
1363.73013	0.92803
1361.67322	0.93349
1359.61631	0.94030
1357.55940	0.94719
1355.50249	0.95359
1353.44558	0.95894
1351.38868	0.96308
1349.33177	0.96613
1347.27486	0.96826
1345.21795	0.96970
1343.16104	0.97068
1341.10414	0.97148
1339.04723	0.97208
1336.99032	0.97232
1334.93341	0.97240
1332.87650	0.97254
1330.81959	0.97292
1328.76269	0.97325
1326.70578	0.97307
1324.64887	0.97264
1322.59196	0.97244
1320.53505	0.97240
1318.47815	0.97231
1316.42124	0.97240
1314.36433	0.97279
1312.30742	0.97316
1310.25051	0.97330
1308.19360	0.97334
1306.13670	0.97340
1304.07979	0.97348
1302.02288	0.97341
1299.96597	0.97300
1297.90906	0.97248
1295.85216	0.97194
1293.79525	0.97106
1291.73834	0.96991
1289.68143	0.96889
1287.62452	0.96789
1285.56761	0.96639
1283.51071	0.96450
1281.45380	0.96250
1279.39689	0.96030
1277.33998	0.95788
1275.28307	0.95522
1273.22617	0.95218
1271.16926	0.94900
1269.11235	0.94598
1267.05544	0.94269
1264.99853	0.93869
1262.94162	0.93429
1260.88472	0.92982
1258.82781	0.92515
1256.77090	0.92015
1254.71399	0.91495
1252.65708	0.90976
1250.60018	0.90464
1248.54327	0.89915
1246.48636	0.89325
1244.42945	0.88758
1242.37254	0.88214
1240.31563	0.87654
1238.25873	0.87090
1236.20182	0.86548
1234.14491	0.86050
1232.08800	0.85590
1230.03109	0.85153
1227.97419	0.84769
1225.91728	0.84469
1223.86037	0.84249
1221.80346	0.84099
1219.74655	0.84021
1217.68964	0.84024
1215.63274	0.84107
1213.57583	0.84306
1211.51892	0.84668
1209.46201	0.85174
1207.40510	0.85819
1205.34820	0.86629
1203.29129	0.87554
1201.23438	0.88527
1199.17747	0.89529
1197.12056	0.90496
1195.06365	0.91351
1193.00675	0.92059
1190.94984	0.92616
1188.89293	0.93055
1186.83602	0.93389
1184.77911	0.93581
1182.72221	0.93643
1180.66530	0.93639
1178.60839	0.93598
1176.55148	0.93523
1174.49457	0.93415
1172.43766	0.93299
1170.38076	0.93202
1168.32385	0.93094
1166.26694	0.92971
1164.21003	0.92899
1162.15312	0.92908
1160.09622	0.92967
1158.03931	0.93059
1155.98240	0.93171
1153.92549	0.93304
1151.86858	0.93483
1149.81167	0.93680
1147.75477	0.93827
1145.69786	0.93918
1143.64095	0.93958
1141.58404	0.93944
1139.52713	0.93896
1137.47023	0.93810
1135.41332	0.93692
1133.35641	0.93557
1131.29950	0.93376
1129.24259	0.93151
1127.18568	0.92975
1125.12878	0.92903
1123.07187	0.92877
1121.01496	0.92836
1118.95805	0.92789
1116.90114	0.92741
1114.84424	0.92714
1112.78733	0.92703
1110.73042	0.92651
1108.67351	0.92587
1106.61660	0.92566
1104.55969	0.92512
1102.50279	0.92386
1100.44588	0.92249
1098.38897	0.92086
1096.33206	0.91885
1094.27515	0.91685
1092.21825	0.91487
1090.16134	0.91283
1088.10443	0.91022
1086.04752	0.90666
1083.99061	0.90263
1081.93370	0.89876
1079.87680	0.89541
1077.81989	0.89246
1075.76298	0.88940
1073.70607	0.88628
1071.64916	0.88339
1069.59226	0.88077
1067.53535	0.87815
1065.47844	0.87527
1063.42153	0.87215
1061.36462	0.86857
1059.30771	0.86470
1057.25081	0.86105
1055.19390	0.85734
1053.13699	0.85331
1051.08008	0.84931
1049.02317	0.84559
1046.96627	0.84205
1044.90936	0.83873
1042.85245	0.83575
1040.79554	0.83273
1038.73863	0.82942
1036.68172	0.82619
1034.62482	0.82345
1032.56791	0.82126
1030.51100	0.81960
1028.45409	0.81870
1026.39718	0.81899
1024.34028	0.82022
1022.28337	0.82213
1020.22646	0.82510
1018.16955	0.82916
1016.11264	0.83351
1014.05573	0.83764
1011.99883	0.84172
1009.94192	0.84596
1007.88501	0.85029
1005.82810	0.85448
1003.77119	0.85853
1001.71429	0.86238
999.65738	0.86588
997.60047	0.86934
995.54356	0.87273
993.48665	0.87575
991.42974	0.87862
989.37284	0.88131
987.31593	0.88350
985.25902	0.88534
983.20211	0.88720
981.14520	0.88918
979.08830	0.89111
977.03139	0.89318
974.97448	0.89592
972.91757	0.89947
970.86066	0.90304
968.80375	0.90610
966.74685	0.90883
964.68994	0.91132
962.63303	0.91333
960.57612	0.91460
958.51921	0.91564
956.46231	0.91710
954.40540	0.91868
952.34849	0.91983
950.29158	0.92082
948.23467	0.92198
946.17776	0.92319
944.12086	0.92455
942.06395	0.92608
940.00704	0.92737
937.95013	0.92824
935.89322	0.92903
933.83632	0.92971
931.77941	0.93010
929.72250	0.93033
927.66559	0.93035
925.60868	0.92971
923.55177	0.92845
921.49487	0.92734
919.43796	0.92647
917.38105	0.92575
915.32414	0.92532
913.26723	0.92458
911.21033	0.92322
909.15342	0.92191
907.09651	0.92098
905.03960	0.92021
902.98269	0.91958
900.92578	0.91935
898.86888	0.91962
896.81197	0.92016
894.75506	0.92105
892.69815	0.92280
890.64124	0.92500
888.58434	0.92669
886.52743	0.92795
884.47052	0.92921
882.41361	0.93033
880.35670	0.93126
878.29979	0.93225
876.24289	0.93364
874.18598	0.93546
872.12907	0.93728
870.07216	0.93873
868.01525	0.94018
865.95835	0.94224
863.90144	0.94445
861.84453	0.94565
859.78762	0.94600
857.73071	0.94669
855.67380	0.94808
853.61690	0.94894
851.55999	0.94882
849.50308	0.94866
847.44617	0.94883
845.38926	0.94912
843.33236	0.94860
841.27545	0.94722
839.21854	0.94615
837.16163	0.94583
835.10472	0.94607
833.04781	0.94675
830.99091	0.94794
828.93400	0.94953
826.87709	0.95128
824.82018	0.95279
822.76327	0.95336
820.70637	0.95351
818.64946	0.95414
816.59255	0.95465
814.53564	0.95470
812.47873	0.95494
810.42182	0.95544
808.36492	0.95579
806.30801	0.95637
804.25110	0.95742
802.19419	0.95817
800.13728	0.95802
798.08038	0.95759
796.02347	0.95763
793.96656	0.95794
791.90965	0.95833
789.85274	0.95859
787.79583	0.95866
785.73893	0.95871
783.68202	0.95875
781.62511	0.95864
779.56820	0.95834
777.51129	0.95838
775.45439	0.95902
773.39748	0.95922
771.34057	0.95874
769.28366	0.95845
767.22675	0.95892
765.16984	0.95992
763.11294	0.96029
761.05603	0.95975
758.99912	0.95949
756.94221	0.95997
754.88530	0.96051
752.82839	0.96073
750.77149	0.96114
748.71458	0.96217
746.65767	0.96262
744.60076	0.96185
742.54385	0.96131
740.48695	0.96136
738.43004	0.96116
736.37313	0.96040
734.31622	0.95953
732.25931	0.95953
730.20240	0.96012
728.14550	0.96017
726.08859	0.95927
724.03168	0.95830
721.97477	0.95843
719.91786	0.95912
717.86096	0.95869
715.80405	0.95738
713.74714	0.95684
711.69023	0.95680
709.63332	0.95626
707.57641	0.95588
705.51951	0.95619
703.46260	0.95643
701.40569	0.95615
699.34878	0.95585
697.29187	0.95556
695.23497	0.95527
693.17806	0.95504
691.12115	0.95412
689.06424	0.95269
687.00733	0.95224
684.95042	0.95296
682.89352	0.95331
680.83661	0.95241
678.77970	0.95141
676.72279	0.95157
674.66588	0.95224
672.60898	0.95240
670.55207	0.95218
668.49516	0.95136
666.43825	0.95036
664.38134	0.95057
662.32443	0.95090
660.26753	0.95012
658.21062	0.94896
656.15371	0.94812
654.09680	0.94746
652.03989	0.94762
649.98299	0.94854
647.92608	0.94860
645.86917	0.94701
643.81226	0.94520
641.75535	0.94432
639.69844	0.94367
637.64154	0.94259
635.58463	0.94140
633.52772	0.94097
631.47081	0.94171
629.41390	0.94178
627.35700	0.93980
625.30009	0.93781
623.24318	0.93759
621.18627	0.93787
619.12936	0.93684
617.07245	0.93439
615.01555	0.93154
612.95864	0.92900
610.90173	0.92581
608.84482	0.92161
606.78791	0.91843
604.73101	0.91653
602.67410	0.91477
600.61719	0.91409
598.56028	0.91554
596.50337	0.91854
594.44646	0.92161
592.38956	0.92300
590.33265	0.92360
588.27574	0.92629
586.21883	0.93004
584.16192	0.93163
582.10502	0.93162
580.04811	0.93248
577.99120	0.93427
575.93429	0.93493
573.87738	0.93325
571.82047	0.93187
569.76357	0.93241
567.70666	0.93258
565.64975	0.93066
563.59284	0.92845
561.53593	0.92885
559.47903	0.93029
557.42212	0.92930
555.36521	0.92690
553.30830	0.92684
551.25139	0.92947
549.19448	0.93099
547.13758	0.92994
545.08067	0.92892
543.02376	0.93045
540.96685	0.93322
538.90994	0.93360
536.85304	0.93135
534.79613	0.92960
532.73922	0.93056
530.68231	0.93155
528.62540	0.92945
526.56849	0.92765
524.51159	0.92977
522.45468	0.93188
520.39777	0.93032
518.34086	0.92809
516.28395	0.92866
514.22705	0.92889
512.17014	0.92604
510.11323	0.92379
508.05632	0.92504
505.99941	0.92705
503.94250	0.92579
501.88560	0.92231
499.82869	0.92135
497.77178	0.92280
495.71487	0.92295
493.65796	0.92144
491.60106	0.92088
489.54415	0.92162
487.48724	0.92210
485.43033	0.92127
483.37342	0.92019
481.31651	0.92140
479.25961	0.92252
477.20270	0.91949
475.14579	0.91415
473.08888	0.91164
471.03197	0.91445
468.97507	0.91756
466.91816	0.91631
464.86125	0.91397
462.80434	0.91343
460.74743	0.91290
458.69052	0.91097
456.63362	0.90963
454.57671	0.91207
452.51980	0.91522
450.46289	0.91314
448.40598	0.90861
446.34908	0.90867
444.29217	0.91238
442.23526	0.91131
440.17835	0.90429
438.12144	0.90083
436.06453	0.90536
434.00763	0.91125
431.95072	0.91076
429.89381	0.90776
427.83690	0.91102
425.77999	0.91832
423.72309	0.91809
421.66618	0.91124
419.60927	0.91032
417.55236	0.91551
415.49545	0.91720
413.43854	0.91467
411.38164	0.91094
409.32473	0.91134
407.26782	0.91405
405.21091	0.91341
403.15400	0.91121
401.09710	0.91036
399.04019	0.91075
