3996.57260	0.99236
3994.51569	0.99190
3992.45878	0.99205
3990.40188	0.99260
3988.34497	0.99304
3986.28806	0.99281
3984.23115	0.99170
3982.17424	0.99117
3980.11733	0.99196
3978.06043	0.99245
3976.00352	0.99184
3973.94661	0.99129
3971.88970	0.99149
3969.83279	0.99133
3967.77589	0.99086
3965.71898	0.99137
3963.66207	0.99233
3961.60516	0.99281
3959.54825	0.99296
3957.49134	0.99276
3955.43444	0.99239
3953.37753	0.99260
3951.32062	0.99319
3949.26371	0.99321
3947.20680	0.99276
3945.14990	0.99255
3943.09299	0.99259
3941.03608	0.99237
3938.97917	0.99189
3936.92226	0.99149
3934.86535	0.99107
3932.80845	0.99064
3930.75154	0.99095
3928.69463	0.99194
3926.63772	0.99267
3924.58081	0.99270
3922.52391	0.99226
3920.46700	0.99174
3918.41009	0.99155
3916.35318	0.99208
3914.29627	0.99283
3912.23936	0.99327
3910.18246	0.99344
3908.12555	0.99294
3906.06864	0.99190
3904.01173	0.99150
3901.95482	0.99209
3899.89792	0.99291
3897.84101	0.99283
3895.78410	0.99189
3893.72719	0.99136
3891.67028	0.99158
3889.61337	0.99221
3887.55647	0.99295
3885.49956	0.99310
3883.44265	0.99217
3881.38574	0.99161
3879.32883	0.99198
3877.27193	0.99220
3875.21502	0.99222
3873.15811	0.99213
3871.10120	0.99225
3869.04429	0.99319
3866.98738	0.99377
3864.93048	0.99304
3862.87357	0.99209
3860.81666	0.99243
3858.75975	0.99344
3856.70284	0.99340
3854.64594	0.99169
3852.58903	0.99095
3850.53212	0.99226
3848.47521	0.99276
3846.41830	0.99229
3844.36139	0.99175
3842.30449	0.99202
3840.24758	0.99301
3838.19067	0.99321
3836.13376	0.99183
3834.07685	0.99061
3832.01995	0.99076
3829.96304	0.99160
3827.90613	0.99223
3825.84922	0.99266
3823.79231	0.99270
3821.73540	0.99187
3819.67850	0.99112
3817.62159	0.99150
3815.56468	0.99199
3813.50777	0.99211
3811.45086	0.99205
3809.39396	0.99183
3807.33705	0.99200
3805.28014	0.99261
3803.22323	0.99296
3801.16632	0.99277
3799.10941	0.99192
3797.05251	0.99129
3794.99560	0.99144
3792.93869	0.99172
3790.88178	0.99187
3788.82487	0.99212
3786.76796	0.99239
3784.71106	0.99250
3782.65415	0.99209
3780.59724	0.99133
3778.54033	0.99075
3776.48342	0.99046
3774.42652	0.99042
3772.36961	0.99085
3770.31270	0.99159
3768.25579	0.99202
3766.19888	0.99210
3764.14197	0.99260
3762.08507	0.99329
3760.02816	0.99321
3757.97125	0.99246
3755.91434	0.99204
3753.85743	0.99222
3751.80053	0.99231
3749.74362	0.99195
3747.68671	0.99217
3745.62980	0.99285
3743.57289	0.99298
3741.51598	0.99249
3739.45908	0.99190
3737.40217	0.99128
3735.34526	0.99125
3733.28835	0.99178
3731.23144	0.99207
3729.17454	0.99258
3727.11763	0.99332
3725.06072	0.99341
3723.00381	0.99287
3720.94690	0.99266
3718.88999	0.99263
3716.83309	0.99204
3714.77618	0.99132
3712.71927	0.99098
3710.66236	0.99109
3708.60545	0.99165
3706.54855	0.99197
3704.49164	0.99209
3702.43473	0.99227
3700.37782	0.99221
3698.32091	0.99219
3696.26400	0.99241
3694.20710	0.99265
3692.15019	0.99279
3690.09328	0.99250
3688.03637	0.99198
3685.97946	0.99203
3683.92256	0.99228
3681.86565	0.99214
3679.80874	0.99209
3677.75183	0.99255
3675.69492	0.99265
3673.63801	0.99211
3671.58111	0.99186
3669.52420	0.99180
3667.46729	0.99164
3665.41038	0.99167
3663.35347	0.99199
3661.29657	0.99203
3659.23966	0.99141
3657.18275	0.99023
3655.12584	0.98937
3653.06893	0.98936
3651.01202	0.98915
3648.95512	0.98853
3646.89821	0.98857
3644.84130	0.98902
3642.78439	0.98932
3640.72748	0.98968
3638.67058	0.99033
3636.61367	0.99081
3634.55676	0.99091
3632.49985	0.99115
3630.44294	0.99150
3628.38603	0.99142
3626.32913	0.99088
3624.27222	0.99055
3622.21531	0.99066
3620.15840	0.99072
3618.10149	0.99010
3616.04459	0.98931
3613.98768	0.98896
3611.93077	0.98875
3609.87386	0.98877
3607.81695	0.98913
3605.76004	0.98927
3603.70314	0.98935
3601.64623	0.98928
3599.58932	0.98897
3597.53241	0.98883
3595.47550	0.98883
3593.41860	0.98896
3591.36169	0.98899
3589.30478	0.98850
3587.24787	0.98813
3585.19096	0.98880
3583.13405	0.98939
3581.07715	0.98886
3579.02024	0.98777
3576.96333	0.98729
3574.90642	0.98770
3572.84951	0.98816
3570.79261	0.98812
3568.73570	0.98784
3566.67879	0.98762
3564.62188	0.98760
3562.56497	0.98760
3560.50806	0.98765
3558.45116	0.98780
3556.39425	0.98797
3554.33734	0.98794
3552.28043	0.98771
3550.22352	0.98759
3548.16662	0.98745
3546.10971	0.98683
3544.05280	0.98586
3541.99589	0.98570
3539.93898	0.98623
3537.88207	0.98620
3535.82517	0.98552
3533.76826	0.98489
3531.71135	0.98475
3529.65444	0.98541
3527.59753	0.98616
3525.54063	0.98605
3523.48372	0.98578
3521.42681	0.98579
3519.36990	0.98558
3517.31299	0.98518
3515.25608	0.98497
3513.19918	0.98492
3511.14227	0.98454
3509.08536	0.98408
3507.02845	0.98410
3504.97154	0.98414
3502.91464	0.98382
3500.85773	0.98348
3498.80082	0.98325
3496.74391	0.98335
3494.68700	0.98377
3492.63009	0.98382
3490.57319	0.98357
3488.51628	0.98355
3486.45937	0.98328
3484.40246	0.98269
3482.34555	0.98279
3480.28865	0.98365
3478.23174	0.98433
3476.17483	0.98424
3474.11792	0.98367
3472.06101	0.98333
3470.00410	0.98348
3467.94720	0.98357
3465.89029	0.98327
3463.83338	0.98321
3461.77647	0.98339
3459.71956	0.98346
3457.66266	0.98379
3455.60575	0.98409
3453.54884	0.98394
3451.49193	0.98408
3449.43502	0.98454
3447.37811	0.98505
3445.32121	0.98545
3443.26430	0.98531
3441.20739	0.98499
3439.15048	0.98473
3437.09357	0.98449
3435.03667	0.98457
3432.97976	0.98469
3430.92285	0.98434
3428.86594	0.98392
3426.80903	0.98380
3424.75212	0.98379
3422.69522	0.98393
3420.63831	0.98420
3418.58140	0.98472
3416.52449	0.98539
3414.46758	0.98582
3412.41068	0.98599
3410.35377	0.98609
3408.29686	0.98618
3406.23995	0.98615
3404.18304	0.98615
3402.12613	0.98646
3400.06923	0.98671
3398.01232	0.98667
3395.95541	0.98663
3393.89850	0.98656
3391.84159	0.98626
3389.78469	0.98610
3387.72778	0.98625
3385.67087	0.98635
3383.61396	0.98624
3381.55705	0.98629
3379.50014	0.98679
3377.44324	0.98732
3375.38633	0.98754
3373.32942	0.98744
3371.27251	0.98708
3369.21560	0.98708
3367.15870	0.98750
3365.10179	0.98779
3363.04488	0.98792
3360.98797	0.98776
3358.93106	0.98718
3356.87415	0.98685
3354.81725	0.98717
3352.76034	0.98752
3350.70343	0.98763
3348.64652	0.98770
3346.58961	0.98774
3344.53271	0.98770
3342.47580	0.98757
3340.41889	0.98748
3338.36198	0.98794
3336.30507	0.98875
3334.24816	0.98878
3332.19126	0.98810
3330.13435	0.98782
3328.07744	0.98813
3326.02053	0.98820
3323.96362	0.98791
3321.90672	0.98783
3319.84981	0.98786
3317.79290	0.98763
3315.73599	0.98763
3313.67908	0.98828
3311.62217	0.98875
3309.56527	0.98849
3307.50836	0.98825
3305.45145	0.98821
3303.39454	0.98791
3301.33763	0.98765
3299.28073	0.98790
3297.22382	0.98837
3295.16691	0.98852
3293.11000	0.98838
3291.05309	0.98855
3288.99618	0.98888
3286.93928	0.98890
3284.88237	0.98903
3282.82546	0.98911
3280.76855	0.98895
3278.71164	0.98877
3276.65474	0.98838
3274.59783	0.98786
3272.54092	0.98773
3270.48401	0.98798
3268.42710	0.98806
3266.37019	0.98803
3264.31329	0.98836
3262.25638	0.98888
3260.19947	0.98925
3258.14256	0.98930
3256.08565	0.98915
3254.02875	0.98897
3251.97184	0.98878
3249.91493	0.98856
3247.85802	0.98869
3245.80111	0.98910
3243.74420	0.98956
3241.68730	0.99015
3239.63039	0.99035
3237.57348	0.98978
3235.51657	0.98925
3233.45966	0.98931
3231.40276	0.98956
3229.34585	0.98984
3227.28894	0.99009
3225.23203	0.99043
3223.17512	0.99066
3221.11821	0.98997
3219.06131	0.98858
3217.00440	0.98803
3214.94749	0.98886
3212.89058	0.98978
3210.83367	0.98985
3208.77677	0.98960
3206.71986	0.98959
3204.66295	0.98971
3202.60604	0.98998
3200.54913	0.99027
3198.49222	0.99014
3196.43532	0.98972
3194.37841	0.98941
3192.32150	0.98943
3190.26459	0.98963
3188.20768	0.98982
3186.15078	0.99000
3184.09387	0.99019
3182.03696	0.99045
3179.98005	0.99090
3177.92314	0.99130
3175.86623	0.99122
3173.80933	0.99083
3171.75242	0.99057
3169.69551	0.99037
3167.63860	0.99005
3165.58169	0.98998
3163.52479	0.99005
3161.46788	0.98958
3159.41097	0.98899
3157.35406	0.98916
3155.29715	0.98966
3153.24024	0.98978
3151.18334	0.98993
3149.12643	0.99051
3147.06952	0.99081
3145.01261	0.99067
3142.95570	0.99066
3140.89880	0.99062
3138.84189	0.99041
3136.78498	0.99035
3134.72807	0.99038
3132.67116	0.99009
3130.61425	0.98987
3128.55735	0.99020
3126.50044	0.99055
3124.44353	0.99045
3122.38662	0.99035
3120.32971	0.99072
3118.27281	0.99104
3116.21590	0.99088
3114.15899	0.99071
3112.10208	0.99081
3110.04517	0.99097
3107.98826	0.99112
3105.93136	0.99093
3103.87445	0.99038
3101.81754	0.99018
3099.76063	0.99040
3097.70372	0.99055
3095.64682	0.99051
3093.58991	0.99045
3091.53300	0.99048
3089.47609	0.99068
3087.41918	0.99084
3085.36227	0.99084
3083.30537	0.99081
3081.24846	0.99066
3079.19155	0.99048
3077.13464	0.99053
3075.07773	0.99085
3073.02083	0.99097
3070.96392	0.99072
3068.90701	0.99063
3066.85010	0.99069
3064.79319	0.99058
3062.73628	0.99046
3060.67938	0.99070
3058.62247	0.99106
3056.56556	0.99104
3054.50865	0.99065
3052.45174	0.99025
3050.39484	0.99018
3048.33793	0.99040
3046.28102	0.99053
3044.22411	0.99047
3042.16720	0.99053
3040.11029	0.99076
3038.05339	0.99065
3035.99648	0.99034
3033.93957	0.99032
3031.88266	0.99053
3029.82575	0.99061
3027.76885	0.99016
3025.71194	0.98959
3023.65503	0.98948
3021.59812	0.98938
3019.54121	0.98887
3017.48430	0.98837
3015.42740	0.98823
3013.37049	0.98833
3011.31358	0.98848
3009.25667	0.98848
3007.19976	0.98863
3005.14286	0.98908
3003.08595	0.98919
3001.02904	0.98881
2998.97213	0.98856
2996.91522	0.98858
2994.85831	0.98882
2992.80141	0.98874
2990.74450	0.98800
2988.68759	0.98748
2986.63068	0.98750
2984.57377	0.98762
2982.51687	0.98771
2980.45996	0.98776
2978.40305	0.98781
2976.34614	0.98786
2974.28923	0.98769
2972.23232	0.98718
2970.17542	0.98694
2968.11851	0.98727
2966.06160	0.98748
2964.00469	0.98720
2961.94778	0.98671
2959.89088	0.98646
2957.83397	0.98656
2955.77706	0.98657
2953.72015	0.98624
2951.66324	0.98588
2949.60633	0.98574
2947.54943	0.98565
2945.49252	0.98556
2943.43561	0.98575
2941.37870	0.98603
2939.32179	0.98592
2937.26489	0.98562
2935.20798	0.98548
2933.15107	0.98532
2931.09416	0.98505
2929.03725	0.98510
2926.98034	0.98577
2924.92344	0.98657
2922.86653	0.98676
2920.80962	0.98643
2918.75271	0.98630
2916.69580	0.98647
2914.63890	0.98653
2912.58199	0.98651
2910.52508	0.98642
2908.46817	0.98649
2906.41126	0.98682
2904.35435	0.98704
2902.29745	0.98702
2900.24054	0.98684
2898.18363	0.98652
2896.12672	0.98624
2894.06981	0.98603
2892.01291	0.98601
2889.95600	0.98628
2887.89909	0.98654
2885.84218	0.98650
2883.78527	0.98610
2881.72836	0.98575
2879.67146	0.98611
2877.61455	0.98678
2875.55764	0.98703
2873.50073	0.98703
2871.44382	0.98720
2869.38692	0.98763
2867.33001	0.98792
2865.27310	0.98779
2863.21619	0.98761
2861.15928	0.98765
2859.10237	0.98808
2857.04547	0.98866
2854.98856	0.98890
2852.93165	0.98873
2850.87474	0.98846
2848.81783	0.98855
2846.76093	0.98872
2844.70402	0.98846
2842.64711	0.98846
2840.59020	0.98906
2838.53329	0.98940
2836.47638	0.98919
2834.41948	0.98899
2832.36257	0.98904
2830.30566	0.98925
2828.24875	0.98947
2826.19184	0.98958
2824.13494	0.98965
2822.07803	0.98973
2820.02112	0.98976
2817.96421	0.98974
2815.90730	0.98957
2813.85039	0.98927
2811.79349	0.98915
2809.73658	0.98937
2807.67967	0.98977
2805.62276	0.99022
2803.56585	0.99027
2801.50895	0.98969
2799.45204	0.98927
2797.39513	0.98938
2795.33822	0.98968
2793.28131	0.98999
2791.22440	0.99007
2789.16750	0.99014
2787.11059	0.99038
2785.05368	0.99036
2782.99677	0.98990
2780.93986	0.98938
2778.88296	0.98924
2776.82605	0.98943
2774.76914	0.98948
2772.71223	0.98930
2770.65532	0.98922
2768.59841	0.98955
2766.54151	0.99001
2764.48460	0.99012
2762.42769	0.99006
2760.37078	0.99022
2758.31387	0.99038
2756.25697	0.99010
2754.20006	0.98984
2752.14315	0.99013
2750.08624	0.99033
2748.02933	0.99013
2745.97242	0.99000
2743.91552	0.99001
2741.85861	0.99007
2739.80170	0.99009
2737.74479	0.98983
2735.68788	0.98957
2733.63098	0.98985
2731.57407	0.99038
2729.51716	0.99068
2727.46025	0.99059
2725.40334	0.99009
2723.34643	0.98959
2721.28953	0.98955
2719.23262	0.98992
2717.17571	0.99036
2715.11880	0.99052
2713.06189	0.99038
2711.00499	0.99015
2708.94808	0.99013
2706.89117	0.99047
2704.83426	0.99073
2702.77735	0.99048
2700.72044	0.98998
2698.66354	0.98965
2696.60663	0.98959
2694.54972	0.98981
2692.49281	0.99019
2690.43590	0.99036
2688.37900	0.99017
2686.32209	0.98982
2684.26518	0.98960
2682.20827	0.98981
2680.15136	0.99023
2678.09445	0.99056
2676.03755	0.99088
2673.98064	0.99112
2671.92373	0.99109
2669.86682	0.99072
2667.80991	0.99022
2665.75301	0.99005
2663.69610	0.99010
2661.63919	0.98992
2659.58228	0.98972
2657.52537	0.98974
2655.46846	0.98983
2653.41156	0.98972
2651.35465	0.98939
2649.29774	0.98940
2647.24083	0.98993
2645.18392	0.99036
2643.12702	0.99016
2641.07011	0.98966
2639.01320	0.98949
2636.95629	0.98956
2634.89938	0.98946
2632.84247	0.98917
2630.78557	0.98903
2628.72866	0.98911
2626.67175	0.98908
2624.61484	0.98900
2622.55793	0.98921
2620.50103	0.98962
2618.44412	0.98985
2616.38721	0.98984
2614.33030	0.98993
2612.27339	0.99054
2610.21648	0.99118
2608.15958	0.99086
2606.10267	0.98995
2604.04576	0.98982
2601.98885	0.99065
2599.93194	0.99109
2597.87504	0.99069
2595.81813	0.99037
2593.76122	0.99051
2591.70431	0.99062
2589.64740	0.99056
2587.59049	0.99050
2585.53359	0.99042
2583.47668	0.99016
2581.41977	0.98991
2579.36286	0.99023
2577.30595	0.99096
2575.24905	0.99147
2573.19214	0.99155
2571.13523	0.99164
2569.07832	0.99209
2567.02141	0.99229
2564.96450	0.99207
2562.90760	0.99198
2560.85069	0.99198
2558.79378	0.99181
2556.73687	0.99152
2554.67996	0.99124
2552.62306	0.99127
2550.56615	0.99170
2548.50924	0.99199
2546.45233	0.99189
2544.39542	0.99196
2542.33851	0.99248
2540.28161	0.99294
2538.22470	0.99300
2536.16779	0.99278
2534.11088	0.99264
2532.05397	0.99286
2529.99707	0.99290
2527.94016	0.99232
2525.88325	0.99148
2523.82634	0.99074
2521.76943	0.99043
2519.71252	0.99053
2517.65562	0.99048
2515.59871	0.99037
2513.54180	0.99046
2511.48489	0.99065
2509.42798	0.99102
2507.37108	0.99146
2505.31417	0.99174
2503.25726	0.99221
2501.20035	0.99282
2499.14344	0.99284
2497.08653	0.99234
2495.02963	0.99189
2492.97272	0.99146
2490.91581	0.99144
2488.85890	0.99208
2486.80199	0.99263
2484.74509	0.99265
2482.68818	0.99227
2480.63127	0.99157
2478.57436	0.99095
2476.51745	0.99061
2474.46054	0.99041
2472.40364	0.99068
2470.34673	0.99145
2468.28982	0.99203
2466.23291	0.99207
2464.17600	0.99183
2462.11910	0.99161
2460.06219	0.99139
2458.00528	0.99125
2455.94837	0.99120
2453.89146	0.99080
2451.83455	0.99024
2449.77765	0.99016
2447.72074	0.99031
2445.66383	0.99090
2443.60692	0.99176
2441.55001	0.99217
2439.49311	0.99238
2437.43620	0.99229
2435.37929	0.99199
2433.32238	0.99215
2431.26547	0.99247
2429.20856	0.99257
2427.15166	0.99227
2425.09475	0.99163
2423.03784	0.99154
2420.98093	0.99193
2418.92402	0.99202
2416.86712	0.99189
2414.81021	0.99156
2412.75330	0.99118
2410.69639	0.99118
2408.63948	0.99114
2406.58257	0.99079
2404.52567	0.99066
2402.46876	0.99098
2400.41185	0.99156
2398.35494	0.99209
2396.29803	0.99223
2394.24113	0.99233
2392.18422	0.99260
2390.12731	0.99263
2388.07040	0.99251
2386.01349	0.99245
2383.95658	0.99232
2381.89968	0.99223
2379.84277	0.99231
2377.78586	0.99238
2375.72895	0.99212
2373.67204	0.99194
2371.61514	0.99271
2369.55823	0.99328
2367.50132	0.99243
2365.44441	0.99207
2363.38750	0.99288
2361.33059	0.99326
2359.27369	0.99310
2357.21678	0.99261
2355.15987	0.99193
2353.10296	0.99174
2351.04605	0.99182
2348.98915	0.99184
2346.93224	0.99169
2344.87533	0.99119
2342.81842	0.99137
2340.76151	0.99256
2338.70460	0.99316
2336.64770	0.99282
2334.59079	0.99217
2332.53388	0.99163
2330.47697	0.99127
2328.42006	0.99075
2326.36316	0.99001
2324.30625	0.98933
2322.24934	0.98923
2320.19243	0.98968
2318.13552	0.99013
2316.07861	0.99079
2314.02171	0.99140
2311.96480	0.99145
2309.90789	0.99126
2307.85098	0.99106
2305.79407	0.99098
2303.73717	0.99110
2301.68026	0.99119
2299.62335	0.99089
2297.56644	0.99051
2295.50953	0.99067
2293.45262	0.99065
2291.39572	0.99017
2289.33881	0.99041
2287.28190	0.99128
2285.22499	0.99166
2283.16808	0.99166
2281.11117	0.99183
2279.05427	0.99195
2276.99736	0.99133
2274.94045	0.99005
2272.88354	0.98935
2270.82663	0.98952
2268.76973	0.98980
2266.71282	0.99010
2264.65591	0.99117
2262.59900	0.99250
2260.54209	0.99248
2258.48518	0.99166
2256.42828	0.99144
2254.37137	0.99147
2252.31446	0.99166
2250.25755	0.99228
2248.20064	0.99286
2246.14374	0.99222
2244.08683	0.99072
2242.02992	0.99040
2239.97301	0.99136
2237.91610	0.99217
2235.85919	0.99169
2233.80229	0.99082
2231.74538	0.99105
2229.68847	0.99175
2227.63156	0.99218
2225.57465	0.99236
2223.51775	0.99230
2221.46084	0.99203
2219.40393	0.99235
2217.34702	0.99336
2215.29011	0.99343
2213.23320	0.99273
2211.17630	0.99260
2209.11939	0.99239
2207.06248	0.99202
2205.00557	0.99201
2202.94866	0.99226
2200.89176	0.99253
2198.83485	0.99249
2196.77794	0.99252
2194.72103	0.99257
2192.66412	0.99214
2190.60721	0.99151
2188.55031	0.99124
2186.49340	0.99169
2184.43649	0.99232
2182.37958	0.99234
2180.32267	0.99221
2178.26577	0.99210
2176.20886	0.99189
2174.15195	0.99206
2172.09504	0.99233
2170.03813	0.99240
2167.98122	0.99192
2165.92432	0.99155
2163.86741	0.99247
2161.81050	0.99178
2159.75359	0.98821
2157.69668	0.98711
2155.63978	0.99027
2153.58287	0.99337
2151.52596	0.99411
2149.46905	0.99398
2147.41214	0.99392
2145.35523	0.99394
2143.29833	0.99454
2141.24142	0.99517
2139.18451	0.99501
2137.12760	0.99408
2135.07069	0.99350
2133.01379	0.99382
2130.95688	0.99393
2128.89997	0.99316
2126.84306	0.99186
2124.78615	0.99150
2122.72924	0.99271
2120.67234	0.99319
2118.61543	0.99152
2116.55852	0.99006
2114.50161	0.99080
2112.44470	0.99250
2110.38780	0.99361
2108.33089	0.99312
2106.27398	0.99149
2104.21707	0.99128
2102.16016	0.99230
2100.10325	0.99215
2098.04635	0.99187
2095.98944	0.99264
2093.93253	0.99263
2091.87562	0.99137
2089.81871	0.99078
2087.76181	0.99171
2085.70490	0.99266
2083.64799	0.99230
2081.59108	0.99158
2079.53417	0.99175
2077.47726	0.99176
2075.42036	0.99109
2073.36345	0.99105
2071.30654	0.99159
2069.24963	0.99160
2067.19272	0.99068
2065.13582	0.99056
2063.07891	0.99228
2061.02200	0.99348
2058.96509	0.99286
2056.90818	0.99256
2054.85127	0.99319
2052.79437	0.99233
2050.73746	0.99037
2048.68055	0.99001
2046.62364	0.99105
2044.56673	0.99164
2042.50983	0.99169
2040.45292	0.99184
2038.39601	0.99181
2036.33910	0.99174
2034.28219	0.99280
2032.22528	0.99515
2030.16838	0.99652
2028.11147	0.99511
2026.05456	0.99344
2023.99765	0.99413
2021.94074	0.99509
2019.88384	0.99404
2017.82693	0.99073
2015.77002	0.98703
2013.71311	0.98648
2011.65620	0.98890
2009.59929	0.99210
2007.54239	0.99409
2005.48548	0.99377
2003.42857	0.99309
2001.37166	0.99303
1999.31475	0.99313
1997.25785	0.99373
1995.20094	0.99368
1993.14403	0.99313
1991.08712	0.99438
1989.03021	0.99613
1986.97330	0.99540
1984.91640	0.99287
1982.85949	0.99128
1980.80258	0.99197
1978.74567	0.99441
1976.68876	0.99629
1974.63186	0.99621
1972.57495	0.99501
1970.51804	0.99330
1968.46113	0.99270
1966.40422	0.99460
1964.34731	0.99620
1962.29041	0.99581
1960.23350	0.99516
1958.17659	0.99480
1956.11968	0.99430
1954.06277	0.99294
1952.00587	0.99123
1949.94896	0.99100
1947.89205	0.99217
1945.83514	0.99302
1943.77823	0.99309
1941.72132	0.99340
1939.66442	0.99417
1937.60751	0.99358
1935.55060	0.99133
1933.49369	0.99011
1931.43678	0.99069
1929.37988	0.99177
1927.32297	0.99262
1925.26606	0.99288
1923.20915	0.99268
1921.15224	0.99233
1919.09533	0.99240
1917.03843	0.99301
1914.98152	0.99333
1912.92461	0.99319
1910.86770	0.99335
1908.81079	0.99365
1906.75389	0.99323
1904.69698	0.99235
1902.64007	0.99238
1900.58316	0.99324
1898.52625	0.99335
1896.46934	0.99264
1894.41244	0.99219
1892.35553	0.99208
1890.29862	0.99238
1888.24171	0.99331
1886.18480	0.99374
1884.12790	0.99310
1882.07099	0.99250
1880.01408	0.99287
1877.95717	0.99343
1875.90026	0.99328
1873.84335	0.99304
1871.78645	0.99318
1869.72954	0.99318
1867.67263	0.99324
1865.61572	0.99406
1863.55881	0.99444
1861.50191	0.99388
1859.44500	0.99355
1857.38809	0.99402
1855.33118	0.99451
1853.27427	0.99435
1851.21736	0.99377
1849.16046	0.99327
1847.10355	0.99317
1845.04664	0.99352
1842.98973	0.99368
1840.93282	0.99358
1838.87592	0.99372
1836.81901	0.99385
1834.76210	0.99376
1832.70519	0.99365
1830.64828	0.99356
1828.59137	0.99347
1826.53447	0.99350
1824.47756	0.99357
1822.42065	0.99335
1820.36374	0.99288
1818.30683	0.99259
1816.24993	0.99255
1814.19302	0.99228
1812.13611	0.99180
1810.07920	0.99167
1808.02229	0.99182
1805.96538	0.99179
1803.90848	0.99184
1801.85157	0.99215
1799.79466	0.99227
1797.73775	0.99194
1795.68084	0.99153
1793.62394	0.99139
1791.56703	0.99123
1789.51012	0.99070
1787.45321	0.99002
1785.39630	0.98935
1783.33939	0.98865
1781.28249	0.98794
1779.22558	0.98699
1777.16867	0.98570
1775.11176	0.98423
1773.05485	0.98215
1770.99795	0.97866
1768.94104	0.97449
1766.88413	0.97007
1764.82722	0.96548
1762.77031	0.95985
1760.71340	0.95259
1758.65650	0.94587
1756.59959	0.93993
1754.54268	0.93495
1752.48577	0.93079
1750.42886	0.92604
1748.37196	0.92111
1746.31505	0.91716
1744.25814	0.91392
1742.20123	0.91122
1740.14432	0.90895
1738.08741	0.90745
1736.03051	0.90699
1733.97360	0.90658
1731.91669	0.90649
1729.85978	0.90750
1727.80287	0.90932
1725.74597	0.91184
1723.68906	0.91511
1721.63215	0.91860
1719.57524	0.92233
1717.51833	0.92718
1715.46142	0.93261
1713.40452	0.93768
1711.34761	0.94249
1709.29070	0.94704
1707.23379	0.95152
1705.17688	0.95560
1703.11998	0.95846
1701.06307	0.96102
1699.00616	0.96396
1696.94925	0.96647
1694.89234	0.96875
1692.83543	0.97038
1690.77853	0.97150
1688.72162	0.97250
1686.66471	0.97353
1684.60780	0.97496
1682.55089	0.97646
1680.49399	0.97738
1678.43708	0.97791
1676.38017	0.97841
1674.32326	0.97905
1672.26635	0.97957
1670.20944	0.98001
1668.15254	0.98006
1666.09563	0.97971
1664.03872	0.97975
1661.98181	0.98013
1659.92490	0.98023
1657.86800	0.98017
1655.81109	0.98017
1653.75418	0.98005
1651.69727	0.97954
1649.64036	0.97949
1647.58345	0.97974
1645.52655	0.97969
1643.46964	0.97948
1641.41273	0.97956
1639.35582	0.97987
1637.29891	0.98014
1635.24201	0.98034
1633.18510	0.98053
1631.12819	0.98063
1629.07128	0.98078
1627.01437	0.98113
1624.95746	0.98156
1622.90056	0.98205
1620.84365	0.98244
1618.78674	0.98263
1616.72983	0.98301
1614.67292	0.98366
1612.61602	0.98409
1610.55911	0.98411
1608.50220	0.98415
1606.44529	0.98461
1604.38838	0.98504
1602.33147	0.98525
1600.27457	0.98560
1598.21766	0.98593
1596.16075	0.98585
1594.10384	0.98570
1592.04693	0.98588
1589.99003	0.98616
1587.93312	0.98639
1585.87621	0.98656
1583.81930	0.98675
1581.76239	0.98713
1579.70548	0.98754
1577.64858	0.98778
1575.59167	0.98779
1573.53476	0.98760
1571.47785	0.98763
1569.42094	0.98771
1567.36404	0.98749
1565.30713	0.98729
1563.25022	0.98719
1561.19331	0.98709
1559.13640	0.98740
1557.07949	0.98800
1555.02259	0.98822
1552.96568	0.98832
1550.90877	0.98833
1548.85186	0.98826
1546.79495	0.98831
1544.73805	0.98851
1542.68114	0.98856
1540.62423	0.98825
1538.56732	0.98806
1536.51041	0.98813
1534.45350	0.98827
1532.39660	0.98856
1530.33969	0.98882
1528.28278	0.98875
1526.22587	0.98843
1524.16896	0.98838
1522.11206	0.98858
1520.05515	0.98878
1517.99824	0.98881
1515.94133	0.98852
1513.88442	0.98849
1511.82751	0.98882
1509.77061	0.98895
1507.71370	0.98886
1505.65679	0.98892
1503.59988	0.98890
1501.54297	0.98878
1499.48607	0.98871
1497.42916	0.98883
1495.37225	0.98913
1493.31534	0.98918
1491.25843	0.98889
1489.20152	0.98864
1487.14462	0.98866
1485.08771	0.98860
1483.03080	0.98845
1480.97389	0.98839
1478.91698	0.98835
1476.86008	0.98815
1474.80317	0.98772
1472.74626	0.98700
1470.68935	0.98629
1468.63244	0.98579
1466.57553	0.98512
1464.51863	0.98418
1462.46172	0.98337
1460.40481	0.98269
1458.34790	0.98158
1456.29099	0.98010
1454.23409	0.97956
1452.17718	0.97946
1450.12027	0.97900
1448.06336	0.97824
1446.00645	0.97739
1443.94954	0.97648
1441.89264	0.97573
1439.83573	0.97527
1437.77882	0.97470
1435.72191	0.97353
1433.66500	0.97254
1431.60810	0.97221
1429.55119	0.97248
1427.49428	0.97312
1425.43737	0.97392
1423.38046	0.97476
1421.32355	0.97550
1419.26665	0.97645
1417.20974	0.97752
1415.15283	0.97817
1413.09592	0.97861
1411.03901	0.97890
1408.98211	0.97903
1406.92520	0.97909
1404.86829	0.97904
1402.81138	0.97901
1400.75447	0.97885
1398.69756	0.97827
1396.64066	0.97761
1394.58375	0.97659
1392.52684	0.97460
1390.46993	0.97218
1388.41302	0.96935
1386.35612	0.96592
1384.29921	0.96255
1382.24230	0.95907
1380.18539	0.95533
1378.12848	0.95176
1376.07157	0.94837
1374.01467	0.94483
1371.95776	0.94165
1369.90085	0.93920
1367.84394	0.93757
1365.78703	0.93764
1363.73013	0.93994
1361.67322	0.94454
1359.61631	0.95056
1357.55940	0.95669
1355.50249	0.96223
1353.44558	0.96698
1351.38868	0.97086
1349.33177	0.97369
1347.27486	0.97552
1345.21795	0.97661
1343.16104	0.97742
1341.10414	0.97808
1339.04723	0.97837
1336.99032	0.97854
1334.93341	0.97880
1332.87650	0.97899
1330.81959	0.97900
1328.76269	0.97884
1326.70578	0.97861
1324.64887	0.97846
1322.59196	0.97829
1320.53505	0.97822
1318.47815	0.97846
1316.42124	0.97866
1314.36433	0.97862
1312.30742	0.97877
1310.25051	0.97922
1308.19360	0.97964
1306.13670	0.97973
1304.07979	0.97962
1302.02288	0.97946
1299.96597	0.97910
1297.90906	0.97850
1295.85216	0.97779
1293.79525	0.97710
1291.73834	0.97650
1289.68143	0.97590
1287.62452	0.97511
1285.56761	0.97396
1283.51071	0.97243
1281.45380	0.97061
1279.39689	0.96872
1277.33998	0.96685
1275.28307	0.96486
1273.22617	0.96263
1271.16926	0.96020
1269.11235	0.95755
1267.05544	0.95455
1264.99853	0.95133
1262.94162	0.94794
1260.88472	0.94431
1258.82781	0.94036
1256.77090	0.93627
1254.71399	0.93227
1252.65708	0.92830
1250.60018	0.92433
1248.54327	0.92039
1246.48636	0.91610
1244.42945	0.91129
1242.37254	0.90644
1240.31563	0.90195
1238.25873	0.89780
1236.20182	0.89380
1234.14491	0.88997
1232.08800	0.88650
1230.03109	0.88338
1227.97419	0.88067
1225.91728	0.87842
1223.86037	0.87652
1221.80346	0.87500
1219.74655	0.87400
1217.68964	0.87363
1215.63274	0.87383
1213.57583	0.87433
1211.51892	0.87552
1209.46201	0.87810
1207.40510	0.88229
1205.34820	0.88795
1203.29129	0.89466
1201.23438	0.90204
1199.17747	0.90984
1197.12056	0.91757
1195.06365	0.92481
1193.00675	0.93111
1190.94984	0.93600
1188.89293	0.93961
1186.83602	0.94254
1184.77911	0.94484
1182.72221	0.94617
1180.66530	0.94673
1178.60839	0.94672
1176.55148	0.94601
1174.49457	0.94516
1172.43766	0.94461
1170.38076	0.94406
1168.32385	0.94341
1166.26694	0.94294
1164.21003	0.94295
1162.15312	0.94347
1160.09622	0.94398
1158.03931	0.94443
1155.98240	0.94532
1153.92549	0.94634
1151.86858	0.94719
1149.81167	0.94829
1147.75477	0.94960
1145.69786	0.95053
1143.64095	0.95092
1141.58404	0.95094
1139.52713	0.95074
1137.47023	0.95028
1135.41332	0.94932
1133.35641	0.94789
1131.29950	0.94653
1129.24259	0.94554
1127.18568	0.94456
1125.12878	0.94354
1123.07187	0.94304
1121.01496	0.94301
1118.95805	0.94265
1116.90114	0.94180
1114.84424	0.94125
1112.78733	0.94168
1110.73042	0.94250
1108.67351	0.94258
1106.61660	0.94188
1104.55969	0.94104
1102.50279	0.94042
1100.44588	0.93986
1098.38897	0.93897
1096.33206	0.93761
1094.27515	0.93580
1092.21825	0.93345
1090.16134	0.93061
1088.10443	0.92778
1086.04752	0.92537
1083.99061	0.92312
1081.93370	0.92077
1079.87680	0.91838
1077.81989	0.91583
1075.76298	0.91309
1073.70607	0.91067
1071.64916	0.90877
1069.59226	0.90695
1067.53535	0.90468
1065.47844	0.90213
1063.42153	0.89972
1061.36462	0.89720
1059.30771	0.89432
1057.25081	0.89121
1055.19390	0.88798
1053.13699	0.88486
1051.08008	0.88207
1049.02317	0.87956
1046.96627	0.87711
1044.90936	0.87441
1042.85245	0.87168
1040.79554	0.86919
1038.73863	0.86682
1036.68172	0.86461
1034.62482	0.86292
1032.56791	0.86168
1030.51100	0.86062
1028.45409	0.86036
1026.39718	0.86119
1024.34028	0.86240
1022.28337	0.86402
1020.22646	0.86631
1018.16955	0.86888
1016.11264	0.87176
1014.05573	0.87494
1011.99883	0.87795
1009.94192	0.88102
1007.88501	0.88439
1005.82810	0.88740
1003.77119	0.89004
1001.71429	0.89285
999.65738	0.89543
997.60047	0.89776
995.54356	0.90015
993.48665	0.90220
991.42974	0.90388
989.37284	0.90541
987.31593	0.90689
985.25902	0.90864
983.20211	0.91070
981.14520	0.91263
979.08830	0.91418
977.03139	0.91594
974.97448	0.91838
972.91757	0.92087
970.86066	0.92304
968.80375	0.92507
966.74685	0.92707
964.68994	0.92898
962.63303	0.93052
960.57612	0.93170
958.51921	0.93305
956.46231	0.93454
954.40540	0.93569
952.34849	0.93664
950.29158	0.93767
948.23467	0.93868
946.17776	0.93956
944.12086	0.94048
942.06395	0.94175
940.00704	0.94295
937.95013	0.94369
935.89322	0.94422
933.83632	0.94459
931.77941	0.94478
929.72250	0.94453
927.66559	0.94406
925.60868	0.94368
923.55177	0.94286
921.49487	0.94174
919.43796	0.94093
917.38105	0.94042
915.32414	0.93992
913.26723	0.93911
911.21033	0.93801
909.15342	0.93705
907.09651	0.93605
905.03960	0.93483
902.98269	0.93391
900.92578	0.93364
898.86888	0.93415
896.81197	0.93537
894.75506	0.93663
892.69815	0.93736
890.64124	0.93807
888.58434	0.93932
886.52743	0.94083
884.47052	0.94206
882.41361	0.94327
880.35670	0.94448
878.29979	0.94529
876.24289	0.94640
874.18598	0.94813
872.12907	0.94993
870.07216	0.95155
868.01525	0.95262
865.95835	0.95329
863.90144	0.95429
861.84453	0.95561
859.78762	0.95654
857.73071	0.95693
855.67380	0.95763
853.61690	0.95856
851.55999	0.95889
849.50308	0.95891
847.44617	0.95875
845.38926	0.95794
843.33236	0.95686
841.27545	0.95650
839.21854	0.95695
837.16163	0.95757
835.10472	0.95793
833.04781	0.95817
830.99091	0.95913
828.93400	0.96066
826.87709	0.96166
824.82018	0.96246
822.76327	0.96363
820.70637	0.96436
818.64946	0.96440
816.59255	0.96471
814.53564	0.96566
812.47873	0.96662
810.42182	0.96679
808.36492	0.96631
806.30801	0.96598
804.25110	0.96628
802.19419	0.96668
800.13728	0.96681
798.08038	0.96733
796.02347	0.96818
793.96656	0.96863
791.90965	0.96847
789.85274	0.96817
787.79583	0.96825
785.73893	0.96836
783.68202	0.96832
781.62511	0.96854
779.56820	0.96878
777.51129	0.96878
775.45439	0.96890
773.39748	0.96925
771.34057	0.96974
769.28366	0.97002
767.22675	0.96958
765.16984	0.96887
763.11294	0.96880
761.05603	0.96917
758.99912	0.96951
756.94221	0.96965
754.88530	0.96949
752.82839	0.96937
750.77149	0.96949
748.71458	0.96992
746.65767	0.97074
744.60076	0.97135
742.54385	0.97120
740.48695	0.97073
738.43004	0.97027
736.37313	0.96940
734.31622	0.96833
732.25931	0.96791
730.20240	0.96829
728.14550	0.96861
726.08859	0.96811
724.03168	0.96725
721.97477	0.96699
719.91786	0.96703
717.86096	0.96696
715.80405	0.96711
713.74714	0.96723
711.69023	0.96711
709.63332	0.96731
707.57641	0.96743
705.51951	0.96659
703.46260	0.96536
701.40569	0.96486
699.34878	0.96465
697.29187	0.96381
695.23497	0.96322
693.17806	0.96389
691.12115	0.96465
689.06424	0.96435
687.00733	0.96352
684.95042	0.96288
682.89352	0.96235
680.83661	0.96209
678.77970	0.96246
676.72279	0.96272
674.66588	0.96249
672.60898	0.96259
670.55207	0.96351
668.49516	0.96456
666.43825	0.96439
664.38134	0.96396
662.32443	0.96362
660.26753	0.96292
658.21062	0.96197
656.15371	0.96104
654.09680	0.96028
652.03989	0.95943
649.98299	0.95812
647.92608	0.95700
645.86917	0.95710
643.81226	0.95778
641.75535	0.95803
639.69844	0.95750
637.64154	0.95612
635.58463	0.95500
633.52772	0.95514
631.47081	0.95544
629.41390	0.95490
627.35700	0.95416
625.30009	0.95369
623.24318	0.95276
621.18627	0.95090
619.12936	0.94953
617.07245	0.94898
615.01555	0.94778
612.95864	0.94513
610.90173	0.94168
608.84482	0.93897
606.78791	0.93682
604.73101	0.93396
602.67410	0.93109
600.61719	0.93046
598.56028	0.93177
596.50337	0.93374
594.44646	0.93686
592.38956	0.93991
590.33265	0.94166
588.27574	0.94295
586.21883	0.94415
584.16192	0.94537
582.10502	0.94682
580.04811	0.94832
577.99120	0.94943
575.93429	0.95003
573.87738	0.94992
571.82047	0.94848
569.76357	0.94638
567.70666	0.94507
565.64975	0.94496
563.59284	0.94541
561.53593	0.94599
559.47903	0.94693
557.42212	0.94740
555.36521	0.94690
553.30830	0.94620
551.25139	0.94541
549.19448	0.94555
547.13758	0.94717
545.08067	0.94787
543.02376	0.94744
540.96685	0.94741
538.90994	0.94775
536.85304	0.94832
534.79613	0.94844
532.73922	0.94890
530.68231	0.94972
528.62540	0.94876
526.56849	0.94760
524.51159	0.94809
522.45468	0.94861
520.39777	0.94896
518.34086	0.94876
516.28395	0.94703
514.22705	0.94599
512.17014	0.94625
510.11323	0.94591
508.05632	0.94528
505.99941	0.94602
503.94250	0.94702
501.88560	0.94629
499.82869	0.94510
497.77178	0.94431
495.71487	0.94308
493.65796	0.94200
491.60106	0.94187
489.54415	0.94212
487.48724	0.94149
485.43033	0.93965
483.37342	0.93760
481.31651	0.93688
479.25961	0.93723
477.20270	0.93706
475.14579	0.93690
473.08888	0.93712
471.03197	0.93678
468.97507	0.93663
466.91816	0.93698
464.86125	0.93639
462.80434	0.93492
460.74743	0.93440
458.69052	0.93575
456.63362	0.93669
454.57671	0.93428
452.51980	0.93103
450.46289	0.92998
448.40598	0.93041
446.34908	0.93179
444.29217	0.93430
442.23526	0.93510
440.17835	0.93339
438.12144	0.93311
436.06453	0.93417
434.00763	0.93434
431.95072	0.93539
429.89381	0.93759
427.83690	0.93747
425.77999	0.93449
423.72309	0.93177
421.66618	0.93164
419.60927	0.93207
417.55236	0.92983
415.49545	0.92956
413.43854	0.93274
411.38164	0.93588
409.32473	0.93677
407.26782	0.93495
405.21091	0.93238
403.15400	0.93172
401.09710	0.93001
399.04019	0.93096
