3996.57260	0.98724
3994.51569	0.98775
3992.45878	0.98777
3990.40188	0.98720
3988.34497	0.98663
3986.28806	0.98666
3984.23115	0.98706
3982.17424	0.98693
3980.11733	0.98636
3978.06043	0.98621
3976.00352	0.98657
3973.94661	0.98687
3971.88970	0.98688
3969.83279	0.98670
3967.77589	0.98651
3965.71898	0.98645
3963.66207	0.98647
3961.60516	0.98684
3959.54825	0.98739
3957.49134	0.98770
3955.43444	0.98758
3953.37753	0.98714
3951.32062	0.98677
3949.26371	0.98680
3947.20680	0.98702
3945.14990	0.98668
3943.09299	0.98615
3941.03608	0.98631
3938.97917	0.98620
3936.92226	0.98552
3934.86535	0.98582
3932.80845	0.98646
3930.75154	0.98603
3928.69463	0.98608
3926.63772	0.98658
3924.58081	0.98617
3922.52391	0.98581
3920.46700	0.98644
3918.41009	0.98750
3916.35318	0.98792
3914.29627	0.98735
3912.23936	0.98692
3910.18246	0.98707
3908.12555	0.98717
3906.06864	0.98711
3904.01173	0.98699
3901.95482	0.98704
3899.89792	0.98696
3897.84101	0.98636
3895.78410	0.98602
3893.72719	0.98595
3891.67028	0.98588
3889.61337	0.98626
3887.55647	0.98741
3885.49956	0.98854
3883.44265	0.98821
3881.38574	0.98716
3879.32883	0.98672
3877.27193	0.98688
3875.21502	0.98709
3873.15811	0.98725
3871.10120	0.98793
3869.04429	0.98881
3866.98738	0.98883
3864.93048	0.98849
3862.87357	0.98819
3860.81666	0.98792
3858.75975	0.98780
3856.70284	0.98750
3854.64594	0.98770
3852.58903	0.98878
3850.53212	0.98864
3848.47521	0.98787
3846.41830	0.98739
3844.36139	0.98718
3842.30449	0.98648
3840.24758	0.98562
3838.19067	0.98605
3836.13376	0.98687
3834.07685	0.98649
3832.01995	0.98637
3829.96304	0.98749
3827.90613	0.98833
3825.84922	0.98822
3823.79231	0.98792
3821.73540	0.98738
3819.67850	0.98684
3817.62159	0.98731
3815.56468	0.98781
3813.50777	0.98754
3811.45086	0.98744
3809.39396	0.98770
3807.33705	0.98779
3805.28014	0.98758
3803.22323	0.98764
3801.16632	0.98777
3799.10941	0.98718
3797.05251	0.98631
3794.99560	0.98605
3792.93869	0.98661
3790.88178	0.98710
3788.82487	0.98670
3786.76796	0.98590
3784.71106	0.98559
3782.65415	0.98566
3780.59724	0.98601
3778.54033	0.98660
3776.48342	0.98706
3774.42652	0.98725
3772.36961	0.98708
3770.31270	0.98670
3768.25579	0.98647
3766.19888	0.98653
3764.14197	0.98697
3762.08507	0.98795
3760.02816	0.98869
3757.97125	0.98829
3755.91434	0.98759
3753.85743	0.98754
3751.80053	0.98747
3749.74362	0.98654
3747.68671	0.98606
3745.62980	0.98653
3743.57289	0.98751
3741.51598	0.98819
3739.45908	0.98840
3737.40217	0.98914
3735.34526	0.99023
3733.28835	0.99008
3731.23144	0.98913
3729.17454	0.98808
3727.11763	0.98734
3725.06072	0.98686
3723.00381	0.98675
3720.94690	0.98736
3718.88999	0.98797
3716.83309	0.98808
3714.77618	0.98761
3712.71927	0.98690
3710.66236	0.98681
3708.60545	0.98705
3706.54855	0.98718
3704.49164	0.98708
3702.43473	0.98662
3700.37782	0.98688
3698.32091	0.98791
3696.26400	0.98810
3694.20710	0.98741
3692.15019	0.98745
3690.09328	0.98842
3688.03637	0.98799
3685.97946	0.98686
3683.92256	0.98702
3681.86565	0.98779
3679.80874	0.98800
3677.75183	0.98792
3675.69492	0.98776
3673.63801	0.98621
3671.58111	0.98494
3669.52420	0.98540
3667.46729	0.98630
3665.41038	0.98649
3663.35347	0.98595
3661.29657	0.98494
3659.23966	0.98440
3657.18275	0.98490
3655.12584	0.98569
3653.06893	0.98595
3651.01202	0.98598
3648.95512	0.98635
3646.89821	0.98631
3644.84130	0.98546
3642.78439	0.98425
3640.72748	0.98285
3638.67058	0.98206
3636.61367	0.98235
3634.55676	0.98276
3632.49985	0.98255
3630.44294	0.98192
3628.38603	0.98129
3626.32913	0.98124
3624.27222	0.98123
3622.21531	0.98064
3620.15840	0.97972
3618.10149	0.97967
3616.04459	0.98077
3613.98768	0.98152
3611.93077	0.98120
3609.87386	0.98031
3607.81695	0.97929
3605.76004	0.97923
3603.70314	0.98013
3601.64623	0.98063
3599.58932	0.97998
3597.53241	0.97859
3595.47550	0.97745
3593.41860	0.97680
3591.36169	0.97671
3589.30478	0.97735
3587.24787	0.97800
3585.19096	0.97783
3583.13405	0.97740
3581.07715	0.97698
3579.02024	0.97632
3576.96333	0.97570
3574.90642	0.97515
3572.84951	0.97439
3570.79261	0.97390
3568.73570	0.97384
3566.67879	0.97368
3564.62188	0.97322
3562.56497	0.97271
3560.50806	0.97249
3558.45116	0.97202
3556.39425	0.97110
3554.33734	0.97061
3552.28043	0.97058
3550.22352	0.97063
3548.16662	0.97033
3546.10971	0.96957
3544.05280	0.96920
3541.99589	0.96900
3539.93898	0.96819
3537.88207	0.96717
3535.82517	0.96655
3533.76826	0.96603
3531.71135	0.96539
3529.65444	0.96514
3527.59753	0.96521
3525.54063	0.96529
3523.48372	0.96524
3521.42681	0.96505
3519.36990	0.96495
3517.31299	0.96429
3515.25608	0.96281
3513.19918	0.96159
3511.14227	0.96106
3509.08536	0.96091
3507.02845	0.96115
3504.97154	0.96148
3502.91464	0.96133
3500.85773	0.96074
3498.80082	0.96058
3496.74391	0.96130
3494.68700	0.96171
3492.63009	0.96138
3490.57319	0.96080
3488.51628	0.95996
3486.45937	0.95950
3484.40246	0.95942
3482.34555	0.95871
3480.28865	0.95777
3478.23174	0.95753
3476.17483	0.95776
3474.11792	0.95823
3472.06101	0.95841
3470.00410	0.95794
3467.94720	0.95772
3465.89029	0.95827
3463.83338	0.95889
3461.77647	0.95919
3459.71956	0.95913
3457.66266	0.95835
3455.60575	0.95745
3453.54884	0.95739
3451.49193	0.95777
3449.43502	0.95802
3447.37811	0.95805
3445.32121	0.95796
3443.26430	0.95804
3441.20739	0.95840
3439.15048	0.95883
3437.09357	0.95907
3435.03667	0.95910
3432.97976	0.95906
3430.92285	0.95915
3428.86594	0.95936
3426.80903	0.95983
3424.75212	0.96054
3422.69522	0.96081
3420.63831	0.96060
3418.58140	0.96052
3416.52449	0.96053
3414.46758	0.96027
3412.41068	0.95994
3410.35377	0.95990
3408.29686	0.96012
3406.23995	0.96046
3404.18304	0.96084
3402.12613	0.96110
3400.06923	0.96103
3398.01232	0.96102
3395.95541	0.96123
3393.89850	0.96139
3391.84159	0.96173
3389.78469	0.96214
3387.72778	0.96250
3385.67087	0.96303
3383.61396	0.96351
3381.55705	0.96349
3379.50014	0.96326
3377.44324	0.96318
3375.38633	0.96304
3373.32942	0.96305
3371.27251	0.96368
3369.21560	0.96451
3367.15870	0.96495
3365.10179	0.96530
3363.04488	0.96574
3360.98797	0.96576
3358.93106	0.96525
3356.87415	0.96500
3354.81725	0.96561
3352.76034	0.96644
3350.70343	0.96655
3348.64652	0.96591
3346.58961	0.96550
3344.53271	0.96595
3342.47580	0.96679
3340.41889	0.96715
3338.36198	0.96691
3336.30507	0.96678
3334.24816	0.96703
3332.19126	0.96727
3330.13435	0.96741
3328.07744	0.96740
3326.02053	0.96720
3323.96362	0.96740
3321.90672	0.96808
3319.84981	0.96837
3317.79290	0.96848
3315.73599	0.96898
3313.67908	0.96935
3311.62217	0.96948
3309.56527	0.96962
3307.50836	0.96970
3305.45145	0.96988
3303.39454	0.97014
3301.33763	0.97022
3299.28073	0.97027
3297.22382	0.97029
3295.16691	0.97000
3293.11000	0.96969
3291.05309	0.97009
3288.99618	0.97086
3286.93928	0.97108
3284.88237	0.97109
3282.82546	0.97131
3280.76855	0.97111
3278.71164	0.97064
3276.65474	0.97078
3274.59783	0.97156
3272.54092	0.97210
3270.48401	0.97214
3268.42710	0.97227
3266.37019	0.97267
3264.31329	0.97309
3262.25638	0.97322
3260.19947	0.97296
3258.14256	0.97260
3256.08565	0.97217
3254.02875	0.97221
3251.97184	0.97299
3249.91493	0.97349
3247.85802	0.97373
3245.80111	0.97423
3243.74420	0.97410
3241.68730	0.97333
3239.63039	0.97312
3237.57348	0.97368
3235.51657	0.97427
3233.45966	0.97454
3231.40276	0.97487
3229.34585	0.97517
3227.28894	0.97503
3225.23203	0.97467
3223.17512	0.97477
3221.11821	0.97536
3219.06131	0.97579
3217.00440	0.97581
3214.94749	0.97568
3212.89058	0.97552
3210.83367	0.97517
3208.77677	0.97491
3206.71986	0.97531
3204.66295	0.97597
3202.60604	0.97645
3200.54913	0.97709
3198.49222	0.97758
3196.43532	0.97733
3194.37841	0.97706
3192.32150	0.97730
3190.26459	0.97720
3188.20768	0.97691
3186.15078	0.97714
3184.09387	0.97768
3182.03696	0.97804
3179.98005	0.97802
3177.92314	0.97794
3175.86623	0.97803
3173.80933	0.97832
3171.75242	0.97864
3169.69551	0.97877
3167.63860	0.97888
3165.58169	0.97907
3163.52479	0.97895
3161.46788	0.97872
3159.41097	0.97894
3157.35406	0.97906
3155.29715	0.97896
3153.24024	0.97945
3151.18334	0.97995
3149.12643	0.97967
3147.06952	0.97942
3145.01261	0.97983
3142.95570	0.98032
3140.89880	0.98050
3138.84189	0.98052
3136.78498	0.98056
3134.72807	0.98039
3132.67116	0.97993
3130.61425	0.97964
3128.55735	0.97969
3126.50044	0.97998
3124.44353	0.98052
3122.38662	0.98096
3120.32971	0.98080
3118.27281	0.98040
3116.21590	0.98024
3114.15899	0.98015
3112.10208	0.97998
3110.04517	0.97979
3107.98826	0.97972
3105.93136	0.97992
3103.87445	0.98028
3101.81754	0.98075
3099.76063	0.98154
3097.70372	0.98201
3095.64682	0.98170
3093.58991	0.98102
3091.53300	0.98055
3089.47609	0.98071
3087.41918	0.98108
3085.36227	0.98103
3083.30537	0.98059
3081.24846	0.98033
3079.19155	0.98058
3077.13464	0.98104
3075.07773	0.98138
3073.02083	0.98179
3070.96392	0.98211
3068.90701	0.98189
3066.85010	0.98128
3064.79319	0.98061
3062.73628	0.98038
3060.67938	0.98083
3058.62247	0.98119
3056.56556	0.98134
3054.50865	0.98159
3052.45174	0.98174
3050.39484	0.98179
3048.33793	0.98185
3046.28102	0.98168
3044.22411	0.98105
3042.16720	0.98065
3040.11029	0.98096
3038.05339	0.98149
3035.99648	0.98200
3033.93957	0.98217
3031.88266	0.98194
3029.82575	0.98158
3027.76885	0.98123
3025.71194	0.98090
3023.65503	0.98023
3021.59812	0.97948
3019.54121	0.97950
3017.48430	0.98001
3015.42740	0.98044
3013.37049	0.98061
3011.31358	0.98050
3009.25667	0.98054
3007.19976	0.98064
3005.14286	0.98040
3003.08595	0.97993
3001.02904	0.97946
2998.97213	0.97905
2996.91522	0.97877
2994.85831	0.97891
2992.80141	0.97939
2990.74450	0.97945
2988.68759	0.97869
2986.63068	0.97800
2984.57377	0.97819
2982.51687	0.97875
2980.45996	0.97903
2978.40305	0.97914
2976.34614	0.97894
2974.28923	0.97828
2972.23232	0.97762
2970.17542	0.97716
2968.11851	0.97690
2966.06160	0.97669
2964.00469	0.97629
2961.94778	0.97557
2959.89088	0.97483
2957.83397	0.97445
2955.77706	0.97411
2953.72015	0.97366
2951.66324	0.97323
2949.60633	0.97291
2947.54943	0.97272
2945.49252	0.97234
2943.43561	0.97197
2941.37870	0.97193
2939.32179	0.97195
2937.26489	0.97208
2935.20798	0.97226
2933.15107	0.97205
2931.09416	0.97192
2929.03725	0.97256
2926.98034	0.97331
2924.92344	0.97316
2922.86653	0.97258
2920.80962	0.97251
2918.75271	0.97285
2916.69580	0.97304
2914.63890	0.97291
2912.58199	0.97267
2910.52508	0.97245
2908.46817	0.97230
2906.41126	0.97235
2904.35435	0.97252
2902.29745	0.97248
2900.24054	0.97224
2898.18363	0.97201
2896.12672	0.97184
2894.06981	0.97189
2892.01291	0.97195
2889.95600	0.97178
2887.89909	0.97170
2885.84218	0.97168
2883.78527	0.97138
2881.72836	0.97117
2879.67146	0.97135
2877.61455	0.97159
2875.55764	0.97181
2873.50073	0.97227
2871.44382	0.97281
2869.38692	0.97303
2867.33001	0.97308
2865.27310	0.97329
2863.21619	0.97382
2861.15928	0.97470
2859.10237	0.97563
2857.04547	0.97601
2854.98856	0.97625
2852.93165	0.97676
2850.87474	0.97687
2848.81783	0.97678
2846.76093	0.97704
2844.70402	0.97757
2842.64711	0.97822
2840.59020	0.97879
2838.53329	0.97907
2836.47638	0.97888
2834.41948	0.97851
2832.36257	0.97859
2830.30566	0.97912
2828.24875	0.97956
2826.19184	0.97966
2824.13494	0.97960
2822.07803	0.97963
2820.02112	0.97969
2817.96421	0.97981
2815.90730	0.98014
2813.85039	0.98040
2811.79349	0.98047
2809.73658	0.98043
2807.67967	0.98023
2805.62276	0.98025
2803.56585	0.98059
2801.50895	0.98064
2799.45204	0.98048
2797.39513	0.98072
2795.33822	0.98131
2793.28131	0.98177
2791.22440	0.98172
2789.16750	0.98129
2787.11059	0.98107
2785.05368	0.98121
2782.99677	0.98150
2780.93986	0.98172
2778.88296	0.98159
2776.82605	0.98132
2774.76914	0.98135
2772.71223	0.98155
2770.65532	0.98143
2768.59841	0.98128
2766.54151	0.98136
2764.48460	0.98142
2762.42769	0.98149
2760.37078	0.98135
2758.31387	0.98122
2756.25697	0.98169
2754.20006	0.98212
2752.14315	0.98190
2750.08624	0.98145
2748.02933	0.98123
2745.97242	0.98139
2743.91552	0.98162
2741.85861	0.98179
2739.80170	0.98196
2737.74479	0.98186
2735.68788	0.98155
2733.63098	0.98145
2731.57407	0.98164
2729.51716	0.98175
2727.46025	0.98173
2725.40334	0.98188
2723.34643	0.98204
2721.28953	0.98197
2719.23262	0.98179
2717.17571	0.98184
2715.11880	0.98205
2713.06189	0.98216
2711.00499	0.98212
2708.94808	0.98211
2706.89117	0.98212
2704.83426	0.98216
2702.77735	0.98228
2700.72044	0.98221
2698.66354	0.98193
2696.60663	0.98181
2694.54972	0.98202
2692.49281	0.98231
2690.43590	0.98231
2688.37900	0.98213
2686.32209	0.98226
2684.26518	0.98236
2682.20827	0.98200
2680.15136	0.98168
2678.09445	0.98183
2676.03755	0.98205
2673.98064	0.98194
2671.92373	0.98176
2669.86682	0.98188
2667.80991	0.98207
2665.75301	0.98202
2663.69610	0.98188
2661.63919	0.98191
2659.58228	0.98200
2657.52537	0.98207
2655.46846	0.98222
2653.41156	0.98238
2651.35465	0.98240
2649.29774	0.98218
2647.24083	0.98188
2645.18392	0.98183
2643.12702	0.98199
2641.07011	0.98213
2639.01320	0.98216
2636.95629	0.98185
2634.89938	0.98145
2632.84247	0.98159
2630.78557	0.98226
2628.72866	0.98274
2626.67175	0.98273
2624.61484	0.98272
2622.55793	0.98270
2620.50103	0.98235
2618.44412	0.98211
2616.38721	0.98227
2614.33030	0.98239
2612.27339	0.98250
2610.21648	0.98278
2608.15958	0.98280
2606.10267	0.98254
2604.04576	0.98274
2601.98885	0.98344
2599.93194	0.98351
2597.87504	0.98271
2595.81813	0.98252
2593.76122	0.98354
2591.70431	0.98437
2589.64740	0.98418
2587.59049	0.98359
2585.53359	0.98348
2583.47668	0.98380
2581.41977	0.98404
2579.36286	0.98428
2577.30595	0.98421
2575.24905	0.98369
2573.19214	0.98338
2571.13523	0.98348
2569.07832	0.98381
2567.02141	0.98406
2564.96450	0.98393
2562.90760	0.98352
2560.85069	0.98315
2558.79378	0.98309
2556.73687	0.98318
2554.67996	0.98297
2552.62306	0.98261
2550.56615	0.98259
2548.50924	0.98333
2546.45233	0.98461
2544.39542	0.98536
2542.33851	0.98527
2540.28161	0.98502
2538.22470	0.98501
2536.16779	0.98489
2534.11088	0.98432
2532.05397	0.98382
2529.99707	0.98347
2527.94016	0.98296
2525.88325	0.98297
2523.82634	0.98374
2521.76943	0.98466
2519.71252	0.98484
2517.65562	0.98446
2515.59871	0.98454
2513.54180	0.98475
2511.48489	0.98437
2509.42798	0.98364
2507.37108	0.98349
2505.31417	0.98382
2503.25726	0.98402
2501.20035	0.98448
2499.14344	0.98504
2497.08653	0.98493
2495.02963	0.98415
2492.97272	0.98344
2490.91581	0.98334
2488.85890	0.98387
2486.80199	0.98457
2484.74509	0.98482
2482.68818	0.98462
2480.63127	0.98446
2478.57436	0.98476
2476.51745	0.98520
2474.46054	0.98502
2472.40364	0.98438
2470.34673	0.98389
2468.28982	0.98326
2466.23291	0.98260
2464.17600	0.98255
2462.11910	0.98280
2460.06219	0.98285
2458.00528	0.98328
2455.94837	0.98429
2453.89146	0.98512
2451.83455	0.98506
2449.77765	0.98391
2447.72074	0.98298
2445.66383	0.98351
2443.60692	0.98472
2441.55001	0.98517
2439.49311	0.98449
2437.43620	0.98414
2435.37929	0.98516
2433.32238	0.98594
2431.26547	0.98581
2429.20856	0.98542
2427.15166	0.98475
2425.09475	0.98443
2423.03784	0.98484
2420.98093	0.98517
2418.92402	0.98500
2416.86712	0.98480
2414.81021	0.98465
2412.75330	0.98463
2410.69639	0.98488
2408.63948	0.98510
2406.58257	0.98526
2404.52567	0.98555
2402.46876	0.98552
2400.41185	0.98513
2398.35494	0.98526
2396.29803	0.98579
2394.24113	0.98577
2392.18422	0.98561
2390.12731	0.98572
2388.07040	0.98529
2386.01349	0.98451
2383.95658	0.98447
2381.89968	0.98486
2379.84277	0.98500
2377.78586	0.98518
2375.72895	0.98581
2373.67204	0.98667
2371.61514	0.98682
2369.55823	0.98615
2367.50132	0.98625
2365.44441	0.98719
2363.38750	0.98707
2361.33059	0.98597
2359.27369	0.98563
2357.21678	0.98593
2355.15987	0.98566
2353.10296	0.98533
2351.04605	0.98507
2348.98915	0.98506
2346.93224	0.98608
2344.87533	0.98737
2342.81842	0.98738
2340.76151	0.98684
2338.70460	0.98644
2336.64770	0.98581
2334.59079	0.98508
2332.53388	0.98451
2330.47697	0.98442
2328.42006	0.98457
2326.36316	0.98417
2324.30625	0.98357
2322.24934	0.98367
2320.19243	0.98429
2318.13552	0.98467
2316.07861	0.98479
2314.02171	0.98481
2311.96480	0.98435
2309.90789	0.98331
2307.85098	0.98243
2305.79407	0.98248
2303.73717	0.98328
2301.68026	0.98393
2299.62335	0.98391
2297.56644	0.98371
2295.50953	0.98377
2293.45262	0.98370
2291.39572	0.98345
2289.33881	0.98315
2287.28190	0.98292
2285.22499	0.98327
2283.16808	0.98373
2281.11117	0.98354
2279.05427	0.98356
2276.99736	0.98427
2274.94045	0.98424
2272.88354	0.98330
2270.82663	0.98296
2268.76973	0.98365
2266.71282	0.98435
2264.65591	0.98499
2262.59900	0.98604
2260.54209	0.98651
2258.48518	0.98610
2256.42828	0.98574
2254.37137	0.98595
2252.31446	0.98619
2250.25755	0.98531
2248.20064	0.98429
2246.14374	0.98485
2244.08683	0.98654
2242.02992	0.98782
2239.97301	0.98787
2237.91610	0.98708
2235.85919	0.98608
2233.80229	0.98537
2231.74538	0.98607
2229.68847	0.98843
2227.63156	0.98951
2225.57465	0.98744
2223.51775	0.98531
2221.46084	0.98551
2219.40393	0.98670
2217.34702	0.98766
2215.29011	0.98793
2213.23320	0.98732
2211.17630	0.98656
2209.11939	0.98592
2207.06248	0.98493
2205.00557	0.98428
2202.94866	0.98481
2200.89176	0.98580
2198.83485	0.98641
2196.77794	0.98677
2194.72103	0.98749
2192.66412	0.98782
2190.60721	0.98602
2188.55031	0.98340
2186.49340	0.98313
2184.43649	0.98443
2182.37958	0.98568
2180.32267	0.98660
2178.26577	0.98608
2176.20886	0.98563
2174.15195	0.98612
2172.09504	0.98586
2170.03813	0.98465
2167.98122	0.98344
2165.92432	0.98386
2163.86741	0.98483
2161.81050	0.98539
2159.75359	0.98744
2157.69668	0.98780
2155.63978	0.98558
2153.58287	0.98490
2151.52596	0.98550
2149.46905	0.98638
2147.41214	0.98815
2145.35523	0.98963
2143.29833	0.98951
2141.24142	0.98858
2139.18451	0.98775
2137.12760	0.98737
2135.07069	0.98722
2133.01379	0.98703
2130.95688	0.98707
2128.89997	0.98653
2126.84306	0.98536
2124.78615	0.98541
2122.72924	0.98618
2120.67234	0.98555
2118.61543	0.98438
2116.55852	0.98398
2114.50161	0.98387
2112.44470	0.98395
2110.38780	0.98460
2108.33089	0.98537
2106.27398	0.98533
2104.21707	0.98456
2102.16016	0.98408
2100.10325	0.98499
2098.04635	0.98656
2095.98944	0.98735
2093.93253	0.98768
2091.87562	0.98758
2089.81871	0.98677
2087.76181	0.98580
2085.70490	0.98525
2083.64799	0.98559
2081.59108	0.98556
2079.53417	0.98410
2077.47726	0.98271
2075.42036	0.98255
2073.36345	0.98362
2071.30654	0.98548
2069.24963	0.98693
2067.19272	0.98726
2065.13582	0.98707
2063.07891	0.98689
2061.02200	0.98665
2058.96509	0.98667
2056.90818	0.98630
2054.85127	0.98477
2052.79437	0.98354
2050.73746	0.98374
2048.68055	0.98537
2046.62364	0.98759
2044.56673	0.98850
2042.50983	0.98804
2040.45292	0.98800
2038.39601	0.98884
2036.33910	0.98978
2034.28219	0.99000
2032.22528	0.98912
2030.16838	0.98862
2028.11147	0.98867
2026.05456	0.98707
2023.99765	0.98560
2021.94074	0.98661
2019.88384	0.98805
2017.82693	0.98799
2015.77002	0.98763
2013.71311	0.98861
2011.65620	0.98913
2009.59929	0.98743
2007.54239	0.98606
2005.48548	0.98650
2003.42857	0.98631
2001.37166	0.98564
1999.31475	0.98660
1997.25785	0.98826
1995.20094	0.98829
1993.14403	0.98727
1991.08712	0.98699
1989.03021	0.98707
1986.97330	0.98651
1984.91640	0.98535
1982.85949	0.98496
1980.80258	0.98573
1978.74567	0.98660
1976.68876	0.98752
1974.63186	0.98917
1972.57495	0.99045
1970.51804	0.98982
1968.46113	0.98829
1966.40422	0.98821
1964.34731	0.98999
1962.29041	0.99212
1960.23350	0.99309
1958.17659	0.99167
1956.11968	0.98941
1954.06277	0.98864
1952.00587	0.98868
1949.94896	0.98878
1947.89205	0.98915
1945.83514	0.98905
1943.77823	0.98776
1941.72132	0.98597
1939.66442	0.98588
1937.60751	0.98802
1935.55060	0.98943
1933.49369	0.98875
1931.43678	0.98778
1929.37988	0.98771
1927.32297	0.98808
1925.26606	0.98816
1923.20915	0.98823
1921.15224	0.98847
1919.09533	0.98846
1917.03843	0.98852
1914.98152	0.98874
1912.92461	0.98871
1910.86770	0.98875
1908.81079	0.98875
1906.75389	0.98846
1904.69698	0.98795
1902.64007	0.98756
1900.58316	0.98771
1898.52625	0.98790
1896.46934	0.98769
1894.41244	0.98769
1892.35553	0.98815
1890.29862	0.98855
1888.24171	0.98875
1886.18480	0.98864
1884.12790	0.98840
1882.07099	0.98834
1880.01408	0.98800
1877.95717	0.98758
1875.90026	0.98777
1873.84335	0.98832
1871.78645	0.98912
1869.72954	0.98993
1867.67263	0.98964
1865.61572	0.98853
1863.55881	0.98822
1861.50191	0.98891
1859.44500	0.98906
1857.38809	0.98864
1855.33118	0.98868
1853.27427	0.98883
1851.21736	0.98894
1849.16046	0.98930
1847.10355	0.98961
1845.04664	0.98956
1842.98973	0.98907
1840.93282	0.98875
1838.87592	0.98886
1836.81901	0.98910
1834.76210	0.98924
1832.70519	0.98913
1830.64828	0.98889
1828.59137	0.98862
1826.53447	0.98846
1824.47756	0.98852
1822.42065	0.98862
1820.36374	0.98873
1818.30683	0.98871
1816.24993	0.98835
1814.19302	0.98780
1812.13611	0.98734
1810.07920	0.98692
1808.02229	0.98697
1805.96538	0.98747
1803.90848	0.98767
1801.85157	0.98731
1799.79466	0.98688
1797.73775	0.98668
1795.68084	0.98647
1793.62394	0.98615
1791.56703	0.98570
1789.51012	0.98503
1787.45321	0.98414
1785.39630	0.98348
1783.33939	0.98315
1781.28249	0.98275
1779.22558	0.98172
1777.16867	0.98018
1775.11176	0.97840
1773.05485	0.97551
1770.99795	0.97112
1768.94104	0.96604
1766.88413	0.95997
1764.82722	0.95321
1762.77031	0.94477
1760.71340	0.93412
1758.65650	0.92402
1756.59959	0.91438
1754.54268	0.90567
1752.48577	0.89777
1750.42886	0.88910
1748.37196	0.88075
1746.31505	0.87395
1744.25814	0.86827
1742.20123	0.86330
1740.14432	0.85836
1738.08741	0.85445
1736.03051	0.85224
1733.97360	0.84972
1731.91669	0.84819
1729.85978	0.84876
1727.80287	0.85006
1725.74597	0.85191
1723.68906	0.85456
1721.63215	0.85803
1719.57524	0.86263
1717.51833	0.86920
1715.46142	0.87665
1713.40452	0.88366
1711.34761	0.89101
1709.29070	0.89872
1707.23379	0.90673
1705.17688	0.91477
1703.11998	0.92156
1701.06307	0.92861
1699.00616	0.93586
1696.94925	0.94046
1694.89234	0.94408
1692.83543	0.94694
1690.77853	0.94953
1688.72162	0.95237
1686.66471	0.95495
1684.60780	0.95750
1682.55089	0.95945
1680.49399	0.96060
1678.43708	0.96160
1676.38017	0.96244
1674.32326	0.96316
1672.26635	0.96393
1670.20944	0.96444
1668.15254	0.96434
1666.09563	0.96449
1664.03872	0.96494
1661.98181	0.96498
1659.92490	0.96471
1657.86800	0.96464
1655.81109	0.96476
1653.75418	0.96480
1651.69727	0.96438
1649.64036	0.96398
1647.58345	0.96352
1645.52655	0.96310
1643.46964	0.96335
1641.41273	0.96394
1639.35582	0.96422
1637.29891	0.96427
1635.24201	0.96466
1633.18510	0.96513
1631.12819	0.96560
1629.07128	0.96630
1627.01437	0.96701
1624.95746	0.96752
1622.90056	0.96793
1620.84365	0.96831
1618.78674	0.96881
1616.72983	0.96937
1614.67292	0.96983
1612.61602	0.97055
1610.55911	0.97141
1608.50220	0.97230
1606.44529	0.97338
1604.38838	0.97430
1602.33147	0.97475
1600.27457	0.97502
1598.21766	0.97540
1596.16075	0.97578
1594.10384	0.97620
1592.04693	0.97669
1589.99003	0.97711
1587.93312	0.97743
1585.87621	0.97771
1583.81930	0.97795
1581.76239	0.97788
1579.70548	0.97777
1577.64858	0.97833
1575.59167	0.97894
1573.53476	0.97884
1571.47785	0.97917
1569.42094	0.97979
1567.36404	0.97976
1565.30713	0.97954
1563.25022	0.97957
1561.19331	0.97997
1559.13640	0.98058
1557.07949	0.98054
1555.02259	0.98029
1552.96568	0.98020
1550.90877	0.98017
1548.85186	0.98001
1546.79495	0.97995
1544.73805	0.98038
1542.68114	0.98112
1540.62423	0.98147
1538.56732	0.98117
1536.51041	0.98109
1534.45350	0.98126
1532.39660	0.98134
1530.33969	0.98143
1528.28278	0.98169
1526.22587	0.98179
1524.16896	0.98171
1522.11206	0.98180
1520.05515	0.98185
1517.99824	0.98196
1515.94133	0.98224
1513.88442	0.98225
1511.82751	0.98205
1509.77061	0.98226
1507.71370	0.98291
1505.65679	0.98258
1503.59988	0.98185
1501.54297	0.98166
1499.48607	0.98186
1497.42916	0.98218
1495.37225	0.98243
1493.31534	0.98270
1491.25843	0.98269
1489.20152	0.98225
1487.14462	0.98194
1485.08771	0.98168
1483.03080	0.98131
1480.97389	0.98087
1478.91698	0.98036
1476.86008	0.97978
1474.80317	0.97909
1472.74626	0.97792
1470.68935	0.97620
1468.63244	0.97491
1466.57553	0.97398
1464.51863	0.97279
1462.46172	0.97156
1460.40481	0.97060
1458.34790	0.96926
1456.29099	0.96698
1454.23409	0.96532
1452.17718	0.96443
1450.12027	0.96357
1448.06336	0.96223
1446.00645	0.96048
1443.94954	0.95888
1441.89264	0.95750
1439.83573	0.95649
1437.77882	0.95545
1435.72191	0.95366
1433.66500	0.95241
1431.60810	0.95215
1429.55119	0.95229
1427.49428	0.95279
1425.43737	0.95381
1423.38046	0.95503
1421.32355	0.95596
1419.26665	0.95681
1417.20974	0.95779
1415.15283	0.95876
1413.09592	0.95956
1411.03901	0.96007
1408.98211	0.96047
1406.92520	0.96076
1404.86829	0.96057
1402.81138	0.96028
1400.75447	0.96024
1398.69756	0.95974
1396.64066	0.95819
1394.58375	0.95557
1392.52684	0.95254
1390.46993	0.94950
1388.41302	0.94551
1386.35612	0.93989
1384.29921	0.93398
1382.24230	0.92853
1380.18539	0.92307
1378.12848	0.91753
1376.07157	0.91208
1374.01467	0.90674
1371.95776	0.90240
1369.90085	0.89986
1367.84394	0.89928
1365.78703	0.90113
1363.73013	0.90585
1361.67322	0.91357
1359.61631	0.92238
1357.55940	0.93064
1355.50249	0.93796
1353.44558	0.94394
1351.38868	0.94848
1349.33177	0.95175
1347.27486	0.95407
1345.21795	0.95595
1343.16104	0.95744
1341.10414	0.95832
1339.04723	0.95883
1336.99032	0.95922
1334.93341	0.95940
1332.87650	0.95955
1330.81959	0.95971
1328.76269	0.95954
1326.70578	0.95905
1324.64887	0.95869
1322.59196	0.95864
1320.53505	0.95858
1318.47815	0.95832
1316.42124	0.95804
1314.36433	0.95805
1312.30742	0.95833
1310.25051	0.95853
1308.19360	0.95863
1306.13670	0.95883
1304.07979	0.95906
1302.02288	0.95895
1299.96597	0.95844
1297.90906	0.95785
1295.85216	0.95702
1293.79525	0.95574
1291.73834	0.95400
1289.68143	0.95188
1287.62452	0.94980
1285.56761	0.94758
1283.51071	0.94476
1281.45380	0.94146
1279.39689	0.93786
1277.33998	0.93393
1275.28307	0.92982
1273.22617	0.92574
1271.16926	0.92161
1269.11235	0.91721
1267.05544	0.91252
1264.99853	0.90749
1262.94162	0.90199
1260.88472	0.89603
1258.82781	0.88987
1256.77090	0.88359
1254.71399	0.87725
1252.65708	0.87088
1250.60018	0.86417
1248.54327	0.85724
1246.48636	0.85060
1244.42945	0.84421
1242.37254	0.83784
1240.31563	0.83159
1238.25873	0.82547
1236.20182	0.81957
1234.14491	0.81400
1232.08800	0.80890
1230.03109	0.80443
1227.97419	0.80087
1225.91728	0.79846
1223.86037	0.79715
1221.80346	0.79706
1219.74655	0.79834
1217.68964	0.80113
1215.63274	0.80565
1213.57583	0.81197
1211.51892	0.82013
1209.46201	0.82977
1207.40510	0.84029
1205.34820	0.85143
1203.29129	0.86285
1201.23438	0.87404
1199.17747	0.88480
1197.12056	0.89497
1195.06365	0.90410
1193.00675	0.91195
1190.94984	0.91854
1188.89293	0.92365
1186.83602	0.92702
1184.77911	0.92869
1182.72221	0.92888
1180.66530	0.92799
1178.60839	0.92636
1176.55148	0.92416
1174.49457	0.92181
1172.43766	0.91965
1170.38076	0.91749
1168.32385	0.91522
1166.26694	0.91304
1164.21003	0.91124
1162.15312	0.91033
1160.09622	0.91049
1158.03931	0.91135
1155.98240	0.91277
1153.92549	0.91470
1151.86858	0.91692
1149.81167	0.91904
1147.75477	0.92059
1145.69786	0.92145
1143.64095	0.92185
1141.58404	0.92178
1139.52713	0.92104
1137.47023	0.91980
1135.41332	0.91808
1133.35641	0.91553
1131.29950	0.91251
1129.24259	0.90953
1127.18568	0.90682
1125.12878	0.90453
1123.07187	0.90263
1121.01496	0.90089
1118.95805	0.89925
1116.90114	0.89812
1114.84424	0.89741
1112.78733	0.89671
1110.73042	0.89603
1108.67351	0.89513
1106.61660	0.89374
1104.55969	0.89231
1102.50279	0.89111
1100.44588	0.88958
1098.38897	0.88748
1096.33206	0.88518
1094.27515	0.88284
1092.21825	0.88020
1090.16134	0.87688
1088.10443	0.87291
1086.04752	0.86860
1083.99061	0.86399
1081.93370	0.85904
1079.87680	0.85400
1077.81989	0.84926
1075.76298	0.84501
1073.70607	0.84103
1071.64916	0.83715
1069.59226	0.83341
1067.53535	0.82967
1065.47844	0.82598
1063.42153	0.82259
1061.36462	0.81933
1059.30771	0.81576
1057.25081	0.81190
1055.19390	0.80812
1053.13699	0.80440
1051.08008	0.80039
1049.02317	0.79618
1046.96627	0.79181
1044.90936	0.78740
1042.85245	0.78336
1040.79554	0.77952
1038.73863	0.77573
1036.68172	0.77213
1034.62482	0.76870
1032.56791	0.76579
1030.51100	0.76408
1028.45409	0.76356
1026.39718	0.76361
1024.34028	0.76430
1022.28337	0.76598
1020.22646	0.76851
1018.16955	0.77153
1016.11264	0.77496
1014.05573	0.77906
1011.99883	0.78370
1009.94192	0.78843
1007.88501	0.79329
1005.82810	0.79836
1003.77119	0.80317
1001.71429	0.80753
999.65738	0.81175
997.60047	0.81599
995.54356	0.82022
993.48665	0.82438
991.42974	0.82846
989.37284	0.83243
987.31593	0.83604
985.25902	0.83929
983.20211	0.84259
981.14520	0.84604
979.08830	0.84950
977.03139	0.85292
974.97448	0.85647
972.91757	0.86052
970.86066	0.86500
968.80375	0.86961
966.74685	0.87448
964.68994	0.87942
962.63303	0.88370
960.57612	0.88688
958.51921	0.88918
956.46231	0.89130
954.40540	0.89354
952.34849	0.89551
950.29158	0.89720
948.23467	0.89889
946.17776	0.90073
944.12086	0.90298
942.06395	0.90535
940.00704	0.90709
937.95013	0.90815
935.89322	0.90894
933.83632	0.90946
931.77941	0.90970
929.72250	0.90993
927.66559	0.91013
925.60868	0.90972
923.55177	0.90885
921.49487	0.90833
919.43796	0.90793
917.38105	0.90670
915.32414	0.90498
913.26723	0.90356
911.21033	0.90223
909.15342	0.90087
907.09651	0.89981
905.03960	0.89921
902.98269	0.89933
900.92578	0.89988
898.86888	0.90055
896.81197	0.90172
894.75506	0.90342
892.69815	0.90512
890.64124	0.90673
888.58434	0.90840
886.52743	0.91003
884.47052	0.91188
882.41361	0.91435
880.35670	0.91696
878.29979	0.91928
876.24289	0.92182
874.18598	0.92490
872.12907	0.92802
870.07216	0.93074
868.01525	0.93311
865.95835	0.93479
863.90144	0.93597
861.84453	0.93739
859.78762	0.93874
857.73071	0.93985
855.67380	0.94065
853.61690	0.94067
851.55999	0.94050
849.50308	0.94049
847.44617	0.93995
845.38926	0.93910
843.33236	0.93855
841.27545	0.93832
839.21854	0.93862
837.16163	0.93922
835.10472	0.93974
833.04781	0.94060
830.99091	0.94189
828.93400	0.94316
826.87709	0.94454
824.82018	0.94596
822.76327	0.94717
820.70637	0.94830
818.64946	0.94888
816.59255	0.94903
814.53564	0.94964
812.47873	0.95062
810.42182	0.95095
808.36492	0.95061
806.30801	0.95079
804.25110	0.95145
802.19419	0.95181
800.13728	0.95189
798.08038	0.95193
796.02347	0.95205
793.96656	0.95234
791.90965	0.95273
789.85274	0.95293
787.79583	0.95295
785.73893	0.95339
783.68202	0.95385
781.62511	0.95385
779.56820	0.95374
777.51129	0.95344
775.45439	0.95300
773.39748	0.95295
771.34057	0.95333
769.28366	0.95393
767.22675	0.95450
765.16984	0.95418
763.11294	0.95323
761.05603	0.95320
758.99912	0.95387
756.94221	0.95410
754.88530	0.95402
752.82839	0.95404
750.77149	0.95391
748.71458	0.95354
746.65767	0.95361
744.60076	0.95397
742.54385	0.95385
740.48695	0.95338
738.43004	0.95280
736.37313	0.95251
734.31622	0.95257
732.25931	0.95238
730.20240	0.95152
728.14550	0.95032
726.08859	0.94945
724.03168	0.94873
721.97477	0.94780
719.91786	0.94672
717.86096	0.94602
715.80405	0.94625
713.74714	0.94644
711.69023	0.94537
709.63332	0.94379
707.57641	0.94281
705.51951	0.94255
703.46260	0.94266
701.40569	0.94221
699.34878	0.94129
697.29187	0.94077
695.23497	0.94058
693.17806	0.93997
691.12115	0.93870
689.06424	0.93739
687.00733	0.93621
684.95042	0.93523
682.89352	0.93507
680.83661	0.93562
678.77970	0.93571
676.72279	0.93474
674.66588	0.93345
672.60898	0.93349
670.55207	0.93528
668.49516	0.93584
666.43825	0.93335
664.38134	0.93157
662.32443	0.93051
660.26753	0.93000
658.21062	0.93010
656.15371	0.92927
654.09680	0.92765
652.03989	0.92670
649.98299	0.92607
647.92608	0.92454
645.86917	0.92213
643.81226	0.91976
641.75535	0.91788
639.69844	0.91643
637.64154	0.91558
635.58463	0.91532
633.52772	0.91506
631.47081	0.91445
629.41390	0.91366
627.35700	0.91266
625.30009	0.91184
623.24318	0.91150
621.18627	0.91015
619.12936	0.90702
617.07245	0.90395
615.01555	0.90203
612.95864	0.90029
610.90173	0.89755
608.84482	0.89330
606.78791	0.88862
604.73101	0.88518
602.67410	0.88376
600.61719	0.88415
598.56028	0.88581
596.50337	0.88837
594.44646	0.89108
592.38956	0.89391
590.33265	0.89724
588.27574	0.89966
586.21883	0.90019
584.16192	0.89983
582.10502	0.90007
580.04811	0.90074
577.99120	0.90080
575.93429	0.90083
573.87738	0.90132
571.82047	0.90148
569.76357	0.90109
567.70666	0.90065
565.64975	0.90023
563.59284	0.89987
561.53593	0.90014
559.47903	0.90067
557.42212	0.89994
555.36521	0.89800
553.30830	0.89711
551.25139	0.89750
549.19448	0.89748
547.13758	0.89725
545.08067	0.89770
543.02376	0.89897
540.96685	0.90072
538.90994	0.90136
536.85304	0.90058
534.79613	0.90041
532.73922	0.90104
530.68231	0.90177
528.62540	0.90259
526.56849	0.90200
524.51159	0.90016
522.45468	0.89888
520.39777	0.89806
518.34086	0.89776
516.28395	0.89767
514.22705	0.89649
512.17014	0.89486
510.11323	0.89350
508.05632	0.89157
505.99941	0.88990
503.94250	0.88992
501.88560	0.89052
499.82869	0.89061
497.77178	0.89040
495.71487	0.89001
493.65796	0.88906
491.60106	0.88802
489.54415	0.88778
487.48724	0.88796
485.43033	0.88815
483.37342	0.88766
481.31651	0.88636
479.25961	0.88579
477.20270	0.88644
475.14579	0.88681
473.08888	0.88572
471.03197	0.88408
468.97507	0.88288
466.91816	0.88196
464.86125	0.88140
462.80434	0.87982
460.74743	0.87548
458.69052	0.87055
456.63362	0.86989
454.57671	0.87286
452.51980	0.87460
450.46289	0.87372
448.40598	0.87314
446.34908	0.87446
444.29217	0.87547
442.23526	0.87672
440.17835	0.87783
438.12144	0.87653
436.06453	0.87544
434.00763	0.87596
431.95072	0.87652
429.89381	0.87878
427.83690	0.88169
425.77999	0.88114
423.72309	0.87928
421.66618	0.88005
419.60927	0.88513
417.55236	0.88975
415.49545	0.88673
413.43854	0.88195
411.38164	0.88158
409.32473	0.88524
407.26782	0.88687
405.21091	0.88444
403.15400	0.88193
401.09710	0.88060
399.04019	0.87956
