3996.57260	0.98071
3994.51569	0.98068
3992.45878	0.98158
3990.40188	0.98240
3988.34497	0.98269
3986.28806	0.98298
3984.23115	0.98330
3982.17424	0.98317
3980.11733	0.98294
3978.06043	0.98301
3976.00352	0.98296
3973.94661	0.98281
3971.88970	0.98263
3969.83279	0.98214
3967.77589	0.98196
3965.71898	0.98243
3963.66207	0.98290
3961.60516	0.98313
3959.54825	0.98322
3957.49134	0.98301
3955.43444	0.98296
3953.37753	0.98315
3951.32062	0.98269
3949.26371	0.98168
3947.20680	0.98135
3945.14990	0.98184
3943.09299	0.98219
3941.03608	0.98233
3938.97917	0.98273
3936.92226	0.98325
3934.86535	0.98366
3932.80845	0.98344
3930.75154	0.98254
3928.69463	0.98188
3926.63772	0.98164
3924.58081	0.98192
3922.52391	0.98291
3920.46700	0.98352
3918.41009	0.98324
3916.35318	0.98302
3914.29627	0.98297
3912.23936	0.98279
3910.18246	0.98285
3908.12555	0.98324
3906.06864	0.98359
3904.01173	0.98346
3901.95482	0.98290
3899.89792	0.98255
3897.84101	0.98253
3895.78410	0.98287
3893.72719	0.98325
3891.67028	0.98290
3889.61337	0.98219
3887.55647	0.98210
3885.49956	0.98263
3883.44265	0.98325
3881.38574	0.98351
3879.32883	0.98329
3877.27193	0.98303
3875.21502	0.98281
3873.15811	0.98230
3871.10120	0.98187
3869.04429	0.98230
3866.98738	0.98339
3864.93048	0.98334
3862.87357	0.98198
3860.81666	0.98166
3858.75975	0.98220
3856.70284	0.98245
3854.64594	0.98243
3852.58903	0.98219
3850.53212	0.98191
3848.47521	0.98191
3846.41830	0.98211
3844.36139	0.98242
3842.30449	0.98263
3840.24758	0.98232
3838.19067	0.98148
3836.13376	0.98083
3834.07685	0.98119
3832.01995	0.98244
3829.96304	0.98370
3827.90613	0.98455
3825.84922	0.98479
3823.79231	0.98393
3821.73540	0.98211
3819.67850	0.98146
3817.62159	0.98268
3815.56468	0.98363
3813.50777	0.98348
3811.45086	0.98301
3809.39396	0.98274
3807.33705	0.98297
3805.28014	0.98351
3803.22323	0.98355
3801.16632	0.98275
3799.10941	0.98251
3797.05251	0.98341
3794.99560	0.98389
3792.93869	0.98331
3790.88178	0.98283
3788.82487	0.98322
3786.76796	0.98358
3784.71106	0.98309
3782.65415	0.98230
3780.59724	0.98202
3778.54033	0.98230
3776.48342	0.98241
3774.42652	0.98244
3772.36961	0.98283
3770.31270	0.98344
3768.25579	0.98382
3766.19888	0.98347
3764.14197	0.98309
3762.08507	0.98338
3760.02816	0.98376
3757.97125	0.98365
3755.91434	0.98353
3753.85743	0.98408
3751.80053	0.98446
3749.74362	0.98309
3747.68671	0.98215
3745.62980	0.98275
3743.57289	0.98347
3741.51598	0.98380
3739.45908	0.98403
3737.40217	0.98364
3735.34526	0.98259
3733.28835	0.98245
3731.23144	0.98330
3729.17454	0.98433
3727.11763	0.98521
3725.06072	0.98523
3723.00381	0.98452
3720.94690	0.98399
3718.88999	0.98383
3716.83309	0.98361
3714.77618	0.98334
3712.71927	0.98373
3710.66236	0.98447
3708.60545	0.98439
3706.54855	0.98367
3704.49164	0.98312
3702.43473	0.98336
3700.37782	0.98409
3698.32091	0.98462
3696.26400	0.98484
3694.20710	0.98484
3692.15019	0.98464
3690.09328	0.98409
3688.03637	0.98347
3685.97946	0.98339
3683.92256	0.98369
3681.86565	0.98400
3679.80874	0.98376
3677.75183	0.98260
3675.69492	0.98124
3673.63801	0.98131
3671.58111	0.98212
3669.52420	0.98169
3667.46729	0.98079
3665.41038	0.98121
3663.35347	0.98189
3661.29657	0.98163
3659.23966	0.98090
3657.18275	0.98050
3655.12584	0.98034
3653.06893	0.98042
3651.01202	0.98080
3648.95512	0.98035
3646.89821	0.97933
3644.84130	0.97965
3642.78439	0.98023
3640.72748	0.98010
3638.67058	0.97940
3636.61367	0.97839
3634.55676	0.97769
3632.49985	0.97798
3630.44294	0.97840
3628.38603	0.97763
3626.32913	0.97736
3624.27222	0.97791
3622.21531	0.97805
3620.15840	0.97797
3618.10149	0.97752
3616.04459	0.97611
3613.98768	0.97486
3611.93077	0.97495
3609.87386	0.97521
3607.81695	0.97466
3605.76004	0.97413
3603.70314	0.97387
3601.64623	0.97343
3599.58932	0.97280
3597.53241	0.97240
3595.47550	0.97200
3593.41860	0.97136
3591.36169	0.97132
3589.30478	0.97170
3587.24787	0.97138
3585.19096	0.97058
3583.13405	0.97015
3581.07715	0.97016
3579.02024	0.97014
3576.96333	0.96984
3574.90642	0.96924
3572.84951	0.96844
3570.79261	0.96774
3568.73570	0.96685
3566.67879	0.96591
3564.62188	0.96564
3562.56497	0.96551
3560.50806	0.96501
3558.45116	0.96469
3556.39425	0.96500
3554.33734	0.96515
3552.28043	0.96484
3550.22352	0.96465
3548.16662	0.96402
3546.10971	0.96266
3544.05280	0.96160
3541.99589	0.96082
3539.93898	0.96016
3537.88207	0.96000
3535.82517	0.95973
3533.76826	0.95905
3531.71135	0.95858
3529.65444	0.95812
3527.59753	0.95720
3525.54063	0.95598
3523.48372	0.95522
3521.42681	0.95539
3519.36990	0.95567
3517.31299	0.95564
3515.25608	0.95545
3513.19918	0.95462
3511.14227	0.95325
3509.08536	0.95247
3507.02845	0.95256
3504.97154	0.95265
3502.91464	0.95215
3500.85773	0.95141
3498.80082	0.95084
3496.74391	0.95028
3494.68700	0.95050
3492.63009	0.95132
3490.57319	0.95099
3488.51628	0.95002
3486.45937	0.94977
3484.40246	0.94993
3482.34555	0.94982
3480.28865	0.94940
3478.23174	0.94938
3476.17483	0.94978
3474.11792	0.94973
3472.06101	0.94939
3470.00410	0.94925
3467.94720	0.94910
3465.89029	0.94863
3463.83338	0.94808
3461.77647	0.94786
3459.71956	0.94786
3457.66266	0.94798
3455.60575	0.94810
3453.54884	0.94807
3451.49193	0.94800
3449.43502	0.94811
3447.37811	0.94819
3445.32121	0.94799
3443.26430	0.94821
3441.20739	0.94884
3439.15048	0.94914
3437.09357	0.94943
3435.03667	0.94947
3432.97976	0.94895
3430.92285	0.94881
3428.86594	0.94931
3426.80903	0.94976
3424.75212	0.95014
3422.69522	0.95032
3420.63831	0.95009
3418.58140	0.94990
3416.52449	0.94984
3414.46758	0.95009
3412.41068	0.95077
3410.35377	0.95116
3408.29686	0.95120
3406.23995	0.95147
3404.18304	0.95180
3402.12613	0.95210
3400.06923	0.95248
3398.01232	0.95268
3395.95541	0.95267
3393.89850	0.95247
3391.84159	0.95247
3389.78469	0.95270
3387.72778	0.95255
3385.67087	0.95233
3383.61396	0.95262
3381.55705	0.95340
3379.50014	0.95434
3377.44324	0.95470
3375.38633	0.95440
3373.32942	0.95413
3371.27251	0.95450
3369.21560	0.95528
3367.15870	0.95554
3365.10179	0.95543
3363.04488	0.95568
3360.98797	0.95627
3358.93106	0.95697
3356.87415	0.95709
3354.81725	0.95668
3352.76034	0.95650
3350.70343	0.95656
3348.64652	0.95669
3346.58961	0.95657
3344.53271	0.95637
3342.47580	0.95707
3340.41889	0.95824
3338.36198	0.95873
3336.30507	0.95851
3334.24816	0.95832
3332.19126	0.95891
3330.13435	0.95992
3328.07744	0.96016
3326.02053	0.95959
3323.96362	0.95939
3321.90672	0.95985
3319.84981	0.96026
3317.79290	0.96010
3315.73599	0.95975
3313.67908	0.95994
3311.62217	0.96043
3309.56527	0.96070
3307.50836	0.96100
3305.45145	0.96142
3303.39454	0.96167
3301.33763	0.96195
3299.28073	0.96229
3297.22382	0.96250
3295.16691	0.96251
3293.11000	0.96238
3291.05309	0.96241
3288.99618	0.96269
3286.93928	0.96320
3284.88237	0.96370
3282.82546	0.96384
3280.76855	0.96390
3278.71164	0.96414
3276.65474	0.96440
3274.59783	0.96490
3272.54092	0.96543
3270.48401	0.96547
3268.42710	0.96518
3266.37019	0.96509
3264.31329	0.96510
3262.25638	0.96494
3260.19947	0.96502
3258.14256	0.96563
3256.08565	0.96642
3254.02875	0.96646
3251.97184	0.96556
3249.91493	0.96482
3247.85802	0.96510
3245.80111	0.96624
3243.74420	0.96728
3241.68730	0.96763
3239.63039	0.96749
3237.57348	0.96719
3235.51657	0.96700
3233.45966	0.96710
3231.40276	0.96713
3229.34585	0.96709
3227.28894	0.96730
3225.23203	0.96757
3223.17512	0.96784
3221.11821	0.96806
3219.06131	0.96803
3217.00440	0.96816
3214.94749	0.96840
3212.89058	0.96850
3210.83367	0.96856
3208.77677	0.96831
3206.71986	0.96828
3204.66295	0.96906
3202.60604	0.97002
3200.54913	0.97036
3198.49222	0.97023
3196.43532	0.97039
3194.37841	0.97098
3192.32150	0.97131
3190.26459	0.97089
3188.20768	0.97049
3186.15078	0.97053
3184.09387	0.97047
3182.03696	0.97075
3179.98005	0.97201
3177.92314	0.97309
3175.86623	0.97295
3173.80933	0.97247
3171.75242	0.97208
3169.69551	0.97155
3167.63860	0.97156
3165.58169	0.97224
3163.52479	0.97255
3161.46788	0.97230
3159.41097	0.97226
3157.35406	0.97235
3155.29715	0.97240
3153.24024	0.97265
3151.18334	0.97297
3149.12643	0.97338
3147.06952	0.97400
3145.01261	0.97419
3142.95570	0.97392
3140.89880	0.97397
3138.84189	0.97409
3136.78498	0.97401
3134.72807	0.97408
3132.67116	0.97400
3130.61425	0.97358
3128.55735	0.97352
3126.50044	0.97408
3124.44353	0.97465
3122.38662	0.97465
3120.32971	0.97425
3118.27281	0.97418
3116.21590	0.97478
3114.15899	0.97541
3112.10208	0.97562
3110.04517	0.97548
3107.98826	0.97501
3105.93136	0.97461
3103.87445	0.97457
3101.81754	0.97462
3099.76063	0.97485
3097.70372	0.97510
3095.64682	0.97503
3093.58991	0.97518
3091.53300	0.97565
3089.47609	0.97578
3087.41918	0.97551
3085.36227	0.97527
3083.30537	0.97534
3081.24846	0.97582
3079.19155	0.97616
3077.13464	0.97588
3075.07773	0.97579
3073.02083	0.97629
3070.96392	0.97648
3068.90701	0.97632
3066.85010	0.97626
3064.79319	0.97606
3062.73628	0.97577
3060.67938	0.97581
3058.62247	0.97607
3056.56556	0.97601
3054.50865	0.97587
3052.45174	0.97590
3050.39484	0.97588
3048.33793	0.97597
3046.28102	0.97606
3044.22411	0.97592
3042.16720	0.97585
3040.11029	0.97600
3038.05339	0.97615
3035.99648	0.97625
3033.93957	0.97607
3031.88266	0.97569
3029.82575	0.97577
3027.76885	0.97596
3025.71194	0.97564
3023.65503	0.97532
3021.59812	0.97524
3019.54121	0.97500
3017.48430	0.97467
3015.42740	0.97464
3013.37049	0.97500
3011.31358	0.97537
3009.25667	0.97533
3007.19976	0.97516
3005.14286	0.97538
3003.08595	0.97553
3001.02904	0.97519
2998.97213	0.97506
2996.91522	0.97519
2994.85831	0.97468
2992.80141	0.97397
2990.74450	0.97372
2988.68759	0.97341
2986.63068	0.97306
2984.57377	0.97294
2982.51687	0.97264
2980.45996	0.97238
2978.40305	0.97220
2976.34614	0.97181
2974.28923	0.97152
2972.23232	0.97110
2970.17542	0.97055
2968.11851	0.97012
2966.06160	0.96951
2964.00469	0.96887
2961.94778	0.96855
2959.89088	0.96827
2957.83397	0.96775
2955.77706	0.96730
2953.72015	0.96726
2951.66324	0.96729
2949.60633	0.96697
2947.54943	0.96652
2945.49252	0.96625
2943.43561	0.96612
2941.37870	0.96588
2939.32179	0.96561
2937.26489	0.96557
2935.20798	0.96565
2933.15107	0.96572
2931.09416	0.96569
2929.03725	0.96559
2926.98034	0.96549
2924.92344	0.96542
2922.86653	0.96590
2920.80962	0.96672
2918.75271	0.96680
2916.69580	0.96609
2914.63890	0.96523
2912.58199	0.96459
2910.52508	0.96441
2908.46817	0.96461
2906.41126	0.96489
2904.35435	0.96520
2902.29745	0.96528
2900.24054	0.96483
2898.18363	0.96430
2896.12672	0.96422
2894.06981	0.96436
2892.01291	0.96423
2889.95600	0.96382
2887.89909	0.96354
2885.84218	0.96354
2883.78527	0.96347
2881.72836	0.96334
2879.67146	0.96374
2877.61455	0.96448
2875.55764	0.96488
2873.50073	0.96497
2871.44382	0.96535
2869.38692	0.96605
2867.33001	0.96660
2865.27310	0.96699
2863.21619	0.96737
2861.15928	0.96782
2859.10237	0.96848
2857.04547	0.96899
2854.98856	0.96928
2852.93165	0.96977
2850.87474	0.97044
2848.81783	0.97107
2846.76093	0.97157
2844.70402	0.97185
2842.64711	0.97189
2840.59020	0.97208
2838.53329	0.97281
2836.47638	0.97371
2834.41948	0.97404
2832.36257	0.97382
2830.30566	0.97381
2828.24875	0.97430
2826.19184	0.97453
2824.13494	0.97421
2822.07803	0.97404
2820.02112	0.97421
2817.96421	0.97428
2815.90730	0.97412
2813.85039	0.97399
2811.79349	0.97445
2809.73658	0.97528
2807.67967	0.97553
2805.62276	0.97517
2803.56585	0.97506
2801.50895	0.97535
2799.45204	0.97568
2797.39513	0.97575
2795.33822	0.97545
2793.28131	0.97519
2791.22440	0.97514
2789.16750	0.97511
2787.11059	0.97517
2785.05368	0.97552
2782.99677	0.97584
2780.93986	0.97594
2778.88296	0.97595
2776.82605	0.97584
2774.76914	0.97579
2772.71223	0.97590
2770.65532	0.97588
2768.59841	0.97579
2766.54151	0.97592
2764.48460	0.97618
2762.42769	0.97621
2760.37078	0.97604
2758.31387	0.97595
2756.25697	0.97597
2754.20006	0.97601
2752.14315	0.97603
2750.08624	0.97622
2748.02933	0.97657
2745.97242	0.97666
2743.91552	0.97647
2741.85861	0.97629
2739.80170	0.97626
2737.74479	0.97639
2735.68788	0.97649
2733.63098	0.97639
2731.57407	0.97629
2729.51716	0.97641
2727.46025	0.97665
2725.40334	0.97664
2723.34643	0.97637
2721.28953	0.97617
2719.23262	0.97609
2717.17571	0.97590
2715.11880	0.97580
2713.06189	0.97609
2711.00499	0.97642
2708.94808	0.97660
2706.89117	0.97678
2704.83426	0.97683
2702.77735	0.97692
2700.72044	0.97722
2698.66354	0.97719
2696.60663	0.97692
2694.54972	0.97697
2692.49281	0.97715
2690.43590	0.97710
2688.37900	0.97698
2686.32209	0.97699
2684.26518	0.97692
2682.20827	0.97673
2680.15136	0.97675
2678.09445	0.97691
2676.03755	0.97705
2673.98064	0.97694
2671.92373	0.97654
2669.86682	0.97639
2667.80991	0.97639
2665.75301	0.97616
2663.69610	0.97592
2661.63919	0.97587
2659.58228	0.97580
2657.52537	0.97574
2655.46846	0.97601
2653.41156	0.97630
2651.35465	0.97631
2649.29774	0.97645
2647.24083	0.97676
2645.18392	0.97691
2643.12702	0.97679
2641.07011	0.97652
2639.01320	0.97617
2636.95629	0.97622
2634.89938	0.97699
2632.84247	0.97732
2630.78557	0.97689
2628.72866	0.97665
2626.67175	0.97670
2624.61484	0.97689
2622.55793	0.97706
2620.50103	0.97695
2618.44412	0.97649
2616.38721	0.97600
2614.33030	0.97610
2612.27339	0.97680
2610.21648	0.97765
2608.15958	0.97849
2606.10267	0.97884
2604.04576	0.97834
2601.98885	0.97753
2599.93194	0.97700
2597.87504	0.97711
2595.81813	0.97770
2593.76122	0.97788
2591.70431	0.97779
2589.64740	0.97805
2587.59049	0.97824
2585.53359	0.97806
2583.47668	0.97806
2581.41977	0.97820
2579.36286	0.97793
2577.30595	0.97797
2575.24905	0.97851
2573.19214	0.97881
2571.13523	0.97903
2569.07832	0.97897
2567.02141	0.97858
2564.96450	0.97852
2562.90760	0.97842
2560.85069	0.97812
2558.79378	0.97817
2556.73687	0.97856
2554.67996	0.97882
2552.62306	0.97881
2550.56615	0.97894
2548.50924	0.97904
2546.45233	0.97873
2544.39542	0.97848
2542.33851	0.97845
2540.28161	0.97811
2538.22470	0.97780
2536.16779	0.97853
2534.11088	0.97962
2532.05397	0.97970
2529.99707	0.97926
2527.94016	0.97933
2525.88325	0.97972
2523.82634	0.97980
2521.76943	0.97963
2519.71252	0.97961
2517.65562	0.97935
2515.59871	0.97898
2513.54180	0.97929
2511.48489	0.97991
2509.42798	0.98005
2507.37108	0.98015
2505.31417	0.98011
2503.25726	0.97949
2501.20035	0.97860
2499.14344	0.97780
2497.08653	0.97788
2495.02963	0.97892
2492.97272	0.97964
2490.91581	0.97927
2488.85890	0.97852
2486.80199	0.97841
2484.74509	0.97870
2482.68818	0.97892
2480.63127	0.97939
2478.57436	0.98015
2476.51745	0.98056
2474.46054	0.98002
2472.40364	0.97924
2470.34673	0.97930
2468.28982	0.97969
2466.23291	0.97978
2464.17600	0.97987
2462.11910	0.97982
2460.06219	0.97948
2458.00528	0.97930
2455.94837	0.97948
2453.89146	0.97949
2451.83455	0.97887
2449.77765	0.97822
2447.72074	0.97850
2445.66383	0.97952
2443.60692	0.98011
2441.55001	0.97986
2439.49311	0.97944
2437.43620	0.97948
2435.37929	0.97973
2433.32238	0.98012
2431.26547	0.98069
2429.20856	0.98063
2427.15166	0.98009
2425.09475	0.97983
2423.03784	0.97987
2420.98093	0.98011
2418.92402	0.98042
2416.86712	0.98039
2414.81021	0.98005
2412.75330	0.97993
2410.69639	0.98004
2408.63948	0.98006
2406.58257	0.98010
2404.52567	0.98018
2402.46876	0.98009
2400.41185	0.97986
2398.35494	0.97977
2396.29803	0.97981
2394.24113	0.97982
2392.18422	0.97993
2390.12731	0.98000
2388.07040	0.98004
2386.01349	0.98045
2383.95658	0.98097
2381.89968	0.98078
2379.84277	0.97978
2377.78586	0.97906
2375.72895	0.97953
2373.67204	0.98064
2371.61514	0.98126
2369.55823	0.98121
2367.50132	0.98155
2365.44441	0.98260
2363.38750	0.98239
2361.33059	0.97972
2359.27369	0.97736
2357.21678	0.97787
2355.15987	0.97944
2353.10296	0.97999
2351.04605	0.98002
2348.98915	0.98038
2346.93224	0.98106
2344.87533	0.98140
2342.81842	0.98075
2340.76151	0.98012
2338.70460	0.98033
2336.64770	0.98040
2334.59079	0.97984
2332.53388	0.97893
2330.47697	0.97816
2328.42006	0.97823
2326.36316	0.97850
2324.30625	0.97868
2322.24934	0.97955
2320.19243	0.98022
2318.13552	0.98024
2316.07861	0.98020
2314.02171	0.97987
2311.96480	0.97950
2309.90789	0.97936
2307.85098	0.97928
2305.79407	0.97904
2303.73717	0.97875
2301.68026	0.97893
2299.62335	0.97957
2297.56644	0.97969
2295.50953	0.97904
2293.45262	0.97885
2291.39572	0.97937
2289.33881	0.97938
2287.28190	0.97898
2285.22499	0.97922
2283.16808	0.97973
2281.11117	0.97992
2279.05427	0.98021
2276.99736	0.98048
2274.94045	0.98077
2272.88354	0.98094
2270.82663	0.98006
2268.76973	0.97912
2266.71282	0.97937
2264.65591	0.97974
2262.59900	0.97959
2260.54209	0.97957
2258.48518	0.97974
2256.42828	0.97992
2254.37137	0.97986
2252.31446	0.97900
2250.25755	0.97787
2248.20064	0.97773
2246.14374	0.97804
2244.08683	0.97787
2242.02992	0.97819
2239.97301	0.97927
2237.91610	0.98017
2235.85919	0.98036
2233.80229	0.97947
2231.74538	0.97809
2229.68847	0.97824
2227.63156	0.98060
2225.57465	0.98256
2223.51775	0.98205
2221.46084	0.97956
2219.40393	0.97821
2217.34702	0.97945
2215.29011	0.98016
2213.23320	0.98028
2211.17630	0.98093
2209.11939	0.98059
2207.06248	0.97993
2205.00557	0.97987
2202.94866	0.97973
2200.89176	0.97971
2198.83485	0.97993
2196.77794	0.98012
2194.72103	0.98042
2192.66412	0.98013
2190.60721	0.97924
2188.55031	0.97931
2186.49340	0.97980
2184.43649	0.97940
2182.37958	0.97933
2180.32267	0.98030
2178.26577	0.98135
2176.20886	0.98191
2174.15195	0.98149
2172.09504	0.98004
2170.03813	0.97939
2167.98122	0.98070
2165.92432	0.98132
2163.86741	0.97965
2161.81050	0.97924
2159.75359	0.98269
2157.69668	0.98559
2155.63978	0.98395
2153.58287	0.98092
2151.52596	0.98013
2149.46905	0.98229
2147.41214	0.98550
2145.35523	0.98626
2143.29833	0.98525
2141.24142	0.98469
2139.18451	0.98394
2137.12760	0.98369
2135.07069	0.98442
2133.01379	0.98478
2130.95688	0.98414
2128.89997	0.98337
2126.84306	0.98339
2124.78615	0.98307
2122.72924	0.98172
2120.67234	0.98100
2118.61543	0.98160
2116.55852	0.98225
2114.50161	0.98226
2112.44470	0.98190
2110.38780	0.98101
2108.33089	0.97997
2106.27398	0.98009
2104.21707	0.98104
2102.16016	0.98140
2100.10325	0.98097
2098.04635	0.98041
2095.98944	0.98048
2093.93253	0.98101
2091.87562	0.98177
2089.81871	0.98207
2087.76181	0.98118
2085.70490	0.98000
2083.64799	0.97941
2081.59108	0.97995
2079.53417	0.98094
2077.47726	0.98080
2075.42036	0.98023
2073.36345	0.98045
2071.30654	0.98097
2069.24963	0.98136
2067.19272	0.98210
2065.13582	0.98315
2063.07891	0.98305
2061.02200	0.98094
2058.96509	0.97895
2056.90818	0.97884
2054.85127	0.97942
2052.79437	0.97993
2050.73746	0.98118
2048.68055	0.98330
2046.62364	0.98427
2044.56673	0.98305
2042.50983	0.98209
2040.45292	0.98312
2038.39601	0.98384
2036.33910	0.98269
2034.28219	0.98064
2032.22528	0.97942
2030.16838	0.98035
2028.11147	0.98161
2026.05456	0.98281
2023.99765	0.98485
2021.94074	0.98559
2019.88384	0.98357
2017.82693	0.98012
2015.77002	0.97894
2013.71311	0.98161
2011.65620	0.98569
2009.59929	0.98876
2007.54239	0.98938
2005.48548	0.98770
2003.42857	0.98590
2001.37166	0.98500
1999.31475	0.98424
1997.25785	0.98412
1995.20094	0.98481
1993.14403	0.98489
1991.08712	0.98436
1989.03021	0.98438
1986.97330	0.98511
1984.91640	0.98549
1982.85949	0.98447
1980.80258	0.98312
1978.74567	0.98265
1976.68876	0.98327
1974.63186	0.98456
1972.57495	0.98514
1970.51804	0.98614
1968.46113	0.98757
1966.40422	0.98715
1964.34731	0.98533
1962.29041	0.98331
1960.23350	0.98285
1958.17659	0.98444
1956.11968	0.98541
1954.06277	0.98503
1952.00587	0.98523
1949.94896	0.98592
1947.89205	0.98569
1945.83514	0.98526
1943.77823	0.98501
1941.72132	0.98398
1939.66442	0.98355
1937.60751	0.98445
1935.55060	0.98462
1933.49369	0.98384
1931.43678	0.98366
1929.37988	0.98419
1927.32297	0.98508
1925.26606	0.98593
1923.20915	0.98555
1921.15224	0.98411
1919.09533	0.98341
1917.03843	0.98351
1914.98152	0.98307
1912.92461	0.98263
1910.86770	0.98317
1908.81079	0.98374
1906.75389	0.98376
1904.69698	0.98364
1902.64007	0.98400
1900.58316	0.98515
1898.52625	0.98585
1896.46934	0.98522
1894.41244	0.98431
1892.35553	0.98412
1890.29862	0.98438
1888.24171	0.98455
1886.18480	0.98449
1884.12790	0.98459
1882.07099	0.98482
1880.01408	0.98488
1877.95717	0.98526
1875.90026	0.98588
1873.84335	0.98579
1871.78645	0.98539
1869.72954	0.98569
1867.67263	0.98607
1865.61572	0.98558
1863.55881	0.98518
1861.50191	0.98550
1859.44500	0.98584
1857.38809	0.98589
1855.33118	0.98549
1853.27427	0.98460
1851.21736	0.98400
1849.16046	0.98425
1847.10355	0.98510
1845.04664	0.98565
1842.98973	0.98543
1840.93282	0.98525
1838.87592	0.98533
1836.81901	0.98517
1834.76210	0.98496
1832.70519	0.98489
1830.64828	0.98462
1828.59137	0.98399
1826.53447	0.98373
1824.47756	0.98443
1822.42065	0.98517
1820.36374	0.98505
1818.30683	0.98459
1816.24993	0.98440
1814.19302	0.98449
1812.13611	0.98441
1810.07920	0.98412
1808.02229	0.98414
1805.96538	0.98387
1803.90848	0.98305
1801.85157	0.98257
1799.79466	0.98259
1797.73775	0.98248
1795.68084	0.98210
1793.62394	0.98175
1791.56703	0.98134
1789.51012	0.98066
1787.45321	0.97996
1785.39630	0.97939
1783.33939	0.97854
1781.28249	0.97725
1779.22558	0.97580
1777.16867	0.97442
1775.11176	0.97250
1773.05485	0.96896
1770.99795	0.96393
1768.94104	0.95851
1766.88413	0.95202
1764.82722	0.94416
1762.77031	0.93384
1760.71340	0.92127
1758.65650	0.90950
1756.59959	0.89768
1754.54268	0.88696
1752.48577	0.87740
1750.42886	0.86642
1748.37196	0.85587
1746.31505	0.84774
1744.25814	0.84101
1742.20123	0.83522
1740.14432	0.82949
1738.08741	0.82487
1736.03051	0.82239
1733.97360	0.81983
1731.91669	0.81810
1729.85978	0.81838
1727.80287	0.81956
1725.74597	0.82157
1723.68906	0.82463
1721.63215	0.82848
1719.57524	0.83343
1717.51833	0.84091
1715.46142	0.85017
1713.40452	0.85897
1711.34761	0.86760
1709.29070	0.87642
1707.23379	0.88584
1705.17688	0.89588
1703.11998	0.90424
1701.06307	0.91181
1699.00616	0.91974
1696.94925	0.92617
1694.89234	0.93157
1692.83543	0.93529
1690.77853	0.93829
1688.72162	0.94138
1686.66471	0.94387
1684.60780	0.94610
1682.55089	0.94843
1680.49399	0.95051
1678.43708	0.95228
1676.38017	0.95329
1674.32326	0.95364
1672.26635	0.95409
1670.20944	0.95455
1668.15254	0.95496
1666.09563	0.95547
1664.03872	0.95564
1661.98181	0.95532
1659.92490	0.95516
1657.86800	0.95524
1655.81109	0.95512
1653.75418	0.95438
1651.69727	0.95338
1649.64036	0.95344
1647.58345	0.95392
1645.52655	0.95395
1643.46964	0.95388
1641.41273	0.95431
1639.35582	0.95486
1637.29891	0.95512
1635.24201	0.95526
1633.18510	0.95564
1631.12819	0.95614
1629.07128	0.95650
1627.01437	0.95681
1624.95746	0.95752
1622.90056	0.95863
1620.84365	0.95962
1618.78674	0.96058
1616.72983	0.96191
1614.67292	0.96307
1612.61602	0.96375
1610.55911	0.96436
1608.50220	0.96492
1606.44529	0.96543
1604.38838	0.96624
1602.33147	0.96732
1600.27457	0.96805
1598.21766	0.96840
1596.16075	0.96873
1594.10384	0.96909
1592.04693	0.96971
1589.99003	0.97037
1587.93312	0.97071
1585.87621	0.97095
1583.81930	0.97102
1581.76239	0.97105
1579.70548	0.97148
1577.64858	0.97201
1575.59167	0.97232
1573.53476	0.97255
1571.47785	0.97269
1569.42094	0.97277
1567.36404	0.97290
1565.30713	0.97299
1563.25022	0.97299
1561.19331	0.97307
1559.13640	0.97333
1557.07949	0.97338
1555.02259	0.97336
1552.96568	0.97382
1550.90877	0.97457
1548.85186	0.97491
1546.79495	0.97468
1544.73805	0.97436
1542.68114	0.97459
1540.62423	0.97535
1538.56732	0.97543
1536.51041	0.97501
1534.45350	0.97492
1532.39660	0.97547
1530.33969	0.97604
1528.28278	0.97631
1526.22587	0.97641
1524.16896	0.97649
1522.11206	0.97680
1520.05515	0.97706
1517.99824	0.97695
1515.94133	0.97665
1513.88442	0.97630
1511.82751	0.97600
1509.77061	0.97588
1507.71370	0.97589
1505.65679	0.97623
1503.59988	0.97663
1501.54297	0.97671
1499.48607	0.97661
1497.42916	0.97656
1495.37225	0.97650
1493.31534	0.97641
1491.25843	0.97629
1489.20152	0.97606
1487.14462	0.97590
1485.08771	0.97599
1483.03080	0.97591
1480.97389	0.97546
1478.91698	0.97484
1476.86008	0.97392
1474.80317	0.97258
1472.74626	0.97112
1470.68935	0.96993
1468.63244	0.96885
1466.57553	0.96715
1464.51863	0.96469
1462.46172	0.96275
1460.40481	0.96161
1458.34790	0.96004
1456.29099	0.95761
1454.23409	0.95609
1452.17718	0.95522
1450.12027	0.95415
1448.06336	0.95263
1446.00645	0.95084
1443.94954	0.94914
1441.89264	0.94733
1439.83573	0.94559
1437.77882	0.94409
1435.72191	0.94255
1433.66500	0.94151
1431.60810	0.94124
1429.55119	0.94163
1427.49428	0.94229
1425.43737	0.94300
1423.38046	0.94391
1421.32355	0.94522
1419.26665	0.94666
1417.20974	0.94744
1415.15283	0.94798
1413.09592	0.94880
1411.03901	0.94961
1408.98211	0.95011
1406.92520	0.95050
1404.86829	0.95093
1402.81138	0.95107
1400.75447	0.95069
1398.69756	0.94973
1396.64066	0.94792
1394.58375	0.94507
1392.52684	0.94171
1390.46993	0.93810
1388.41302	0.93306
1386.35612	0.92610
1384.29921	0.91899
1382.24230	0.91219
1380.18539	0.90497
1378.12848	0.89789
1376.07157	0.89154
1374.01467	0.88516
1371.95776	0.87977
1369.90085	0.87699
1367.84394	0.87668
1365.78703	0.87892
1363.73013	0.88456
1361.67322	0.89393
1359.61631	0.90458
1357.55940	0.91467
1355.50249	0.92373
1353.44558	0.93115
1351.38868	0.93666
1349.33177	0.94049
1347.27486	0.94310
1345.21795	0.94495
1343.16104	0.94638
1341.10414	0.94750
1339.04723	0.94833
1336.99032	0.94879
1334.93341	0.94904
1332.87650	0.94939
1330.81959	0.94966
1328.76269	0.94969
1326.70578	0.94952
1324.64887	0.94904
1322.59196	0.94845
1320.53505	0.94808
1318.47815	0.94785
1316.42124	0.94759
1314.36433	0.94748
1312.30742	0.94777
1310.25051	0.94825
1308.19360	0.94861
1306.13670	0.94891
1304.07979	0.94912
1302.02288	0.94912
1299.96597	0.94869
1297.90906	0.94756
1295.85216	0.94596
1293.79525	0.94426
1291.73834	0.94235
1289.68143	0.94013
1287.62452	0.93776
1285.56761	0.93512
1283.51071	0.93195
1281.45380	0.92833
1279.39689	0.92417
1277.33998	0.91934
1275.28307	0.91425
1273.22617	0.90911
1271.16926	0.90354
1269.11235	0.89756
1267.05544	0.89147
1264.99853	0.88522
1262.94162	0.87853
1260.88472	0.87139
1258.82781	0.86392
1256.77090	0.85612
1254.71399	0.84834
1252.65708	0.84078
1250.60018	0.83317
1248.54327	0.82526
1246.48636	0.81705
1244.42945	0.80894
1242.37254	0.80114
1240.31563	0.79351
1238.25873	0.78592
1236.20182	0.77851
1234.14491	0.77164
1232.08800	0.76557
1230.03109	0.76018
1227.97419	0.75574
1225.91728	0.75255
1223.86037	0.75063
1221.80346	0.75030
1219.74655	0.75191
1217.68964	0.75546
1215.63274	0.76093
1213.57583	0.76855
1211.51892	0.77840
1209.46201	0.78993
1207.40510	0.80267
1205.34820	0.81642
1203.29129	0.83046
1201.23438	0.84427
1199.17747	0.85778
1197.12056	0.87045
1195.06365	0.88161
1193.00675	0.89081
1190.94984	0.89803
1188.89293	0.90359
1186.83602	0.90749
1184.77911	0.90967
1182.72221	0.91033
1180.66530	0.90961
1178.60839	0.90795
1176.55148	0.90578
1174.49457	0.90307
1172.43766	0.89991
1170.38076	0.89676
1168.32385	0.89399
1166.26694	0.89167
1164.21003	0.88988
1162.15312	0.88901
1160.09622	0.88921
1158.03931	0.89015
1155.98240	0.89177
1153.92549	0.89412
1151.86858	0.89694
1149.81167	0.89988
1147.75477	0.90217
1145.69786	0.90337
1143.64095	0.90367
1141.58404	0.90328
1139.52713	0.90211
1137.47023	0.90013
1135.41332	0.89764
1133.35641	0.89478
1131.29950	0.89156
1129.24259	0.88821
1127.18568	0.88519
1125.12878	0.88279
1123.07187	0.88078
1121.01496	0.87883
1118.95805	0.87680
1116.90114	0.87488
1114.84424	0.87370
1112.78733	0.87318
1110.73042	0.87240
1108.67351	0.87091
1106.61660	0.86926
1104.55969	0.86798
1102.50279	0.86664
1100.44588	0.86465
1098.38897	0.86221
1096.33206	0.85937
1094.27515	0.85607
1092.21825	0.85253
1090.16134	0.84859
1088.10443	0.84394
1086.04752	0.83859
1083.99061	0.83275
1081.93370	0.82663
1079.87680	0.82053
1077.81989	0.81490
1075.76298	0.81000
1073.70607	0.80531
1071.64916	0.80036
1069.59226	0.79567
1067.53535	0.79150
1065.47844	0.78738
1063.42153	0.78291
1061.36462	0.77816
1059.30771	0.77343
1057.25081	0.76884
1055.19390	0.76432
1053.13699	0.75953
1051.08008	0.75441
1049.02317	0.74936
1046.96627	0.74434
1044.90936	0.73935
1042.85245	0.73464
1040.79554	0.72990
1038.73863	0.72498
1036.68172	0.72027
1034.62482	0.71589
1032.56791	0.71213
1030.51100	0.70962
1028.45409	0.70853
1026.39718	0.70866
1024.34028	0.70997
1022.28337	0.71221
1020.22646	0.71518
1018.16955	0.71874
1016.11264	0.72272
1014.05573	0.72753
1011.99883	0.73299
1009.94192	0.73844
1007.88501	0.74416
1005.82810	0.75030
1003.77119	0.75616
1001.71429	0.76161
999.65738	0.76722
997.60047	0.77312
995.54356	0.77875
993.48665	0.78363
991.42974	0.78825
989.37284	0.79338
987.31593	0.79853
985.25902	0.80273
983.20211	0.80617
981.14520	0.80959
979.08830	0.81311
977.03139	0.81701
974.97448	0.82183
972.91757	0.82721
970.86066	0.83285
968.80375	0.83879
966.74685	0.84471
964.68994	0.85018
962.63303	0.85489
960.57612	0.85880
958.51921	0.86229
956.46231	0.86534
954.40540	0.86760
952.34849	0.86934
950.29158	0.87121
948.23467	0.87341
946.17776	0.87596
944.12086	0.87891
942.06395	0.88159
940.00704	0.88344
937.95013	0.88473
935.89322	0.88582
933.83632	0.88668
931.77941	0.88702
929.72250	0.88693
927.66559	0.88666
925.60868	0.88596
923.55177	0.88502
921.49487	0.88418
919.43796	0.88323
917.38105	0.88233
915.32414	0.88154
913.26723	0.88030
911.21033	0.87849
909.15342	0.87664
907.09651	0.87526
905.03960	0.87452
902.98269	0.87435
900.92578	0.87471
898.86888	0.87576
896.81197	0.87715
894.75506	0.87853
892.69815	0.88014
890.64124	0.88212
888.58434	0.88433
886.52743	0.88661
884.47052	0.88900
882.41361	0.89173
880.35670	0.89466
878.29979	0.89736
876.24289	0.90038
874.18598	0.90403
872.12907	0.90757
870.07216	0.91064
868.01525	0.91329
865.95835	0.91570
863.90144	0.91811
861.84453	0.92015
859.78762	0.92159
857.73071	0.92283
855.67380	0.92404
853.61690	0.92472
851.55999	0.92428
849.50308	0.92330
847.44617	0.92275
845.38926	0.92265
843.33236	0.92244
841.27545	0.92186
839.21854	0.92152
837.16163	0.92207
835.10472	0.92343
833.04781	0.92497
830.99091	0.92639
828.93400	0.92782
826.87709	0.92934
824.82018	0.93093
822.76327	0.93191
820.70637	0.93231
818.64946	0.93308
816.59255	0.93395
814.53564	0.93459
812.47873	0.93549
810.42182	0.93641
808.36492	0.93689
806.30801	0.93715
804.25110	0.93736
802.19419	0.93774
800.13728	0.93838
798.08038	0.93861
796.02347	0.93840
793.96656	0.93829
791.90965	0.93811
789.85274	0.93801
787.79583	0.93847
785.73893	0.93905
783.68202	0.93924
781.62511	0.93915
779.56820	0.93881
777.51129	0.93880
775.45439	0.93937
773.39748	0.93968
771.34057	0.93961
769.28366	0.93952
767.22675	0.93984
765.16984	0.94081
763.11294	0.94122
761.05603	0.94062
758.99912	0.94027
756.94221	0.94065
754.88530	0.94101
752.82839	0.94091
750.77149	0.94046
748.71458	0.94003
746.65767	0.94006
744.60076	0.93992
742.54385	0.93901
740.48695	0.93855
738.43004	0.93900
736.37313	0.93907
734.31622	0.93829
732.25931	0.93725
730.20240	0.93640
728.14550	0.93554
726.08859	0.93446
724.03168	0.93350
721.97477	0.93281
719.91786	0.93188
717.86096	0.93095
715.80405	0.93052
713.74714	0.92983
711.69023	0.92874
709.63332	0.92790
707.57641	0.92688
705.51951	0.92576
703.46260	0.92519
701.40569	0.92488
699.34878	0.92450
697.29187	0.92409
695.23497	0.92341
693.17806	0.92239
691.12115	0.92117
689.06424	0.92015
687.00733	0.91958
684.95042	0.91908
682.89352	0.91844
680.83661	0.91732
678.77970	0.91626
676.72279	0.91566
674.66588	0.91474
672.60898	0.91391
670.55207	0.91347
668.49516	0.91242
666.43825	0.91157
664.38134	0.91190
662.32443	0.91211
660.26753	0.91167
658.21062	0.91067
656.15371	0.90928
654.09680	0.90772
652.03989	0.90587
649.98299	0.90427
647.92608	0.90325
645.86917	0.90153
643.81226	0.89876
641.75535	0.89616
639.69844	0.89430
637.64154	0.89303
635.58463	0.89191
633.52772	0.89012
631.47081	0.88829
629.41390	0.88733
627.35700	0.88698
625.30009	0.88672
623.24318	0.88563
621.18627	0.88403
619.12936	0.88255
617.07245	0.88023
615.01555	0.87680
612.95864	0.87295
610.90173	0.86812
608.84482	0.86238
606.78791	0.85709
604.73101	0.85276
602.67410	0.85064
600.61719	0.85164
598.56028	0.85385
596.50337	0.85607
594.44646	0.85910
592.38956	0.86279
590.33265	0.86621
588.27574	0.86908
586.21883	0.87137
584.16192	0.87269
582.10502	0.87314
580.04811	0.87349
577.99120	0.87364
575.93429	0.87332
573.87738	0.87284
571.82047	0.87243
569.76357	0.87139
567.70666	0.86937
565.64975	0.86834
563.59284	0.86940
561.53593	0.87052
559.47903	0.87030
557.42212	0.86978
555.36521	0.86977
553.30830	0.87043
551.25139	0.87189
549.19448	0.87378
547.13758	0.87522
545.08067	0.87546
543.02376	0.87476
540.96685	0.87395
538.90994	0.87344
536.85304	0.87299
534.79613	0.87185
532.73922	0.87133
530.68231	0.87222
528.62540	0.87154
526.56849	0.86929
524.51159	0.86783
522.45468	0.86713
520.39777	0.86758
518.34086	0.86842
516.28395	0.86751
514.22705	0.86548
512.17014	0.86437
510.11323	0.86448
508.05632	0.86450
505.99941	0.86402
503.94250	0.86380
501.88560	0.86341
499.82869	0.86160
497.77178	0.85871
495.71487	0.85650
493.65796	0.85602
491.60106	0.85629
489.54415	0.85620
487.48724	0.85598
485.43033	0.85630
483.37342	0.85653
481.31651	0.85623
479.25961	0.85631
477.20270	0.85556
475.14579	0.85275
473.08888	0.84969
471.03197	0.84837
468.97507	0.84811
466.91816	0.84768
464.86125	0.84659
462.80434	0.84469
460.74743	0.84352
458.69052	0.84437
456.63362	0.84608
454.57671	0.84634
452.51980	0.84356
450.46289	0.83867
448.40598	0.83507
446.34908	0.83454
444.29217	0.83621
442.23526	0.83803
440.17835	0.83851
438.12144	0.83886
436.06453	0.83948
434.00763	0.83977
431.95072	0.84100
429.89381	0.84208
427.83690	0.84102
425.77999	0.83904
423.72309	0.83857
421.66618	0.84120
419.60927	0.84574
417.55236	0.84710
415.49545	0.84598
413.43854	0.84758
411.38164	0.85055
409.32473	0.85015
407.26782	0.84816
405.21091	0.84837
403.15400	0.84854
401.09710	0.84762
399.04019	0.84676
