3996.57260	0.99067
3994.51569	0.99024
3992.45878	0.98996
3990.40188	0.99015
3988.34497	0.99038
3986.28806	0.99030
3984.23115	0.98992
3982.17424	0.98946
3980.11733	0.98914
3978.06043	0.98910
3976.00352	0.98935
3973.94661	0.98979
3971.88970	0.99037
3969.83279	0.99075
3967.77589	0.99021
3965.71898	0.98945
3963.66207	0.98960
3961.60516	0.98993
3959.54825	0.98947
3957.49134	0.98924
3955.43444	0.98987
3953.37753	0.99004
3951.32062	0.98949
3949.26371	0.98922
3947.20680	0.98957
3945.14990	0.98994
3943.09299	0.98964
3941.03608	0.98901
3938.97917	0.98876
3936.92226	0.98910
3934.86535	0.99006
3932.80845	0.99101
3930.75154	0.99114
3928.69463	0.99070
3926.63772	0.99000
3924.58081	0.98951
3922.52391	0.98994
3920.46700	0.99062
3918.41009	0.99042
3916.35318	0.98957
3914.29627	0.98967
3912.23936	0.99059
3910.18246	0.99073
3908.12555	0.99017
3906.06864	0.99001
3904.01173	0.99019
3901.95482	0.99041
3899.89792	0.99045
3897.84101	0.99045
3895.78410	0.99074
3893.72719	0.99087
3891.67028	0.99012
3889.61337	0.98914
3887.55647	0.98908
3885.49956	0.98954
3883.44265	0.99002
3881.38574	0.99057
3879.32883	0.99064
3877.27193	0.98993
3875.21502	0.98921
3873.15811	0.98941
3871.10120	0.99052
3869.04429	0.99083
3866.98738	0.98990
3864.93048	0.98968
3862.87357	0.99040
3860.81666	0.99088
3858.75975	0.99099
3856.70284	0.99098
3854.64594	0.99081
3852.58903	0.99018
3850.53212	0.98948
3848.47521	0.98904
3846.41830	0.98852
3844.36139	0.98824
3842.30449	0.98910
3840.24758	0.99057
3838.19067	0.99107
3836.13376	0.99041
3834.07685	0.99010
3832.01995	0.99043
3829.96304	0.99029
3827.90613	0.98978
3825.84922	0.98939
3823.79231	0.98893
3821.73540	0.98869
3819.67850	0.98923
3817.62159	0.98964
3815.56468	0.98948
3813.50777	0.98980
3811.45086	0.99062
3809.39396	0.99116
3807.33705	0.99094
3805.28014	0.99043
3803.22323	0.99056
3801.16632	0.99095
3799.10941	0.99101
3797.05251	0.99076
3794.99560	0.99036
3792.93869	0.99012
3790.88178	0.99021
3788.82487	0.99075
3786.76796	0.99143
3784.71106	0.99167
3782.65415	0.99145
3780.59724	0.99124
3778.54033	0.99121
3776.48342	0.99098
3774.42652	0.99043
3772.36961	0.99028
3770.31270	0.99064
3768.25579	0.99075
3766.19888	0.99038
3764.14197	0.98983
3762.08507	0.98929
3760.02816	0.98887
3757.97125	0.98906
3755.91434	0.98988
3753.85743	0.99066
3751.80053	0.99050
3749.74362	0.98973
3747.68671	0.98954
3745.62980	0.98874
3743.57289	0.98771
3741.51598	0.98812
3739.45908	0.98858
3737.40217	0.98811
3735.34526	0.98761
3733.28835	0.98830
3731.23144	0.98949
3729.17454	0.99043
3727.11763	0.99082
3725.06072	0.99028
3723.00381	0.98965
3720.94690	0.98952
3718.88999	0.98902
3716.83309	0.98880
3714.77618	0.98958
3712.71927	0.99052
3710.66236	0.99063
3708.60545	0.99022
3706.54855	0.98983
3704.49164	0.98966
3702.43473	0.98971
3700.37782	0.98944
3698.32091	0.98921
3696.26400	0.98956
3694.20710	0.99028
3692.15019	0.99128
3690.09328	0.99183
3688.03637	0.99098
3685.97946	0.98999
3683.92256	0.98987
3681.86565	0.99031
3679.80874	0.99087
3677.75183	0.99156
3675.69492	0.99224
3673.63801	0.99153
3671.58111	0.99039
3669.52420	0.99021
3667.46729	0.99059
3665.41038	0.99080
3663.35347	0.99043
3661.29657	0.98944
3659.23966	0.98866
3657.18275	0.98835
3655.12584	0.98818
3653.06893	0.98862
3651.01202	0.98931
3648.95512	0.98874
3646.89821	0.98784
3644.84130	0.98781
3642.78439	0.98788
3640.72748	0.98808
3638.67058	0.98875
3636.61367	0.98923
3634.55676	0.98843
3632.49985	0.98701
3630.44294	0.98669
3628.38603	0.98744
3626.32913	0.98764
3624.27222	0.98715
3622.21531	0.98679
3620.15840	0.98699
3618.10149	0.98696
3616.04459	0.98640
3613.98768	0.98597
3611.93077	0.98605
3609.87386	0.98675
3607.81695	0.98749
3605.76004	0.98784
3603.70314	0.98805
3601.64623	0.98789
3599.58932	0.98752
3597.53241	0.98755
3595.47550	0.98733
3593.41860	0.98698
3591.36169	0.98717
3589.30478	0.98679
3587.24787	0.98532
3585.19096	0.98476
3583.13405	0.98548
3581.07715	0.98616
3579.02024	0.98629
3576.96333	0.98610
3574.90642	0.98586
3572.84951	0.98571
3570.79261	0.98564
3568.73570	0.98557
3566.67879	0.98542
3564.62188	0.98487
3562.56497	0.98394
3560.50806	0.98315
3558.45116	0.98319
3556.39425	0.98389
3554.33734	0.98433
3552.28043	0.98426
3550.22352	0.98397
3548.16662	0.98366
3546.10971	0.98362
3544.05280	0.98343
3541.99589	0.98285
3539.93898	0.98271
3537.88207	0.98296
3535.82517	0.98291
3533.76826	0.98263
3531.71135	0.98286
3529.65444	0.98341
3527.59753	0.98298
3525.54063	0.98175
3523.48372	0.98084
3521.42681	0.98081
3519.36990	0.98105
3517.31299	0.98080
3515.25608	0.98057
3513.19918	0.98097
3511.14227	0.98150
3509.08536	0.98124
3507.02845	0.98072
3504.97154	0.98098
3502.91464	0.98137
3500.85773	0.98113
3498.80082	0.98097
3496.74391	0.98112
3494.68700	0.98106
3492.63009	0.98079
3490.57319	0.98070
3488.51628	0.98057
3486.45937	0.98003
3484.40246	0.97978
3482.34555	0.98015
3480.28865	0.98030
3478.23174	0.97999
3476.17483	0.97962
3474.11792	0.97972
3472.06101	0.98010
3470.00410	0.98006
3467.94720	0.97984
3465.89029	0.97974
3463.83338	0.97959
3461.77647	0.97930
3459.71956	0.97917
3457.66266	0.97948
3455.60575	0.98006
3453.54884	0.98050
3451.49193	0.98080
3449.43502	0.98115
3447.37811	0.98126
3445.32121	0.98102
3443.26430	0.98083
3441.20739	0.98094
3439.15048	0.98113
3437.09357	0.98108
3435.03667	0.98093
3432.97976	0.98107
3430.92285	0.98147
3428.86594	0.98170
3426.80903	0.98181
3424.75212	0.98169
3422.69522	0.98149
3420.63831	0.98163
3418.58140	0.98176
3416.52449	0.98191
3414.46758	0.98233
3412.41068	0.98274
3410.35377	0.98311
3408.29686	0.98344
3406.23995	0.98337
3404.18304	0.98326
3402.12613	0.98334
3400.06923	0.98325
3398.01232	0.98297
3395.95541	0.98309
3393.89850	0.98365
3391.84159	0.98377
3389.78469	0.98392
3387.72778	0.98460
3385.67087	0.98457
3383.61396	0.98362
3381.55705	0.98304
3379.50014	0.98315
3377.44324	0.98327
3375.38633	0.98334
3373.32942	0.98360
3371.27251	0.98374
3369.21560	0.98358
3367.15870	0.98354
3365.10179	0.98385
3363.04488	0.98423
3360.98797	0.98467
3358.93106	0.98525
3356.87415	0.98562
3354.81725	0.98512
3352.76034	0.98427
3350.70343	0.98422
3348.64652	0.98434
3346.58961	0.98442
3344.53271	0.98506
3342.47580	0.98537
3340.41889	0.98522
3338.36198	0.98551
3336.30507	0.98582
3334.24816	0.98568
3332.19126	0.98517
3330.13435	0.98479
3328.07744	0.98509
3326.02053	0.98525
3323.96362	0.98501
3321.90672	0.98511
3319.84981	0.98543
3317.79290	0.98580
3315.73599	0.98600
3313.67908	0.98587
3311.62217	0.98587
3309.56527	0.98568
3307.50836	0.98519
3305.45145	0.98544
3303.39454	0.98580
3301.33763	0.98491
3299.28073	0.98406
3297.22382	0.98472
3295.16691	0.98571
3293.11000	0.98591
3291.05309	0.98605
3288.99618	0.98657
3286.93928	0.98655
3284.88237	0.98575
3282.82546	0.98535
3280.76855	0.98608
3278.71164	0.98706
3276.65474	0.98736
3274.59783	0.98728
3272.54092	0.98738
3270.48401	0.98784
3268.42710	0.98795
3266.37019	0.98726
3264.31329	0.98697
3262.25638	0.98741
3260.19947	0.98747
3258.14256	0.98705
3256.08565	0.98692
3254.02875	0.98727
3251.97184	0.98729
3249.91493	0.98671
3247.85802	0.98647
3245.80111	0.98667
3243.74420	0.98691
3241.68730	0.98713
3239.63039	0.98701
3237.57348	0.98640
3235.51657	0.98597
3233.45966	0.98623
3231.40276	0.98679
3229.34585	0.98731
3227.28894	0.98740
3225.23203	0.98702
3223.17512	0.98702
3221.11821	0.98730
3219.06131	0.98741
3217.00440	0.98759
3214.94749	0.98762
3212.89058	0.98744
3210.83367	0.98735
3208.77677	0.98718
3206.71986	0.98670
3204.66295	0.98640
3202.60604	0.98661
3200.54913	0.98685
3198.49222	0.98700
3196.43532	0.98731
3194.37841	0.98754
3192.32150	0.98750
3190.26459	0.98719
3188.20768	0.98699
3186.15078	0.98751
3184.09387	0.98815
3182.03696	0.98809
3179.98005	0.98798
3177.92314	0.98826
3175.86623	0.98837
3173.80933	0.98826
3171.75242	0.98809
3169.69551	0.98796
3167.63860	0.98797
3165.58169	0.98786
3163.52479	0.98773
3161.46788	0.98775
3159.41097	0.98753
3157.35406	0.98726
3155.29715	0.98756
3153.24024	0.98815
3151.18334	0.98846
3149.12643	0.98861
3147.06952	0.98871
3145.01261	0.98843
3142.95570	0.98796
3140.89880	0.98784
3138.84189	0.98799
3136.78498	0.98808
3134.72807	0.98791
3132.67116	0.98756
3130.61425	0.98746
3128.55735	0.98778
3126.50044	0.98789
3124.44353	0.98740
3122.38662	0.98697
3120.32971	0.98723
3118.27281	0.98793
3116.21590	0.98836
3114.15899	0.98806
3112.10208	0.98748
3110.04517	0.98717
3107.98826	0.98713
3105.93136	0.98734
3103.87445	0.98737
3101.81754	0.98688
3099.76063	0.98640
3097.70372	0.98653
3095.64682	0.98720
3093.58991	0.98791
3091.53300	0.98820
3089.47609	0.98819
3087.41918	0.98822
3085.36227	0.98826
3083.30537	0.98819
3081.24846	0.98809
3079.19155	0.98813
3077.13464	0.98798
3075.07773	0.98766
3073.02083	0.98765
3070.96392	0.98759
3068.90701	0.98737
3066.85010	0.98751
3064.79319	0.98776
3062.73628	0.98768
3060.67938	0.98732
3058.62247	0.98704
3056.56556	0.98708
3054.50865	0.98740
3052.45174	0.98769
3050.39484	0.98767
3048.33793	0.98778
3046.28102	0.98800
3044.22411	0.98787
3042.16720	0.98778
3040.11029	0.98798
3038.05339	0.98808
3035.99648	0.98786
3033.93957	0.98722
3031.88266	0.98665
3029.82575	0.98689
3027.76885	0.98761
3025.71194	0.98769
3023.65503	0.98723
3021.59812	0.98715
3019.54121	0.98734
3017.48430	0.98712
3015.42740	0.98655
3013.37049	0.98607
3011.31358	0.98579
3009.25667	0.98569
3007.19976	0.98602
3005.14286	0.98665
3003.08595	0.98682
3001.02904	0.98628
2998.97213	0.98570
2996.91522	0.98569
2994.85831	0.98596
2992.80141	0.98595
2990.74450	0.98593
2988.68759	0.98593
2986.63068	0.98536
2984.57377	0.98467
2982.51687	0.98444
2980.45996	0.98475
2978.40305	0.98546
2976.34614	0.98565
2974.28923	0.98500
2972.23232	0.98453
2970.17542	0.98450
2968.11851	0.98445
2966.06160	0.98419
2964.00469	0.98359
2961.94778	0.98287
2959.89088	0.98241
2957.83397	0.98239
2955.77706	0.98261
2953.72015	0.98259
2951.66324	0.98216
2949.60633	0.98174
2947.54943	0.98162
2945.49252	0.98169
2943.43561	0.98184
2941.37870	0.98189
2939.32179	0.98195
2937.26489	0.98217
2935.20798	0.98252
2933.15107	0.98309
2931.09416	0.98333
2929.03725	0.98310
2926.98034	0.98316
2924.92344	0.98345
2922.86653	0.98341
2920.80962	0.98331
2918.75271	0.98348
2916.69580	0.98373
2914.63890	0.98388
2912.58199	0.98382
2910.52508	0.98366
2908.46817	0.98381
2906.41126	0.98433
2904.35435	0.98448
2902.29745	0.98402
2900.24054	0.98362
2898.18363	0.98344
2896.12672	0.98319
2894.06981	0.98282
2892.01291	0.98251
2889.95600	0.98254
2887.89909	0.98273
2885.84218	0.98295
2883.78527	0.98316
2881.72836	0.98311
2879.67146	0.98306
2877.61455	0.98332
2875.55764	0.98347
2873.50073	0.98335
2871.44382	0.98356
2869.38692	0.98413
2867.33001	0.98440
2865.27310	0.98433
2863.21619	0.98454
2861.15928	0.98488
2859.10237	0.98480
2857.04547	0.98450
2854.98856	0.98451
2852.93165	0.98497
2850.87474	0.98541
2848.81783	0.98564
2846.76093	0.98605
2844.70402	0.98646
2842.64711	0.98645
2840.59020	0.98647
2838.53329	0.98691
2836.47638	0.98714
2834.41948	0.98679
2832.36257	0.98646
2830.30566	0.98645
2828.24875	0.98654
2826.19184	0.98675
2824.13494	0.98699
2822.07803	0.98722
2820.02112	0.98735
2817.96421	0.98720
2815.90730	0.98706
2813.85039	0.98710
2811.79349	0.98726
2809.73658	0.98753
2807.67967	0.98769
2805.62276	0.98758
2803.56585	0.98731
2801.50895	0.98701
2799.45204	0.98688
2797.39513	0.98710
2795.33822	0.98755
2793.28131	0.98758
2791.22440	0.98704
2789.16750	0.98663
2787.11059	0.98664
2785.05368	0.98688
2782.99677	0.98713
2780.93986	0.98715
2778.88296	0.98725
2776.82605	0.98766
2774.76914	0.98791
2772.71223	0.98792
2770.65532	0.98796
2768.59841	0.98800
2766.54151	0.98773
2764.48460	0.98720
2762.42769	0.98670
2760.37078	0.98646
2758.31387	0.98679
2756.25697	0.98739
2754.20006	0.98779
2752.14315	0.98785
2750.08624	0.98746
2748.02933	0.98692
2745.97242	0.98675
2743.91552	0.98701
2741.85861	0.98737
2739.80170	0.98748
2737.74479	0.98744
2735.68788	0.98738
2733.63098	0.98722
2731.57407	0.98717
2729.51716	0.98723
2727.46025	0.98721
2725.40334	0.98726
2723.34643	0.98741
2721.28953	0.98746
2719.23262	0.98748
2717.17571	0.98765
2715.11880	0.98777
2713.06189	0.98765
2711.00499	0.98761
2708.94808	0.98784
2706.89117	0.98816
2704.83426	0.98830
2702.77735	0.98801
2700.72044	0.98764
2698.66354	0.98766
2696.60663	0.98755
2694.54972	0.98712
2692.49281	0.98713
2690.43590	0.98760
2688.37900	0.98775
2686.32209	0.98764
2684.26518	0.98780
2682.20827	0.98801
2680.15136	0.98813
2678.09445	0.98821
2676.03755	0.98809
2673.98064	0.98792
2671.92373	0.98804
2669.86682	0.98834
2667.80991	0.98839
2665.75301	0.98810
2663.69610	0.98781
2661.63919	0.98784
2659.58228	0.98791
2657.52537	0.98759
2655.46846	0.98706
2653.41156	0.98671
2651.35465	0.98684
2649.29774	0.98731
2647.24083	0.98758
2645.18392	0.98756
2643.12702	0.98741
2641.07011	0.98734
2639.01320	0.98743
2636.95629	0.98743
2634.89938	0.98723
2632.84247	0.98708
2630.78557	0.98712
2628.72866	0.98691
2626.67175	0.98672
2624.61484	0.98718
2622.55793	0.98785
2620.50103	0.98806
2618.44412	0.98780
2616.38721	0.98758
2614.33030	0.98768
2612.27339	0.98803
2610.21648	0.98852
2608.15958	0.98890
2606.10267	0.98879
2604.04576	0.98818
2601.98885	0.98787
2599.93194	0.98785
2597.87504	0.98750
2595.81813	0.98719
2593.76122	0.98753
2591.70431	0.98823
2589.64740	0.98859
2587.59049	0.98851
2585.53359	0.98814
2583.47668	0.98732
2581.41977	0.98683
2579.36286	0.98755
2577.30595	0.98831
2575.24905	0.98805
2573.19214	0.98774
2571.13523	0.98835
2569.07832	0.98875
2567.02141	0.98791
2564.96450	0.98684
2562.90760	0.98661
2560.85069	0.98733
2558.79378	0.98846
2556.73687	0.98913
2554.67996	0.98907
2552.62306	0.98847
2550.56615	0.98768
2548.50924	0.98738
2546.45233	0.98793
2544.39542	0.98849
2542.33851	0.98883
2540.28161	0.98949
2538.22470	0.98998
2536.16779	0.98980
2534.11088	0.98959
2532.05397	0.98955
2529.99707	0.98929
2527.94016	0.98897
2525.88325	0.98870
2523.82634	0.98832
2521.76943	0.98785
2519.71252	0.98773
2517.65562	0.98797
2515.59871	0.98820
2513.54180	0.98841
2511.48489	0.98859
2509.42798	0.98883
2507.37108	0.98910
2505.31417	0.98904
2503.25726	0.98858
2501.20035	0.98835
2499.14344	0.98870
2497.08653	0.98892
2495.02963	0.98865
2492.97272	0.98855
2490.91581	0.98896
2488.85890	0.98936
2486.80199	0.98945
2484.74509	0.98912
2482.68818	0.98831
2480.63127	0.98804
2478.57436	0.98870
2476.51745	0.98905
2474.46054	0.98865
2472.40364	0.98821
2470.34673	0.98788
2468.28982	0.98747
2466.23291	0.98733
2464.17600	0.98764
2462.11910	0.98793
2460.06219	0.98790
2458.00528	0.98811
2455.94837	0.98886
2453.89146	0.98963
2451.83455	0.98977
2449.77765	0.98941
2447.72074	0.98936
2445.66383	0.98982
2443.60692	0.99022
2441.55001	0.99015
2439.49311	0.98971
2437.43620	0.98918
2435.37929	0.98869
2433.32238	0.98838
2431.26547	0.98815
2429.20856	0.98822
2427.15166	0.98864
2425.09475	0.98862
2423.03784	0.98820
2420.98093	0.98826
2418.92402	0.98889
2416.86712	0.98947
2414.81021	0.98950
2412.75330	0.98898
2410.69639	0.98848
2408.63948	0.98819
2406.58257	0.98798
2404.52567	0.98798
2402.46876	0.98806
2400.41185	0.98810
2398.35494	0.98807
2396.29803	0.98789
2394.24113	0.98807
2392.18422	0.98854
2390.12731	0.98859
2388.07040	0.98831
2386.01349	0.98813
2383.95658	0.98820
2381.89968	0.98849
2379.84277	0.98864
2377.78586	0.98889
2375.72895	0.98952
2373.67204	0.98986
2371.61514	0.98931
2369.55823	0.98859
2367.50132	0.98870
2365.44441	0.98914
2363.38750	0.98881
2361.33059	0.98736
2359.27369	0.98602
2357.21678	0.98611
2355.15987	0.98692
2353.10296	0.98734
2351.04605	0.98795
2348.98915	0.98931
2346.93224	0.99009
2344.87533	0.98918
2342.81842	0.98843
2340.76151	0.98914
2338.70460	0.98997
2336.64770	0.99012
2334.59079	0.98948
2332.53388	0.98870
2330.47697	0.98832
2328.42006	0.98807
2326.36316	0.98750
2324.30625	0.98692
2322.24934	0.98724
2320.19243	0.98806
2318.13552	0.98824
2316.07861	0.98796
2314.02171	0.98782
2311.96480	0.98796
2309.90789	0.98870
2307.85098	0.98937
2305.79407	0.98889
2303.73717	0.98834
2301.68026	0.98856
2299.62335	0.98850
2297.56644	0.98788
2295.50953	0.98780
2293.45262	0.98845
2291.39572	0.98864
2289.33881	0.98775
2287.28190	0.98680
2285.22499	0.98675
2283.16808	0.98713
2281.11117	0.98744
2279.05427	0.98767
2276.99736	0.98783
2274.94045	0.98796
2272.88354	0.98829
2270.82663	0.98896
2268.76973	0.98978
2266.71282	0.99032
2264.65591	0.99009
2262.59900	0.98916
2260.54209	0.98819
2258.48518	0.98801
2256.42828	0.98847
2254.37137	0.98872
2252.31446	0.98856
2250.25755	0.98773
2248.20064	0.98706
2246.14374	0.98770
2244.08683	0.98827
2242.02992	0.98885
2239.97301	0.98996
2237.91610	0.98935
2235.85919	0.98713
2233.80229	0.98597
2231.74538	0.98685
2229.68847	0.98841
2227.63156	0.98885
2225.57465	0.98818
2223.51775	0.98802
2221.46084	0.98869
2219.40393	0.98924
2217.34702	0.98884
2215.29011	0.98833
2213.23320	0.98976
2211.17630	0.99194
2209.11939	0.99247
2207.06248	0.99160
2205.00557	0.99136
2202.94866	0.99191
2200.89176	0.99057
2198.83485	0.98807
2196.77794	0.98748
2194.72103	0.98815
2192.66412	0.98836
2190.60721	0.98835
2188.55031	0.98853
2186.49340	0.98856
2184.43649	0.98854
2182.37958	0.98978
2180.32267	0.99113
2178.26577	0.99013
2176.20886	0.98903
2174.15195	0.98924
2172.09504	0.98824
2170.03813	0.98605
2167.98122	0.98509
2165.92432	0.98727
2163.86741	0.99034
2161.81050	0.99024
2159.75359	0.98994
2157.69668	0.99183
2155.63978	0.99273
2153.58287	0.99205
2151.52596	0.99047
2149.46905	0.98985
2147.41214	0.99134
2145.35523	0.99273
2143.29833	0.99222
2141.24142	0.99050
2139.18451	0.98950
2137.12760	0.99006
2135.07069	0.99060
2133.01379	0.98972
2130.95688	0.98902
2128.89997	0.98960
2126.84306	0.99007
2124.78615	0.98983
2122.72924	0.98898
2120.67234	0.98794
2118.61543	0.98768
2116.55852	0.98787
2114.50161	0.98819
2112.44470	0.98877
2110.38780	0.98889
2108.33089	0.98878
2106.27398	0.98899
2104.21707	0.98881
2102.16016	0.98841
2100.10325	0.98821
2098.04635	0.98797
2095.98944	0.98749
2093.93253	0.98718
2091.87562	0.98768
2089.81871	0.98876
2087.76181	0.99022
2085.70490	0.99102
2083.64799	0.98984
2081.59108	0.98819
2079.53417	0.98813
2077.47726	0.98926
2075.42036	0.99032
2073.36345	0.99095
2071.30654	0.99173
2069.24963	0.99229
2067.19272	0.99116
2065.13582	0.98944
2063.07891	0.98908
2061.02200	0.98907
2058.96509	0.98786
2056.90818	0.98707
2054.85127	0.98818
2052.79437	0.98934
2050.73746	0.98963
2048.68055	0.99022
2046.62364	0.99109
2044.56673	0.99130
2042.50983	0.99009
2040.45292	0.98864
2038.39601	0.98959
2036.33910	0.99177
2034.28219	0.99217
2032.22528	0.99088
2030.16838	0.98939
2028.11147	0.98936
2026.05456	0.99026
2023.99765	0.99006
2021.94074	0.98954
2019.88384	0.98834
2017.82693	0.98609
2015.77002	0.98618
2013.71311	0.98907
2011.65620	0.99221
2009.59929	0.99471
2007.54239	0.99528
2005.48548	0.99438
2003.42857	0.99432
2001.37166	0.99451
1999.31475	0.99412
1997.25785	0.99374
1995.20094	0.99270
1993.14403	0.99019
1991.08712	0.98864
1989.03021	0.98922
1986.97330	0.98980
1984.91640	0.98978
1982.85949	0.98974
1980.80258	0.99046
1978.74567	0.99166
1976.68876	0.99290
1974.63186	0.99439
1972.57495	0.99426
1970.51804	0.99258
1968.46113	0.99184
1966.40422	0.99241
1964.34731	0.99297
1962.29041	0.99258
1960.23350	0.99182
1958.17659	0.99214
1956.11968	0.99248
1954.06277	0.99089
1952.00587	0.98921
1949.94896	0.98995
1947.89205	0.99202
1945.83514	0.99383
1943.77823	0.99479
1941.72132	0.99421
1939.66442	0.99297
1937.60751	0.99247
1935.55060	0.99245
1933.49369	0.99217
1931.43678	0.99203
1929.37988	0.99260
1927.32297	0.99311
1925.26606	0.99258
1923.20915	0.99125
1921.15224	0.98991
1919.09533	0.98973
1917.03843	0.99067
1914.98152	0.99083
1912.92461	0.99054
1910.86770	0.99140
1908.81079	0.99255
1906.75389	0.99230
1904.69698	0.99128
1902.64007	0.99113
1900.58316	0.99175
1898.52625	0.99218
1896.46934	0.99207
1894.41244	0.99185
1892.35553	0.99169
1890.29862	0.99125
1888.24171	0.99082
1886.18480	0.99048
1884.12790	0.99040
1882.07099	0.99099
1880.01408	0.99189
1877.95717	0.99228
1875.90026	0.99210
1873.84335	0.99182
1871.78645	0.99173
1869.72954	0.99190
1867.67263	0.99159
1865.61572	0.99079
1863.55881	0.99070
1861.50191	0.99125
1859.44500	0.99110
1857.38809	0.99038
1855.33118	0.99041
1853.27427	0.99121
1851.21736	0.99187
1849.16046	0.99194
1847.10355	0.99173
1845.04664	0.99171
1842.98973	0.99150
1840.93282	0.99119
1838.87592	0.99117
1836.81901	0.99104
1834.76210	0.99086
1832.70519	0.99101
1830.64828	0.99141
1828.59137	0.99174
1826.53447	0.99210
1824.47756	0.99232
1822.42065	0.99195
1820.36374	0.99147
1818.30683	0.99148
1816.24993	0.99172
1814.19302	0.99159
1812.13611	0.99096
1810.07920	0.99039
1808.02229	0.99035
1805.96538	0.99042
1803.90848	0.99042
1801.85157	0.99022
1799.79466	0.98991
1797.73775	0.98974
1795.68084	0.98964
1793.62394	0.98937
1791.56703	0.98846
1789.51012	0.98778
1787.45321	0.98775
1785.39630	0.98747
1783.33939	0.98653
1781.28249	0.98541
1779.22558	0.98386
1777.16867	0.98187
1775.11176	0.98010
1773.05485	0.97769
1770.99795	0.97369
1768.94104	0.96909
1766.88413	0.96365
1764.82722	0.95748
1762.77031	0.95014
1760.71340	0.94166
1758.65650	0.93426
1756.59959	0.92710
1754.54268	0.92056
1752.48577	0.91519
1750.42886	0.90948
1748.37196	0.90362
1746.31505	0.89864
1744.25814	0.89442
1742.20123	0.89090
1740.14432	0.88762
1738.08741	0.88527
1736.03051	0.88453
1733.97360	0.88412
1731.91669	0.88452
1729.85978	0.88621
1727.80287	0.88860
1725.74597	0.89195
1723.68906	0.89643
1721.63215	0.90127
1719.57524	0.90609
1717.51833	0.91182
1715.46142	0.91856
1713.40452	0.92483
1711.34761	0.93038
1709.29070	0.93536
1707.23379	0.94017
1705.17688	0.94487
1703.11998	0.94847
1701.06307	0.95151
1699.00616	0.95492
1696.94925	0.95796
1694.89234	0.96065
1692.83543	0.96267
1690.77853	0.96430
1688.72162	0.96599
1686.66471	0.96751
1684.60780	0.96878
1682.55089	0.96946
1680.49399	0.96989
1678.43708	0.97076
1676.38017	0.97213
1674.32326	0.97337
1672.26635	0.97385
1670.20944	0.97383
1668.15254	0.97381
1666.09563	0.97415
1664.03872	0.97457
1661.98181	0.97461
1659.92490	0.97450
1657.86800	0.97472
1655.81109	0.97511
1653.75418	0.97500
1651.69727	0.97424
1649.64036	0.97423
1647.58345	0.97445
1645.52655	0.97437
1643.46964	0.97420
1641.41273	0.97408
1639.35582	0.97414
1637.29891	0.97443
1635.24201	0.97467
1633.18510	0.97472
1631.12819	0.97489
1629.07128	0.97523
1627.01437	0.97563
1624.95746	0.97600
1622.90056	0.97640
1620.84365	0.97685
1618.78674	0.97717
1616.72983	0.97741
1614.67292	0.97802
1612.61602	0.97892
1610.55911	0.97961
1608.50220	0.97982
1606.44529	0.97986
1604.38838	0.98018
1602.33147	0.98058
1600.27457	0.98069
1598.21766	0.98082
1596.16075	0.98122
1594.10384	0.98175
1592.04693	0.98232
1589.99003	0.98268
1587.93312	0.98272
1585.87621	0.98259
1583.81930	0.98260
1581.76239	0.98298
1579.70548	0.98342
1577.64858	0.98353
1575.59167	0.98336
1573.53476	0.98339
1571.47785	0.98363
1569.42094	0.98386
1567.36404	0.98391
1565.30713	0.98386
1563.25022	0.98390
1561.19331	0.98392
1559.13640	0.98371
1557.07949	0.98386
1555.02259	0.98418
1552.96568	0.98427
1550.90877	0.98426
1548.85186	0.98426
1546.79495	0.98433
1544.73805	0.98438
1542.68114	0.98433
1540.62423	0.98433
1538.56732	0.98449
1536.51041	0.98482
1534.45350	0.98498
1532.39660	0.98501
1530.33969	0.98524
1528.28278	0.98541
1526.22587	0.98524
1524.16896	0.98516
1522.11206	0.98558
1520.05515	0.98587
1517.99824	0.98565
1515.94133	0.98540
1513.88442	0.98542
1511.82751	0.98533
1509.77061	0.98511
1507.71370	0.98546
1505.65679	0.98583
1503.59988	0.98573
1501.54297	0.98578
1499.48607	0.98576
1497.42916	0.98558
1495.37225	0.98576
1493.31534	0.98612
1491.25843	0.98603
1489.20152	0.98564
1487.14462	0.98564
1485.08771	0.98563
1483.03080	0.98550
1480.97389	0.98553
1478.91698	0.98538
1476.86008	0.98497
1474.80317	0.98461
1472.74626	0.98396
1470.68935	0.98306
1468.63244	0.98251
1466.57553	0.98204
1464.51863	0.98106
1462.46172	0.97975
1460.40481	0.97883
1458.34790	0.97809
1456.29099	0.97680
1454.23409	0.97543
1452.17718	0.97450
1450.12027	0.97380
1448.06336	0.97308
1446.00645	0.97221
1443.94954	0.97120
1441.89264	0.97011
1439.83573	0.96944
1437.77882	0.96899
1435.72191	0.96808
1433.66500	0.96736
1431.60810	0.96714
1429.55119	0.96715
1427.49428	0.96746
1425.43737	0.96820
1423.38046	0.96927
1421.32355	0.97038
1419.26665	0.97150
1417.20974	0.97228
1415.15283	0.97274
1413.09592	0.97329
1411.03901	0.97385
1408.98211	0.97435
1406.92520	0.97476
1404.86829	0.97490
1402.81138	0.97479
1400.75447	0.97456
1398.69756	0.97406
1396.64066	0.97309
1394.58375	0.97126
1392.52684	0.96888
1390.46993	0.96648
1388.41302	0.96342
1386.35612	0.95943
1384.29921	0.95516
1382.24230	0.95062
1380.18539	0.94606
1378.12848	0.94182
1376.07157	0.93769
1374.01467	0.93331
1371.95776	0.92928
1369.90085	0.92627
1367.84394	0.92433
1365.78703	0.92422
1363.73013	0.92685
1361.67322	0.93244
1359.61631	0.93953
1357.55940	0.94691
1355.50249	0.95409
1353.44558	0.96018
1351.38868	0.96441
1349.33177	0.96716
1347.27486	0.96923
1345.21795	0.97076
1343.16104	0.97182
1341.10414	0.97276
1339.04723	0.97357
1336.99032	0.97401
1334.93341	0.97414
1332.87650	0.97430
1330.81959	0.97444
1328.76269	0.97450
1326.70578	0.97449
1324.64887	0.97431
1322.59196	0.97402
1320.53505	0.97376
1318.47815	0.97362
1316.42124	0.97380
1314.36433	0.97422
1312.30742	0.97464
1310.25051	0.97505
1308.19360	0.97543
1306.13670	0.97565
1304.07979	0.97563
1302.02288	0.97532
1299.96597	0.97482
1297.90906	0.97432
1295.85216	0.97371
1293.79525	0.97286
1291.73834	0.97183
1289.68143	0.97071
1287.62452	0.96947
1285.56761	0.96810
1283.51071	0.96646
1281.45380	0.96450
1279.39689	0.96247
1277.33998	0.96029
1275.28307	0.95785
1273.22617	0.95505
1271.16926	0.95191
1269.11235	0.94877
1267.05544	0.94554
1264.99853	0.94173
1262.94162	0.93762
1260.88472	0.93349
1258.82781	0.92889
1256.77090	0.92380
1254.71399	0.91860
1252.65708	0.91346
1250.60018	0.90840
1248.54327	0.90327
1246.48636	0.89781
1244.42945	0.89207
1242.37254	0.88633
1240.31563	0.88066
1238.25873	0.87519
1236.20182	0.86997
1234.14491	0.86506
1232.08800	0.86056
1230.03109	0.85651
1227.97419	0.85312
1225.91728	0.85024
1223.86037	0.84776
1221.80346	0.84598
1219.74655	0.84478
1217.68964	0.84396
1215.63274	0.84379
1213.57583	0.84471
1211.51892	0.84668
1209.46201	0.84985
1207.40510	0.85472
1205.34820	0.86127
1203.29129	0.86924
1201.23438	0.87837
1199.17747	0.88810
1197.12056	0.89752
1195.06365	0.90611
1193.00675	0.91374
1190.94984	0.92010
1188.89293	0.92523
1186.83602	0.92923
1184.77911	0.93188
1182.72221	0.93298
1180.66530	0.93300
1178.60839	0.93299
1176.55148	0.93288
1174.49457	0.93208
1172.43766	0.93086
1170.38076	0.92970
1168.32385	0.92893
1166.26694	0.92862
1164.21003	0.92861
1162.15312	0.92907
1160.09622	0.92987
1158.03931	0.93063
1155.98240	0.93156
1153.92549	0.93304
1151.86858	0.93484
1149.81167	0.93652
1147.75477	0.93790
1145.69786	0.93898
1143.64095	0.93967
1141.58404	0.93997
1139.52713	0.93994
1137.47023	0.93931
1135.41332	0.93795
1133.35641	0.93618
1131.29950	0.93432
1129.24259	0.93280
1127.18568	0.93180
1125.12878	0.93093
1123.07187	0.93001
1121.01496	0.92950
1118.95805	0.92925
1116.90114	0.92901
1114.84424	0.92918
1112.78733	0.92966
1110.73042	0.92976
1108.67351	0.92927
1106.61660	0.92861
1104.55969	0.92800
1102.50279	0.92730
1100.44588	0.92642
1098.38897	0.92524
1096.33206	0.92351
1094.27515	0.92115
1092.21825	0.91851
1090.16134	0.91589
1088.10443	0.91325
1086.04752	0.91033
1083.99061	0.90714
1081.93370	0.90398
1079.87680	0.90081
1077.81989	0.89752
1075.76298	0.89433
1073.70607	0.89137
1071.64916	0.88855
1069.59226	0.88577
1067.53535	0.88291
1065.47844	0.87999
1063.42153	0.87700
1061.36462	0.87387
1059.30771	0.87058
1057.25081	0.86723
1055.19390	0.86371
1053.13699	0.85988
1051.08008	0.85593
1049.02317	0.85218
1046.96627	0.84887
1044.90936	0.84579
1042.85245	0.84269
1040.79554	0.83993
1038.73863	0.83745
1036.68172	0.83492
1034.62482	0.83245
1032.56791	0.83010
1030.51100	0.82836
1028.45409	0.82802
1026.39718	0.82870
1024.34028	0.82989
1022.28337	0.83183
1020.22646	0.83444
1018.16955	0.83737
1016.11264	0.84053
1014.05573	0.84402
1011.99883	0.84797
1009.94192	0.85206
1007.88501	0.85569
1005.82810	0.85914
1003.77119	0.86298
1001.71429	0.86683
999.65738	0.87015
997.60047	0.87293
995.54356	0.87546
993.48665	0.87795
991.42974	0.88034
989.37284	0.88265
987.31593	0.88485
985.25902	0.88675
983.20211	0.88835
981.14520	0.88992
979.08830	0.89194
977.03139	0.89462
974.97448	0.89737
972.91757	0.89984
970.86066	0.90254
968.80375	0.90577
966.74685	0.90891
964.68994	0.91132
962.63303	0.91299
960.57612	0.91435
958.51921	0.91562
956.46231	0.91692
954.40540	0.91842
952.34849	0.91952
950.29158	0.91998
948.23467	0.92071
946.17776	0.92212
944.12086	0.92389
942.06395	0.92565
940.00704	0.92716
937.95013	0.92832
935.89322	0.92886
933.83632	0.92901
931.77941	0.92929
929.72250	0.92945
927.66559	0.92902
925.60868	0.92818
923.55177	0.92749
921.49487	0.92695
919.43796	0.92618
917.38105	0.92502
915.32414	0.92384
913.26723	0.92296
911.21033	0.92208
909.15342	0.92094
907.09651	0.91967
905.03960	0.91845
902.98269	0.91761
900.92578	0.91743
898.86888	0.91769
896.81197	0.91823
894.75506	0.91928
892.69815	0.92064
890.64124	0.92196
888.58434	0.92325
886.52743	0.92452
884.47052	0.92594
882.41361	0.92730
880.35670	0.92800
878.29979	0.92868
876.24289	0.93007
874.18598	0.93156
872.12907	0.93297
870.07216	0.93489
868.01525	0.93729
865.95835	0.93949
863.90144	0.94117
861.84453	0.94275
859.78762	0.94424
857.73071	0.94504
855.67380	0.94539
853.61690	0.94576
851.55999	0.94575
849.50308	0.94518
847.44617	0.94460
845.38926	0.94418
843.33236	0.94379
841.27545	0.94353
839.21854	0.94352
837.16163	0.94349
835.10472	0.94337
833.04781	0.94375
830.99091	0.94491
828.93400	0.94639
826.87709	0.94793
824.82018	0.94933
822.76327	0.95020
820.70637	0.95056
818.64946	0.95070
816.59255	0.95120
814.53564	0.95214
812.47873	0.95301
810.42182	0.95400
808.36492	0.95505
806.30801	0.95565
804.25110	0.95598
802.19419	0.95632
800.13728	0.95679
798.08038	0.95704
796.02347	0.95682
793.96656	0.95670
791.90965	0.95684
789.85274	0.95704
787.79583	0.95757
785.73893	0.95802
783.68202	0.95821
781.62511	0.95882
779.56820	0.95930
777.51129	0.95901
775.45439	0.95857
773.39748	0.95834
771.34057	0.95817
769.28366	0.95796
767.22675	0.95794
765.16984	0.95811
763.11294	0.95823
761.05603	0.95862
758.99912	0.95960
756.94221	0.96023
754.88530	0.95983
752.82839	0.95966
750.77149	0.96020
748.71458	0.96026
746.65767	0.96012
744.60076	0.96071
742.54385	0.96137
740.48695	0.96130
738.43004	0.96080
736.37313	0.96052
734.31622	0.96035
732.25931	0.96008
730.20240	0.95991
728.14550	0.95942
726.08859	0.95841
724.03168	0.95757
721.97477	0.95738
719.91786	0.95733
717.86096	0.95701
715.80405	0.95659
713.74714	0.95576
711.69023	0.95476
709.63332	0.95454
707.57641	0.95527
705.51951	0.95599
703.46260	0.95608
701.40569	0.95585
699.34878	0.95518
697.29187	0.95403
695.23497	0.95301
693.17806	0.95260
691.12115	0.95272
689.06424	0.95273
687.00733	0.95214
684.95042	0.95150
682.89352	0.95113
680.83661	0.95071
678.77970	0.95083
676.72279	0.95181
674.66588	0.95267
672.60898	0.95268
670.55207	0.95183
668.49516	0.95065
666.43825	0.95101
664.38134	0.95183
662.32443	0.95187
660.26753	0.95165
658.21062	0.95092
656.15371	0.94981
654.09680	0.94930
652.03989	0.94911
649.98299	0.94858
647.92608	0.94792
645.86917	0.94671
643.81226	0.94438
641.75535	0.94231
639.69844	0.94121
637.64154	0.94063
635.58463	0.94135
633.52772	0.94254
631.47081	0.94171
629.41390	0.93950
627.35700	0.93813
625.30009	0.93767
623.24318	0.93729
621.18627	0.93712
619.12936	0.93760
617.07245	0.93757
615.01555	0.93549
612.95864	0.93196
610.90173	0.92792
608.84482	0.92381
606.78791	0.92002
604.73101	0.91663
602.67410	0.91434
600.61719	0.91367
598.56028	0.91437
596.50337	0.91617
594.44646	0.91901
592.38956	0.92230
590.33265	0.92473
588.27574	0.92652
586.21883	0.92853
584.16192	0.93112
582.10502	0.93416
580.04811	0.93555
577.99120	0.93437
575.93429	0.93305
573.87738	0.93307
571.82047	0.93307
569.76357	0.93262
567.70666	0.93299
565.64975	0.93370
563.59284	0.93331
561.53593	0.93222
559.47903	0.93112
557.42212	0.92960
555.36521	0.92778
553.30830	0.92706
551.25139	0.92884
549.19448	0.93150
547.13758	0.93213
545.08067	0.93110
543.02376	0.93096
540.96685	0.93189
538.90994	0.93211
536.85304	0.93187
534.79613	0.93281
532.73922	0.93422
530.68231	0.93391
528.62540	0.93300
526.56849	0.93396
524.51159	0.93601
522.45468	0.93659
520.39777	0.93549
518.34086	0.93446
516.28395	0.93380
514.22705	0.93308
512.17014	0.93286
510.11323	0.93206
508.05632	0.92968
505.99941	0.92824
503.94250	0.92859
501.88560	0.92777
499.82869	0.92558
497.77178	0.92362
495.71487	0.92218
493.65796	0.92229
491.60106	0.92373
489.54415	0.92456
487.48724	0.92453
485.43033	0.92388
483.37342	0.92360
481.31651	0.92413
479.25961	0.92370
477.20270	0.92291
475.14579	0.92220
473.08888	0.92067
471.03197	0.92012
468.97507	0.92026
466.91816	0.91848
464.86125	0.91641
462.80434	0.91621
460.74743	0.91606
458.69052	0.91459
456.63362	0.91431
454.57671	0.91609
452.51980	0.91641
450.46289	0.91447
448.40598	0.91350
446.34908	0.91320
444.29217	0.91228
442.23526	0.91227
440.17835	0.91149
438.12144	0.90872
436.06453	0.90679
434.00763	0.90787
431.95072	0.91066
429.89381	0.91330
427.83690	0.91536
425.77999	0.91700
423.72309	0.91722
421.66618	0.91406
419.60927	0.91224
417.55236	0.91708
415.49545	0.91891
413.43854	0.91661
411.38164	0.91673
409.32473	0.91963
407.26782	0.92089
405.21091	0.91780
403.15400	0.91197
401.09710	0.90768
399.04019	0.90400
