3996.57260	0.98875
3994.51569	0.98880
3992.45878	0.98895
3990.40188	0.98850
3988.34497	0.98766
3986.28806	0.98704
3984.23115	0.98715
3982.17424	0.98786
3980.11733	0.98847
3978.06043	0.98844
3976.00352	0.98831
3973.94661	0.98850
3971.88970	0.98853
3969.83279	0.98837
3967.77589	0.98817
3965.71898	0.98792
3963.66207	0.98773
3961.60516	0.98825
3959.54825	0.98906
3957.49134	0.98887
3955.43444	0.98824
3953.37753	0.98814
3951.32062	0.98810
3949.26371	0.98771
3947.20680	0.98725
3945.14990	0.98720
3943.09299	0.98770
3941.03608	0.98819
3938.97917	0.98832
3936.92226	0.98850
3934.86535	0.98900
3932.80845	0.98959
3930.75154	0.98971
3928.69463	0.98937
3926.63772	0.98920
3924.58081	0.98877
3922.52391	0.98770
3920.46700	0.98732
3918.41009	0.98870
3916.35318	0.99013
3914.29627	0.98946
3912.23936	0.98788
3910.18246	0.98731
3908.12555	0.98805
3906.06864	0.98897
3904.01173	0.98897
3901.95482	0.98845
3899.89792	0.98831
3897.84101	0.98857
3895.78410	0.98879
3893.72719	0.98859
3891.67028	0.98843
3889.61337	0.98891
3887.55647	0.98964
3885.49956	0.99014
3883.44265	0.98965
3881.38574	0.98843
3879.32883	0.98761
3877.27193	0.98780
3875.21502	0.98863
3873.15811	0.98942
3871.10120	0.98960
3869.04429	0.98889
3866.98738	0.98799
3864.93048	0.98810
3862.87357	0.98907
3860.81666	0.98983
3858.75975	0.99035
3856.70284	0.99054
3854.64594	0.98997
3852.58903	0.98932
3850.53212	0.98899
3848.47521	0.98861
3846.41830	0.98885
3844.36139	0.98946
3842.30449	0.98940
3840.24758	0.98867
3838.19067	0.98794
3836.13376	0.98792
3834.07685	0.98851
3832.01995	0.98913
3829.96304	0.98919
3827.90613	0.98867
3825.84922	0.98847
3823.79231	0.98908
3821.73540	0.99005
3819.67850	0.99008
3817.62159	0.98917
3815.56468	0.98837
3813.50777	0.98808
3811.45086	0.98825
3809.39396	0.98843
3807.33705	0.98820
3805.28014	0.98825
3803.22323	0.98889
3801.16632	0.98893
3799.10941	0.98838
3797.05251	0.98842
3794.99560	0.98887
3792.93869	0.98926
3790.88178	0.98969
3788.82487	0.98965
3786.76796	0.98901
3784.71106	0.98831
3782.65415	0.98760
3780.59724	0.98781
3778.54033	0.98919
3776.48342	0.98988
3774.42652	0.98940
3772.36961	0.98847
3770.31270	0.98775
3768.25579	0.98772
3766.19888	0.98810
3764.14197	0.98849
3762.08507	0.98873
3760.02816	0.98913
3757.97125	0.98983
3755.91434	0.99031
3753.85743	0.99031
3751.80053	0.98981
3749.74362	0.98933
3747.68671	0.98955
3745.62980	0.98970
3743.57289	0.98891
3741.51598	0.98822
3739.45908	0.98882
3737.40217	0.99044
3735.34526	0.99114
3733.28835	0.98968
3731.23144	0.98818
3729.17454	0.98857
3727.11763	0.99028
3725.06072	0.99072
3723.00381	0.98914
3720.94690	0.98783
3718.88999	0.98767
3716.83309	0.98788
3714.77618	0.98840
3712.71927	0.98923
3710.66236	0.98956
3708.60545	0.98903
3706.54855	0.98870
3704.49164	0.98901
3702.43473	0.98907
3700.37782	0.98838
3698.32091	0.98776
3696.26400	0.98762
3694.20710	0.98791
3692.15019	0.98903
3690.09328	0.99012
3688.03637	0.98879
3685.97946	0.98733
3683.92256	0.98816
3681.86565	0.98933
3679.80874	0.98914
3677.75183	0.98898
3675.69492	0.98966
3673.63801	0.98931
3671.58111	0.98858
3669.52420	0.98859
3667.46729	0.98847
3665.41038	0.98782
3663.35347	0.98746
3661.29657	0.98737
3659.23966	0.98693
3657.18275	0.98636
3655.12584	0.98609
3653.06893	0.98601
3651.01202	0.98584
3648.95512	0.98537
3646.89821	0.98453
3644.84130	0.98430
3642.78439	0.98472
3640.72748	0.98495
3638.67058	0.98470
3636.61367	0.98413
3634.55676	0.98374
3632.49985	0.98388
3630.44294	0.98417
3628.38603	0.98395
3626.32913	0.98323
3624.27222	0.98273
3622.21531	0.98247
3620.15840	0.98265
3618.10149	0.98288
3616.04459	0.98307
3613.98768	0.98371
3611.93077	0.98371
3609.87386	0.98282
3607.81695	0.98175
3605.76004	0.98101
3603.70314	0.98133
3601.64623	0.98180
3599.58932	0.98102
3597.53241	0.98014
3595.47550	0.98046
3593.41860	0.98108
3591.36169	0.98069
3589.30478	0.97928
3587.24787	0.97764
3585.19096	0.97720
3583.13405	0.97782
3581.07715	0.97815
3579.02024	0.97803
3576.96333	0.97813
3574.90642	0.97819
3572.84951	0.97781
3570.79261	0.97724
3568.73570	0.97648
3566.67879	0.97537
3564.62188	0.97459
3562.56497	0.97466
3560.50806	0.97505
3558.45116	0.97491
3556.39425	0.97451
3554.33734	0.97455
3552.28043	0.97424
3550.22352	0.97298
3548.16662	0.97203
3546.10971	0.97164
3544.05280	0.97142
3541.99589	0.97143
3539.93898	0.97080
3537.88207	0.96941
3535.82517	0.96837
3533.76826	0.96822
3531.71135	0.96830
3529.65444	0.96798
3527.59753	0.96761
3525.54063	0.96776
3523.48372	0.96796
3521.42681	0.96730
3519.36990	0.96627
3517.31299	0.96607
3515.25608	0.96627
3513.19918	0.96550
3511.14227	0.96423
3509.08536	0.96383
3507.02845	0.96414
3504.97154	0.96447
3502.91464	0.96449
3500.85773	0.96402
3498.80082	0.96346
3496.74391	0.96315
3494.68700	0.96312
3492.63009	0.96337
3490.57319	0.96357
3488.51628	0.96352
3486.45937	0.96329
3484.40246	0.96294
3482.34555	0.96275
3480.28865	0.96259
3478.23174	0.96200
3476.17483	0.96122
3474.11792	0.96089
3472.06101	0.96105
3470.00410	0.96123
3467.94720	0.96141
3465.89029	0.96169
3463.83338	0.96154
3461.77647	0.96092
3459.71956	0.96039
3457.66266	0.96060
3455.60575	0.96132
3453.54884	0.96142
3451.49193	0.96121
3449.43502	0.96152
3447.37811	0.96144
3445.32121	0.96083
3443.26430	0.96127
3441.20739	0.96222
3439.15048	0.96228
3437.09357	0.96193
3435.03667	0.96196
3432.97976	0.96245
3430.92285	0.96295
3428.86594	0.96314
3426.80903	0.96304
3424.75212	0.96275
3422.69522	0.96280
3420.63831	0.96328
3418.58140	0.96357
3416.52449	0.96359
3414.46758	0.96329
3412.41068	0.96261
3410.35377	0.96227
3408.29686	0.96262
3406.23995	0.96333
3404.18304	0.96402
3402.12613	0.96445
3400.06923	0.96469
3398.01232	0.96469
3395.95541	0.96445
3393.89850	0.96432
3391.84159	0.96461
3389.78469	0.96485
3387.72778	0.96486
3385.67087	0.96527
3383.61396	0.96593
3381.55705	0.96626
3379.50014	0.96687
3377.44324	0.96759
3375.38633	0.96727
3373.32942	0.96677
3371.27251	0.96690
3369.21560	0.96727
3367.15870	0.96765
3365.10179	0.96762
3363.04488	0.96741
3360.98797	0.96736
3358.93106	0.96737
3356.87415	0.96759
3354.81725	0.96799
3352.76034	0.96817
3350.70343	0.96796
3348.64652	0.96804
3346.58961	0.96876
3344.53271	0.96940
3342.47580	0.96934
3340.41889	0.96912
3338.36198	0.96930
3336.30507	0.96969
3334.24816	0.97011
3332.19126	0.97019
3330.13435	0.97016
3328.07744	0.97032
3326.02053	0.97048
3323.96362	0.97052
3321.90672	0.97046
3319.84981	0.97066
3317.79290	0.97126
3315.73599	0.97202
3313.67908	0.97249
3311.62217	0.97225
3309.56527	0.97196
3307.50836	0.97218
3305.45145	0.97245
3303.39454	0.97267
3301.33763	0.97275
3299.28073	0.97242
3297.22382	0.97209
3295.16691	0.97217
3293.11000	0.97240
3291.05309	0.97243
3288.99618	0.97238
3286.93928	0.97263
3284.88237	0.97332
3282.82546	0.97392
3280.76855	0.97415
3278.71164	0.97432
3276.65474	0.97441
3274.59783	0.97449
3272.54092	0.97457
3270.48401	0.97473
3268.42710	0.97530
3266.37019	0.97581
3264.31329	0.97594
3262.25638	0.97615
3260.19947	0.97611
3258.14256	0.97545
3256.08565	0.97478
3254.02875	0.97465
3251.97184	0.97494
3249.91493	0.97533
3247.85802	0.97568
3245.80111	0.97593
3243.74420	0.97610
3241.68730	0.97630
3239.63039	0.97611
3237.57348	0.97538
3235.51657	0.97545
3233.45966	0.97646
3231.40276	0.97696
3229.34585	0.97662
3227.28894	0.97610
3225.23203	0.97600
3223.17512	0.97624
3221.11821	0.97671
3219.06131	0.97729
3217.00440	0.97730
3214.94749	0.97713
3212.89058	0.97766
3210.83367	0.97820
3208.77677	0.97809
3206.71986	0.97772
3204.66295	0.97756
3202.60604	0.97783
3200.54913	0.97817
3198.49222	0.97822
3196.43532	0.97804
3194.37841	0.97774
3192.32150	0.97788
3190.26459	0.97898
3188.20768	0.98030
3186.15078	0.98130
3184.09387	0.98176
3182.03696	0.98118
3179.98005	0.98022
3177.92314	0.97983
3175.86623	0.97997
3173.80933	0.98019
3171.75242	0.98050
3169.69551	0.98091
3167.63860	0.98081
3165.58169	0.98023
3163.52479	0.98000
3161.46788	0.98023
3159.41097	0.98047
3157.35406	0.98089
3155.29715	0.98138
3153.24024	0.98129
3151.18334	0.98065
3149.12643	0.98029
3147.06952	0.98062
3145.01261	0.98106
3142.95570	0.98120
3140.89880	0.98129
3138.84189	0.98143
3136.78498	0.98156
3134.72807	0.98163
3132.67116	0.98177
3130.61425	0.98224
3128.55735	0.98257
3126.50044	0.98218
3124.44353	0.98170
3122.38662	0.98181
3120.32971	0.98231
3118.27281	0.98266
3116.21590	0.98237
3114.15899	0.98199
3112.10208	0.98198
3110.04517	0.98196
3107.98826	0.98181
3105.93136	0.98166
3103.87445	0.98225
3101.81754	0.98325
3099.76063	0.98347
3097.70372	0.98332
3095.64682	0.98319
3093.58991	0.98293
3091.53300	0.98278
3089.47609	0.98281
3087.41918	0.98282
3085.36227	0.98300
3083.30537	0.98354
3081.24846	0.98406
3079.19155	0.98420
3077.13464	0.98396
3075.07773	0.98370
3073.02083	0.98381
3070.96392	0.98357
3068.90701	0.98270
3066.85010	0.98220
3064.79319	0.98232
3062.73628	0.98270
3060.67938	0.98312
3058.62247	0.98329
3056.56556	0.98314
3054.50865	0.98289
3052.45174	0.98288
3050.39484	0.98319
3048.33793	0.98321
3046.28102	0.98303
3044.22411	0.98346
3042.16720	0.98396
3040.11029	0.98374
3038.05339	0.98322
3035.99648	0.98295
3033.93957	0.98301
3031.88266	0.98318
3029.82575	0.98311
3027.76885	0.98257
3025.71194	0.98224
3023.65503	0.98233
3021.59812	0.98181
3019.54121	0.98113
3017.48430	0.98160
3015.42740	0.98250
3013.37049	0.98290
3011.31358	0.98322
3009.25667	0.98346
3007.19976	0.98330
3005.14286	0.98303
3003.08595	0.98267
3001.02904	0.98202
2998.97213	0.98150
2996.91522	0.98139
2994.85831	0.98135
2992.80141	0.98125
2990.74450	0.98127
2988.68759	0.98137
2986.63068	0.98128
2984.57377	0.98100
2982.51687	0.98073
2980.45996	0.98057
2978.40305	0.98026
2976.34614	0.97961
2974.28923	0.97887
2972.23232	0.97835
2970.17542	0.97818
2968.11851	0.97811
2966.06160	0.97796
2964.00469	0.97777
2961.94778	0.97741
2959.89088	0.97697
2957.83397	0.97677
2955.77706	0.97667
2953.72015	0.97625
2951.66324	0.97595
2949.60633	0.97599
2947.54943	0.97566
2945.49252	0.97492
2943.43561	0.97459
2941.37870	0.97450
2939.32179	0.97403
2937.26489	0.97387
2935.20798	0.97450
2933.15107	0.97516
2931.09416	0.97516
2929.03725	0.97490
2926.98034	0.97488
2924.92344	0.97503
2922.86653	0.97507
2920.80962	0.97486
2918.75271	0.97469
2916.69580	0.97474
2914.63890	0.97478
2912.58199	0.97469
2910.52508	0.97455
2908.46817	0.97420
2906.41126	0.97378
2904.35435	0.97391
2902.29745	0.97428
2900.24054	0.97401
2898.18363	0.97332
2896.12672	0.97296
2894.06981	0.97312
2892.01291	0.97350
2889.95600	0.97375
2887.89909	0.97364
2885.84218	0.97333
2883.78527	0.97333
2881.72836	0.97365
2879.67146	0.97394
2877.61455	0.97401
2875.55764	0.97379
2873.50073	0.97358
2871.44382	0.97401
2869.38692	0.97504
2867.33001	0.97587
2865.27310	0.97615
2863.21619	0.97622
2861.15928	0.97630
2859.10237	0.97624
2857.04547	0.97633
2854.98856	0.97683
2852.93165	0.97759
2850.87474	0.97835
2848.81783	0.97893
2846.76093	0.97941
2844.70402	0.97992
2842.64711	0.98050
2840.59020	0.98095
2838.53329	0.98105
2836.47638	0.98094
2834.41948	0.98082
2832.36257	0.98070
2830.30566	0.98071
2828.24875	0.98123
2826.19184	0.98200
2824.13494	0.98228
2822.07803	0.98233
2820.02112	0.98280
2817.96421	0.98304
2815.90730	0.98254
2813.85039	0.98199
2811.79349	0.98169
2809.73658	0.98169
2807.67967	0.98176
2805.62276	0.98168
2803.56585	0.98168
2801.50895	0.98187
2799.45204	0.98212
2797.39513	0.98237
2795.33822	0.98260
2793.28131	0.98277
2791.22440	0.98291
2789.16750	0.98314
2787.11059	0.98326
2785.05368	0.98299
2782.99677	0.98285
2780.93986	0.98329
2778.88296	0.98394
2776.82605	0.98423
2774.76914	0.98407
2772.71223	0.98370
2770.65532	0.98338
2768.59841	0.98315
2766.54151	0.98302
2764.48460	0.98285
2762.42769	0.98250
2760.37078	0.98228
2758.31387	0.98253
2756.25697	0.98288
2754.20006	0.98302
2752.14315	0.98320
2750.08624	0.98332
2748.02933	0.98311
2745.97242	0.98287
2743.91552	0.98301
2741.85861	0.98336
2739.80170	0.98333
2737.74479	0.98300
2735.68788	0.98298
2733.63098	0.98328
2731.57407	0.98349
2729.51716	0.98354
2727.46025	0.98355
2725.40334	0.98363
2723.34643	0.98377
2721.28953	0.98365
2719.23262	0.98323
2717.17571	0.98295
2715.11880	0.98309
2713.06189	0.98336
2711.00499	0.98332
2708.94808	0.98324
2706.89117	0.98342
2704.83426	0.98357
2702.77735	0.98350
2700.72044	0.98344
2698.66354	0.98369
2696.60663	0.98405
2694.54972	0.98401
2692.49281	0.98367
2690.43590	0.98351
2688.37900	0.98374
2686.32209	0.98409
2684.26518	0.98417
2682.20827	0.98396
2680.15136	0.98368
2678.09445	0.98373
2676.03755	0.98403
2673.98064	0.98401
2671.92373	0.98372
2669.86682	0.98378
2667.80991	0.98401
2665.75301	0.98398
2663.69610	0.98379
2661.63919	0.98336
2659.58228	0.98292
2657.52537	0.98297
2655.46846	0.98329
2653.41156	0.98361
2651.35465	0.98408
2649.29774	0.98434
2647.24083	0.98426
2645.18392	0.98418
2643.12702	0.98407
2641.07011	0.98377
2639.01320	0.98353
2636.95629	0.98362
2634.89938	0.98377
2632.84247	0.98371
2630.78557	0.98353
2628.72866	0.98351
2626.67175	0.98369
2624.61484	0.98412
2622.55793	0.98481
2620.50103	0.98494
2618.44412	0.98438
2616.38721	0.98407
2614.33030	0.98419
2612.27339	0.98415
2610.21648	0.98405
2608.15958	0.98432
2606.10267	0.98453
2604.04576	0.98449
2601.98885	0.98471
2599.93194	0.98524
2597.87504	0.98565
2595.81813	0.98556
2593.76122	0.98496
2591.70431	0.98446
2589.64740	0.98414
2587.59049	0.98393
2585.53359	0.98409
2583.47668	0.98429
2581.41977	0.98434
2579.36286	0.98463
2577.30595	0.98515
2575.24905	0.98529
2573.19214	0.98509
2571.13523	0.98511
2569.07832	0.98506
2567.02141	0.98461
2564.96450	0.98449
2562.90760	0.98517
2560.85069	0.98587
2558.79378	0.98616
2556.73687	0.98645
2554.67996	0.98659
2552.62306	0.98614
2550.56615	0.98541
2548.50924	0.98509
2546.45233	0.98492
2544.39542	0.98463
2542.33851	0.98501
2540.28161	0.98567
2538.22470	0.98558
2536.16779	0.98544
2534.11088	0.98578
2532.05397	0.98569
2529.99707	0.98544
2527.94016	0.98605
2525.88325	0.98655
2523.82634	0.98609
2521.76943	0.98549
2519.71252	0.98532
2517.65562	0.98536
2515.59871	0.98550
2513.54180	0.98563
2511.48489	0.98557
2509.42798	0.98547
2507.37108	0.98534
2505.31417	0.98513
2503.25726	0.98480
2501.20035	0.98455
2499.14344	0.98471
2497.08653	0.98522
2495.02963	0.98532
2492.97272	0.98467
2490.91581	0.98471
2488.85890	0.98571
2486.80199	0.98564
2484.74509	0.98430
2482.68818	0.98380
2480.63127	0.98457
2478.57436	0.98527
2476.51745	0.98531
2474.46054	0.98520
2472.40364	0.98561
2470.34673	0.98611
2468.28982	0.98593
2466.23291	0.98539
2464.17600	0.98483
2462.11910	0.98431
2460.06219	0.98413
2458.00528	0.98461
2455.94837	0.98535
2453.89146	0.98578
2451.83455	0.98608
2449.77765	0.98603
2447.72074	0.98545
2445.66383	0.98517
2443.60692	0.98566
2441.55001	0.98609
2439.49311	0.98564
2437.43620	0.98510
2435.37929	0.98515
2433.32238	0.98537
2431.26547	0.98539
2429.20856	0.98541
2427.15166	0.98588
2425.09475	0.98617
2423.03784	0.98585
2420.98093	0.98595
2418.92402	0.98635
2416.86712	0.98588
2414.81021	0.98517
2412.75330	0.98509
2410.69639	0.98551
2408.63948	0.98602
2406.58257	0.98623
2404.52567	0.98629
2402.46876	0.98632
2400.41185	0.98630
2398.35494	0.98601
2396.29803	0.98548
2394.24113	0.98558
2392.18422	0.98624
2390.12731	0.98656
2388.07040	0.98643
2386.01349	0.98645
2383.95658	0.98691
2381.89968	0.98721
2379.84277	0.98666
2377.78586	0.98576
2375.72895	0.98556
2373.67204	0.98572
2371.61514	0.98589
2369.55823	0.98679
2367.50132	0.98811
2365.44441	0.98872
2363.38750	0.98846
2361.33059	0.98775
2359.27369	0.98709
2357.21678	0.98702
2355.15987	0.98708
2353.10296	0.98714
2351.04605	0.98698
2348.98915	0.98650
2346.93224	0.98625
2344.87533	0.98595
2342.81842	0.98533
2340.76151	0.98518
2338.70460	0.98558
2336.64770	0.98584
2334.59079	0.98590
2332.53388	0.98605
2330.47697	0.98640
2328.42006	0.98632
2326.36316	0.98559
2324.30625	0.98519
2322.24934	0.98470
2320.19243	0.98365
2318.13552	0.98338
2316.07861	0.98434
2314.02171	0.98532
2311.96480	0.98565
2309.90789	0.98583
2307.85098	0.98574
2305.79407	0.98529
2303.73717	0.98499
2301.68026	0.98450
2299.62335	0.98362
2297.56644	0.98308
2295.50953	0.98316
2293.45262	0.98348
2291.39572	0.98368
2289.33881	0.98353
2287.28190	0.98360
2285.22499	0.98442
2283.16808	0.98556
2281.11117	0.98645
2279.05427	0.98692
2276.99736	0.98715
2274.94045	0.98721
2272.88354	0.98698
2270.82663	0.98683
2268.76973	0.98680
2266.71282	0.98611
2264.65591	0.98552
2262.59900	0.98579
2260.54209	0.98593
2258.48518	0.98619
2256.42828	0.98683
2254.37137	0.98689
2252.31446	0.98609
2250.25755	0.98558
2248.20064	0.98665
2246.14374	0.98827
2244.08683	0.98857
2242.02992	0.98769
2239.97301	0.98725
2237.91610	0.98759
2235.85919	0.98796
2233.80229	0.98736
2231.74538	0.98597
2229.68847	0.98570
2227.63156	0.98627
2225.57465	0.98676
2223.51775	0.98775
2221.46084	0.98802
2219.40393	0.98637
2217.34702	0.98550
2215.29011	0.98701
2213.23320	0.98796
2211.17630	0.98744
2209.11939	0.98720
2207.06248	0.98690
2205.00557	0.98664
2202.94866	0.98672
2200.89176	0.98612
2198.83485	0.98600
2196.77794	0.98760
2194.72103	0.98955
2192.66412	0.99012
2190.60721	0.98917
2188.55031	0.98765
2186.49340	0.98649
2184.43649	0.98581
2182.37958	0.98547
2180.32267	0.98589
2178.26577	0.98700
2176.20886	0.98782
2174.15195	0.98763
2172.09504	0.98718
2170.03813	0.98762
2167.98122	0.98869
2165.92432	0.98986
2163.86741	0.99095
2161.81050	0.99214
2159.75359	0.99303
2157.69668	0.99188
2155.63978	0.98941
2153.58287	0.98887
2151.52596	0.99147
2149.46905	0.99379
2147.41214	0.99314
2145.35523	0.99095
2143.29833	0.98879
2141.24142	0.98852
2139.18451	0.99012
2137.12760	0.99100
2135.07069	0.99003
2133.01379	0.98842
2130.95688	0.98756
2128.89997	0.98722
2126.84306	0.98679
2124.78615	0.98646
2122.72924	0.98639
2120.67234	0.98603
2118.61543	0.98526
2116.55852	0.98494
2114.50161	0.98560
2112.44470	0.98624
2110.38780	0.98560
2108.33089	0.98410
2106.27398	0.98360
2104.21707	0.98463
2102.16016	0.98521
2100.10325	0.98482
2098.04635	0.98521
2095.98944	0.98702
2093.93253	0.98869
2091.87562	0.98847
2089.81871	0.98707
2087.76181	0.98641
2085.70490	0.98688
2083.64799	0.98747
2081.59108	0.98743
2079.53417	0.98687
2077.47726	0.98689
2075.42036	0.98790
2073.36345	0.98834
2071.30654	0.98772
2069.24963	0.98766
2067.19272	0.98866
2065.13582	0.98901
2063.07891	0.98860
2061.02200	0.98876
2058.96509	0.98840
2056.90818	0.98707
2054.85127	0.98673
2052.79437	0.98740
2050.73746	0.98779
2048.68055	0.98845
2046.62364	0.98924
2044.56673	0.98973
2042.50983	0.98988
2040.45292	0.98876
2038.39601	0.98796
2036.33910	0.98871
2034.28219	0.98944
2032.22528	0.98814
2030.16838	0.98504
2028.11147	0.98332
2026.05456	0.98374
2023.99765	0.98551
2021.94074	0.98863
2019.88384	0.98990
2017.82693	0.98817
2015.77002	0.98801
2013.71311	0.98990
2011.65620	0.99106
2009.59929	0.99201
2007.54239	0.99292
2005.48548	0.99374
2003.42857	0.99471
2001.37166	0.99362
1999.31475	0.99011
1997.25785	0.98757
1995.20094	0.98720
1993.14403	0.98820
1991.08712	0.98989
1989.03021	0.98996
1986.97330	0.98839
1984.91640	0.98743
1982.85949	0.98780
1980.80258	0.98923
1978.74567	0.99072
1976.68876	0.99105
1974.63186	0.99160
1972.57495	0.99359
1970.51804	0.99470
1968.46113	0.99362
1966.40422	0.99157
1964.34731	0.98994
1962.29041	0.98979
1960.23350	0.99117
1958.17659	0.99185
1956.11968	0.99047
1954.06277	0.98955
1952.00587	0.99095
1949.94896	0.99296
1947.89205	0.99359
1945.83514	0.99276
1943.77823	0.99098
1941.72132	0.98910
1939.66442	0.98837
1937.60751	0.98880
1935.55060	0.98920
1933.49369	0.98859
1931.43678	0.98787
1929.37988	0.98823
1927.32297	0.98870
1925.26606	0.98852
1923.20915	0.98831
1921.15224	0.98782
1919.09533	0.98713
1917.03843	0.98711
1914.98152	0.98784
1912.92461	0.98915
1910.86770	0.99025
1908.81079	0.99015
1906.75389	0.98960
1904.69698	0.98933
1902.64007	0.98939
1900.58316	0.98970
1898.52625	0.98978
1896.46934	0.98944
1894.41244	0.98910
1892.35553	0.98912
1890.29862	0.98925
1888.24171	0.98942
1886.18480	0.98992
1884.12790	0.99031
1882.07099	0.99003
1880.01408	0.98917
1877.95717	0.98842
1875.90026	0.98843
1873.84335	0.98908
1871.78645	0.98988
1869.72954	0.99048
1867.67263	0.99041
1865.61572	0.98980
1863.55881	0.98957
1861.50191	0.98963
1859.44500	0.98934
1857.38809	0.98917
1855.33118	0.98930
1853.27427	0.98915
1851.21736	0.98887
1849.16046	0.98883
1847.10355	0.98912
1845.04664	0.98958
1842.98973	0.98973
1840.93282	0.98967
1838.87592	0.98989
1836.81901	0.99027
1834.76210	0.99046
1832.70519	0.99050
1830.64828	0.99027
1828.59137	0.98956
1826.53447	0.98905
1824.47756	0.98914
1822.42065	0.98934
1820.36374	0.98929
1818.30683	0.98928
1816.24993	0.98933
1814.19302	0.98919
1812.13611	0.98895
1810.07920	0.98868
1808.02229	0.98842
1805.96538	0.98833
1803.90848	0.98861
1801.85157	0.98893
1799.79466	0.98876
1797.73775	0.98836
1795.68084	0.98801
1793.62394	0.98760
1791.56703	0.98703
1789.51012	0.98646
1787.45321	0.98596
1785.39630	0.98544
1783.33939	0.98467
1781.28249	0.98346
1779.22558	0.98187
1777.16867	0.98042
1775.11176	0.97916
1773.05485	0.97700
1770.99795	0.97326
1768.94104	0.96879
1766.88413	0.96321
1764.82722	0.95668
1762.77031	0.94873
1760.71340	0.93895
1758.65650	0.92952
1756.59959	0.91997
1754.54268	0.91135
1752.48577	0.90426
1750.42886	0.89646
1748.37196	0.88818
1746.31505	0.88134
1744.25814	0.87566
1742.20123	0.87060
1740.14432	0.86588
1738.08741	0.86245
1736.03051	0.86086
1733.97360	0.85949
1731.91669	0.85831
1729.85978	0.85813
1727.80287	0.85881
1725.74597	0.86021
1723.68906	0.86243
1721.63215	0.86560
1719.57524	0.87017
1717.51833	0.87681
1715.46142	0.88385
1713.40452	0.89034
1711.34761	0.89722
1709.29070	0.90450
1707.23379	0.91225
1705.17688	0.92042
1703.11998	0.92725
1701.06307	0.93353
1699.00616	0.93985
1696.94925	0.94431
1694.89234	0.94825
1692.83543	0.95147
1690.77853	0.95403
1688.72162	0.95626
1686.66471	0.95825
1684.60780	0.96076
1682.55089	0.96266
1680.49399	0.96331
1678.43708	0.96391
1676.38017	0.96491
1674.32326	0.96607
1672.26635	0.96684
1670.20944	0.96708
1668.15254	0.96709
1666.09563	0.96715
1664.03872	0.96713
1661.98181	0.96717
1659.92490	0.96713
1657.86800	0.96677
1655.81109	0.96645
1653.75418	0.96660
1651.69727	0.96677
1649.64036	0.96665
1647.58345	0.96656
1645.52655	0.96627
1643.46964	0.96608
1641.41273	0.96617
1639.35582	0.96640
1637.29891	0.96683
1635.24201	0.96745
1633.18510	0.96770
1631.12819	0.96782
1629.07128	0.96825
1627.01437	0.96890
1624.95746	0.96940
1622.90056	0.96997
1620.84365	0.97088
1618.78674	0.97191
1616.72983	0.97267
1614.67292	0.97294
1612.61602	0.97317
1610.55911	0.97345
1608.50220	0.97390
1606.44529	0.97479
1604.38838	0.97589
1602.33147	0.97659
1600.27457	0.97665
1598.21766	0.97659
1596.16075	0.97691
1594.10384	0.97733
1592.04693	0.97770
1589.99003	0.97835
1587.93312	0.97902
1585.87621	0.97922
1583.81930	0.97916
1581.76239	0.97915
1579.70548	0.97939
1577.64858	0.98031
1575.59167	0.98117
1573.53476	0.98093
1571.47785	0.98078
1569.42094	0.98095
1567.36404	0.98092
1565.30713	0.98084
1563.25022	0.98093
1561.19331	0.98141
1559.13640	0.98207
1557.07949	0.98163
1555.02259	0.98127
1552.96568	0.98155
1550.90877	0.98179
1548.85186	0.98161
1546.79495	0.98156
1544.73805	0.98202
1542.68114	0.98281
1540.62423	0.98356
1538.56732	0.98334
1536.51041	0.98276
1534.45350	0.98256
1532.39660	0.98269
1530.33969	0.98296
1528.28278	0.98319
1526.22587	0.98312
1524.16896	0.98309
1522.11206	0.98335
1520.05515	0.98366
1517.99824	0.98400
1515.94133	0.98401
1513.88442	0.98377
1511.82751	0.98389
1509.77061	0.98429
1507.71370	0.98424
1505.65679	0.98330
1503.59988	0.98277
1501.54297	0.98284
1499.48607	0.98322
1497.42916	0.98361
1495.37225	0.98361
1493.31534	0.98334
1491.25843	0.98301
1489.20152	0.98287
1487.14462	0.98309
1485.08771	0.98290
1483.03080	0.98235
1480.97389	0.98195
1478.91698	0.98154
1476.86008	0.98091
1474.80317	0.98020
1472.74626	0.97937
1470.68935	0.97816
1468.63244	0.97696
1466.57553	0.97590
1464.51863	0.97446
1462.46172	0.97281
1460.40481	0.97176
1458.34790	0.97083
1456.29099	0.96894
1454.23409	0.96724
1452.17718	0.96623
1450.12027	0.96526
1448.06336	0.96408
1446.00645	0.96265
1443.94954	0.96111
1441.89264	0.95966
1439.83573	0.95862
1437.77882	0.95781
1435.72191	0.95662
1433.66500	0.95547
1431.60810	0.95493
1429.55119	0.95485
1427.49428	0.95533
1425.43737	0.95652
1423.38046	0.95784
1421.32355	0.95881
1419.26665	0.95961
1417.20974	0.96033
1415.15283	0.96110
1413.09592	0.96170
1411.03901	0.96196
1408.98211	0.96210
1406.92520	0.96242
1404.86829	0.96280
1402.81138	0.96279
1400.75447	0.96244
1398.69756	0.96184
1396.64066	0.96058
1394.58375	0.95833
1392.52684	0.95556
1390.46993	0.95260
1388.41302	0.94885
1386.35612	0.94390
1384.29921	0.93840
1382.24230	0.93272
1380.18539	0.92702
1378.12848	0.92173
1376.07157	0.91669
1374.01467	0.91153
1371.95776	0.90717
1369.90085	0.90465
1367.84394	0.90435
1365.78703	0.90664
1363.73013	0.91140
1361.67322	0.91830
1359.61631	0.92610
1357.55940	0.93388
1355.50249	0.94112
1353.44558	0.94708
1351.38868	0.95138
1349.33177	0.95436
1347.27486	0.95655
1345.21795	0.95832
1343.16104	0.95981
1341.10414	0.96079
1339.04723	0.96106
1336.99032	0.96122
1334.93341	0.96147
1332.87650	0.96154
1330.81959	0.96148
1328.76269	0.96133
1326.70578	0.96127
1324.64887	0.96122
1322.59196	0.96088
1320.53505	0.96043
1318.47815	0.96020
1316.42124	0.96035
1314.36433	0.96072
1312.30742	0.96102
1310.25051	0.96125
1308.19360	0.96145
1306.13670	0.96155
1304.07979	0.96143
1302.02288	0.96110
1299.96597	0.96066
1297.90906	0.95987
1295.85216	0.95877
1293.79525	0.95757
1291.73834	0.95614
1289.68143	0.95443
1287.62452	0.95248
1285.56761	0.95030
1283.51071	0.94769
1281.45380	0.94457
1279.39689	0.94126
1277.33998	0.93781
1275.28307	0.93416
1273.22617	0.93021
1271.16926	0.92592
1269.11235	0.92130
1267.05544	0.91665
1264.99853	0.91208
1262.94162	0.90701
1260.88472	0.90144
1258.82781	0.89569
1256.77090	0.88954
1254.71399	0.88322
1252.65708	0.87712
1250.60018	0.87091
1248.54327	0.86453
1246.48636	0.85835
1244.42945	0.85236
1242.37254	0.84641
1240.31563	0.84037
1238.25873	0.83417
1236.20182	0.82824
1234.14491	0.82312
1232.08800	0.81866
1230.03109	0.81462
1227.97419	0.81118
1225.91728	0.80864
1223.86037	0.80713
1221.80346	0.80679
1219.74655	0.80785
1217.68964	0.81043
1215.63274	0.81470
1213.57583	0.82088
1211.51892	0.82869
1209.46201	0.83773
1207.40510	0.84768
1205.34820	0.85833
1203.29129	0.86944
1201.23438	0.88061
1199.17747	0.89139
1197.12056	0.90106
1195.06365	0.90935
1193.00675	0.91654
1190.94984	0.92252
1188.89293	0.92699
1186.83602	0.92976
1184.77911	0.93107
1182.72221	0.93137
1180.66530	0.93095
1178.60839	0.92992
1176.55148	0.92825
1174.49457	0.92600
1172.43766	0.92340
1170.38076	0.92071
1168.32385	0.91821
1166.26694	0.91614
1164.21003	0.91476
1162.15312	0.91421
1160.09622	0.91426
1158.03931	0.91471
1155.98240	0.91578
1153.92549	0.91758
1151.86858	0.91953
1149.81167	0.92141
1147.75477	0.92351
1145.69786	0.92518
1143.64095	0.92558
1141.58404	0.92519
1139.52713	0.92445
1137.47023	0.92314
1135.41332	0.92115
1133.35641	0.91870
1131.29950	0.91618
1129.24259	0.91357
1127.18568	0.91094
1125.12878	0.90864
1123.07187	0.90667
1121.01496	0.90493
1118.95805	0.90367
1116.90114	0.90316
1114.84424	0.90288
1112.78733	0.90224
1110.73042	0.90118
1108.67351	0.89987
1106.61660	0.89854
1104.55969	0.89737
1102.50279	0.89627
1100.44588	0.89465
1098.38897	0.89250
1096.33206	0.89036
1094.27515	0.88796
1092.21825	0.88481
1090.16134	0.88114
1088.10443	0.87730
1086.04752	0.87345
1083.99061	0.86958
1081.93370	0.86543
1079.87680	0.86076
1077.81989	0.85585
1075.76298	0.85144
1073.70607	0.84766
1071.64916	0.84402
1069.59226	0.84051
1067.53535	0.83738
1065.47844	0.83426
1063.42153	0.83090
1061.36462	0.82727
1059.30771	0.82330
1057.25081	0.81935
1055.19390	0.81558
1053.13699	0.81182
1051.08008	0.80801
1049.02317	0.80413
1046.96627	0.80017
1044.90936	0.79636
1042.85245	0.79259
1040.79554	0.78870
1038.73863	0.78491
1036.68172	0.78116
1034.62482	0.77768
1032.56791	0.77496
1030.51100	0.77312
1028.45409	0.77234
1026.39718	0.77236
1024.34028	0.77300
1022.28337	0.77440
1020.22646	0.77644
1018.16955	0.77906
1016.11264	0.78256
1014.05573	0.78674
1011.99883	0.79091
1009.94192	0.79486
1007.88501	0.79901
1005.82810	0.80371
1003.77119	0.80869
1001.71429	0.81342
999.65738	0.81767
997.60047	0.82158
995.54356	0.82555
993.48665	0.82971
991.42974	0.83373
989.37284	0.83740
987.31593	0.84079
985.25902	0.84407
983.20211	0.84723
981.14520	0.85022
979.08830	0.85347
977.03139	0.85714
974.97448	0.86089
972.91757	0.86497
970.86066	0.86969
968.80375	0.87454
966.74685	0.87929
964.68994	0.88375
962.63303	0.88759
960.57612	0.89078
958.51921	0.89314
956.46231	0.89481
954.40540	0.89624
952.34849	0.89763
950.29158	0.89948
948.23467	0.90169
946.17776	0.90371
944.12086	0.90565
942.06395	0.90757
940.00704	0.90926
937.95013	0.91074
935.89322	0.91177
933.83632	0.91207
931.77941	0.91236
929.72250	0.91284
927.66559	0.91277
925.60868	0.91244
923.55177	0.91226
921.49487	0.91172
919.43796	0.91046
917.38105	0.90895
915.32414	0.90781
913.26723	0.90681
911.21033	0.90558
909.15342	0.90436
907.09651	0.90310
905.03960	0.90193
902.98269	0.90160
900.92578	0.90225
898.86888	0.90338
896.81197	0.90450
894.75506	0.90552
892.69815	0.90698
890.64124	0.90902
888.58434	0.91107
886.52743	0.91296
884.47052	0.91520
882.41361	0.91787
880.35670	0.92049
878.29979	0.92286
876.24289	0.92516
874.18598	0.92744
872.12907	0.92997
870.07216	0.93276
868.01525	0.93518
865.95835	0.93694
863.90144	0.93800
861.84453	0.93904
859.78762	0.94037
857.73071	0.94130
855.67380	0.94198
853.61690	0.94264
851.55999	0.94292
849.50308	0.94285
847.44617	0.94253
845.38926	0.94193
843.33236	0.94135
841.27545	0.94096
839.21854	0.94085
837.16163	0.94089
835.10472	0.94125
833.04781	0.94231
830.99091	0.94373
828.93400	0.94484
826.87709	0.94551
824.82018	0.94627
822.76327	0.94732
820.70637	0.94846
818.64946	0.94954
816.59255	0.95065
814.53564	0.95196
812.47873	0.95299
810.42182	0.95305
808.36492	0.95271
806.30801	0.95268
804.25110	0.95260
802.19419	0.95258
800.13728	0.95302
798.08038	0.95351
796.02347	0.95354
793.96656	0.95320
791.90965	0.95350
789.85274	0.95462
787.79583	0.95527
785.73893	0.95485
783.68202	0.95429
781.62511	0.95434
779.56820	0.95486
777.51129	0.95518
775.45439	0.95478
773.39748	0.95427
771.34057	0.95419
769.28366	0.95440
767.22675	0.95455
765.16984	0.95461
763.11294	0.95485
761.05603	0.95533
758.99912	0.95575
756.94221	0.95593
754.88530	0.95581
752.82839	0.95525
750.77149	0.95458
748.71458	0.95423
746.65767	0.95413
744.60076	0.95427
742.54385	0.95453
740.48695	0.95462
738.43004	0.95451
736.37313	0.95400
734.31622	0.95315
732.25931	0.95234
730.20240	0.95168
728.14550	0.95147
726.08859	0.95115
724.03168	0.95018
721.97477	0.94957
719.91786	0.94971
717.86096	0.94937
715.80405	0.94780
713.74714	0.94615
711.69023	0.94569
709.63332	0.94594
707.57641	0.94567
705.51951	0.94475
703.46260	0.94387
701.40569	0.94343
699.34878	0.94318
697.29187	0.94285
695.23497	0.94222
693.17806	0.94099
691.12115	0.93984
689.06424	0.93917
687.00733	0.93841
684.95042	0.93788
682.89352	0.93753
680.83661	0.93686
678.77970	0.93633
676.72279	0.93594
674.66588	0.93534
672.60898	0.93477
670.55207	0.93444
668.49516	0.93420
666.43825	0.93420
664.38134	0.93451
662.32443	0.93451
660.26753	0.93370
658.21062	0.93221
656.15371	0.93110
654.09680	0.93056
652.03989	0.92960
649.98299	0.92836
647.92608	0.92748
645.86917	0.92655
643.81226	0.92464
641.75535	0.92235
639.69844	0.92120
637.64154	0.92061
635.58463	0.91997
633.52772	0.91934
631.47081	0.91789
629.41390	0.91590
627.35700	0.91431
625.30009	0.91317
623.24318	0.91233
621.18627	0.91111
619.12936	0.90909
617.07245	0.90727
615.01555	0.90574
612.95864	0.90274
610.90173	0.89829
608.84482	0.89413
606.78791	0.89101
604.73101	0.88873
602.67410	0.88682
600.61719	0.88570
598.56028	0.88703
596.50337	0.89028
594.44646	0.89385
592.38956	0.89787
590.33265	0.90110
588.27574	0.90200
586.21883	0.90186
584.16192	0.90245
582.10502	0.90368
580.04811	0.90469
577.99120	0.90512
575.93429	0.90555
573.87738	0.90614
571.82047	0.90597
569.76357	0.90522
567.70666	0.90451
565.64975	0.90404
563.59284	0.90343
561.53593	0.90230
559.47903	0.90111
557.42212	0.89939
555.36521	0.89849
553.30830	0.90003
551.25139	0.90132
549.19448	0.90139
547.13758	0.90253
545.08067	0.90421
543.02376	0.90426
540.96685	0.90356
538.90994	0.90363
536.85304	0.90366
534.79613	0.90320
532.73922	0.90337
530.68231	0.90337
528.62540	0.90183
526.56849	0.90027
524.51159	0.89973
522.45468	0.90044
520.39777	0.90201
518.34086	0.90192
516.28395	0.90040
514.22705	0.90003
512.17014	0.89985
510.11323	0.89805
508.05632	0.89588
505.99941	0.89531
503.94250	0.89569
501.88560	0.89553
499.82869	0.89559
497.77178	0.89590
495.71487	0.89498
493.65796	0.89326
491.60106	0.89254
489.54415	0.89261
487.48724	0.89125
485.43033	0.88941
483.37342	0.88945
481.31651	0.89023
479.25961	0.88980
477.20270	0.88900
475.14579	0.88883
473.08888	0.88890
471.03197	0.88897
468.97507	0.88786
466.91816	0.88536
464.86125	0.88369
462.80434	0.88446
460.74743	0.88661
458.69052	0.88699
456.63362	0.88422
454.57671	0.88210
452.51980	0.88188
450.46289	0.88121
448.40598	0.88095
446.34908	0.88187
444.29217	0.88220
442.23526	0.88176
440.17835	0.88087
438.12144	0.87962
436.06453	0.87942
434.00763	0.87960
431.95072	0.87911
429.89381	0.88162
427.83690	0.88676
425.77999	0.88829
423.72309	0.88453
421.66618	0.88167
419.60927	0.88327
417.55236	0.88248
415.49545	0.87918
413.43854	0.87778
411.38164	0.87557
409.32473	0.87453
407.26782	0.87909
405.21091	0.88349
403.15400	0.88316
401.09710	0.88164
399.04019	0.87992
