3996.57260	0.98635
3994.51569	0.98593
3992.45878	0.98550
3990.40188	0.98542
3988.34497	0.98560
3986.28806	0.98571
3984.23115	0.98544
3982.17424	0.98510
3980.11733	0.98533
3978.06043	0.98580
3976.00352	0.98606
3973.94661	0.98622
3971.88970	0.98669
3969.83279	0.98743
3967.77589	0.98739
3965.71898	0.98640
3963.66207	0.98618
3961.60516	0.98691
3959.54825	0.98689
3957.49134	0.98613
3955.43444	0.98547
3953.37753	0.98518
3951.32062	0.98531
3949.26371	0.98554
3947.20680	0.98572
3945.14990	0.98598
3943.09299	0.98631
3941.03608	0.98681
3938.97917	0.98715
3936.92226	0.98688
3934.86535	0.98634
3932.80845	0.98615
3930.75154	0.98650
3928.69463	0.98703
3926.63772	0.98719
3924.58081	0.98677
3922.52391	0.98678
3920.46700	0.98781
3918.41009	0.98824
3916.35318	0.98691
3914.29627	0.98552
3912.23936	0.98508
3910.18246	0.98506
3908.12555	0.98518
3906.06864	0.98515
3904.01173	0.98488
3901.95482	0.98467
3899.89792	0.98462
3897.84101	0.98479
3895.78410	0.98511
3893.72719	0.98563
3891.67028	0.98604
3889.61337	0.98609
3887.55647	0.98645
3885.49956	0.98699
3883.44265	0.98697
3881.38574	0.98662
3879.32883	0.98624
3877.27193	0.98572
3875.21502	0.98545
3873.15811	0.98560
3871.10120	0.98539
3869.04429	0.98515
3866.98738	0.98558
3864.93048	0.98569
3862.87357	0.98511
3860.81666	0.98475
3858.75975	0.98506
3856.70284	0.98607
3854.64594	0.98707
3852.58903	0.98738
3850.53212	0.98721
3848.47521	0.98625
3846.41830	0.98551
3844.36139	0.98607
3842.30449	0.98682
3840.24758	0.98695
3838.19067	0.98717
3836.13376	0.98693
3834.07685	0.98611
3832.01995	0.98583
3829.96304	0.98649
3827.90613	0.98738
3825.84922	0.98759
3823.79231	0.98724
3821.73540	0.98677
3819.67850	0.98625
3817.62159	0.98620
3815.56468	0.98630
3813.50777	0.98577
3811.45086	0.98522
3809.39396	0.98538
3807.33705	0.98607
3805.28014	0.98689
3803.22323	0.98736
3801.16632	0.98693
3799.10941	0.98684
3797.05251	0.98731
3794.99560	0.98717
3792.93869	0.98669
3790.88178	0.98641
3788.82487	0.98634
3786.76796	0.98619
3784.71106	0.98612
3782.65415	0.98622
3780.59724	0.98624
3778.54033	0.98648
3776.48342	0.98695
3774.42652	0.98709
3772.36961	0.98667
3770.31270	0.98591
3768.25579	0.98574
3766.19888	0.98619
3764.14197	0.98631
3762.08507	0.98628
3760.02816	0.98671
3757.97125	0.98709
3755.91434	0.98663
3753.85743	0.98625
3751.80053	0.98670
3749.74362	0.98654
3747.68671	0.98578
3745.62980	0.98607
3743.57289	0.98678
3741.51598	0.98634
3739.45908	0.98576
3737.40217	0.98600
3735.34526	0.98649
3733.28835	0.98678
3731.23144	0.98727
3729.17454	0.98745
3727.11763	0.98733
3725.06072	0.98710
3723.00381	0.98672
3720.94690	0.98683
3718.88999	0.98756
3716.83309	0.98787
3714.77618	0.98735
3712.71927	0.98687
3710.66236	0.98711
3708.60545	0.98770
3706.54855	0.98779
3704.49164	0.98706
3702.43473	0.98650
3700.37782	0.98679
3698.32091	0.98705
3696.26400	0.98697
3694.20710	0.98714
3692.15019	0.98777
3690.09328	0.98840
3688.03637	0.98815
3685.97946	0.98688
3683.92256	0.98542
3681.86565	0.98476
3679.80874	0.98529
3677.75183	0.98600
3675.69492	0.98607
3673.63801	0.98604
3671.58111	0.98604
3669.52420	0.98576
3667.46729	0.98546
3665.41038	0.98518
3663.35347	0.98520
3661.29657	0.98575
3659.23966	0.98638
3657.18275	0.98651
3655.12584	0.98582
3653.06893	0.98475
3651.01202	0.98399
3648.95512	0.98388
3646.89821	0.98338
3644.84130	0.98294
3642.78439	0.98306
3640.72748	0.98301
3638.67058	0.98308
3636.61367	0.98331
3634.55676	0.98331
3632.49985	0.98339
3630.44294	0.98352
3628.38603	0.98365
3626.32913	0.98393
3624.27222	0.98367
3622.21531	0.98240
3620.15840	0.98070
3618.10149	0.97951
3616.04459	0.97947
3613.98768	0.98033
3611.93077	0.98117
3609.87386	0.98153
3607.81695	0.98157
3605.76004	0.98175
3603.70314	0.98197
3601.64623	0.98148
3599.58932	0.98066
3597.53241	0.98041
3595.47550	0.98028
3593.41860	0.97993
3591.36169	0.97997
3589.30478	0.98051
3587.24787	0.98085
3585.19096	0.98011
3583.13405	0.97903
3581.07715	0.97887
3579.02024	0.97946
3576.96333	0.97918
3574.90642	0.97781
3572.84951	0.97697
3570.79261	0.97740
3568.73570	0.97802
3566.67879	0.97769
3564.62188	0.97753
3562.56497	0.97831
3560.50806	0.97846
3558.45116	0.97749
3556.39425	0.97672
3554.33734	0.97666
3552.28043	0.97652
3550.22352	0.97596
3548.16662	0.97547
3546.10971	0.97516
3544.05280	0.97510
3541.99589	0.97493
3539.93898	0.97422
3537.88207	0.97376
3535.82517	0.97381
3533.76826	0.97356
3531.71135	0.97273
3529.65444	0.97202
3527.59753	0.97205
3525.54063	0.97216
3523.48372	0.97214
3521.42681	0.97235
3519.36990	0.97254
3517.31299	0.97252
3515.25608	0.97193
3513.19918	0.97106
3511.14227	0.97077
3509.08536	0.97085
3507.02845	0.97056
3504.97154	0.97048
3502.91464	0.97103
3500.85773	0.97120
3498.80082	0.97061
3496.74391	0.97030
3494.68700	0.97076
3492.63009	0.97086
3490.57319	0.97029
3488.51628	0.97021
3486.45937	0.97084
3484.40246	0.97094
3482.34555	0.97027
3480.28865	0.97009
3478.23174	0.97023
3476.17483	0.97010
3474.11792	0.97013
3472.06101	0.97017
3470.00410	0.96986
3467.94720	0.96956
3465.89029	0.96944
3463.83338	0.96947
3461.77647	0.96972
3459.71956	0.96989
3457.66266	0.96983
3455.60575	0.96997
3453.54884	0.97055
3451.49193	0.97100
3449.43502	0.97096
3447.37811	0.97107
3445.32121	0.97146
3443.26430	0.97166
3441.20739	0.97170
3439.15048	0.97162
3437.09357	0.97129
3435.03667	0.97083
3432.97976	0.97069
3430.92285	0.97104
3428.86594	0.97156
3426.80903	0.97213
3424.75212	0.97258
3422.69522	0.97262
3420.63831	0.97226
3418.58140	0.97193
3416.52449	0.97190
3414.46758	0.97207
3412.41068	0.97232
3410.35377	0.97248
3408.29686	0.97271
3406.23995	0.97333
3404.18304	0.97382
3402.12613	0.97358
3400.06923	0.97337
3398.01232	0.97365
3395.95541	0.97383
3393.89850	0.97394
3391.84159	0.97415
3389.78469	0.97396
3387.72778	0.97382
3385.67087	0.97413
3383.61396	0.97459
3381.55705	0.97473
3379.50014	0.97415
3377.44324	0.97374
3375.38633	0.97401
3373.32942	0.97446
3371.27251	0.97510
3369.21560	0.97563
3367.15870	0.97578
3365.10179	0.97587
3363.04488	0.97581
3360.98797	0.97573
3358.93106	0.97601
3356.87415	0.97649
3354.81725	0.97697
3352.76034	0.97675
3350.70343	0.97605
3348.64652	0.97623
3346.58961	0.97687
3344.53271	0.97721
3342.47580	0.97774
3340.41889	0.97840
3338.36198	0.97863
3336.30507	0.97867
3334.24816	0.97862
3332.19126	0.97811
3330.13435	0.97738
3328.07744	0.97704
3326.02053	0.97695
3323.96362	0.97669
3321.90672	0.97680
3319.84981	0.97780
3317.79290	0.97882
3315.73599	0.97895
3313.67908	0.97863
3311.62217	0.97833
3309.56527	0.97824
3307.50836	0.97841
3305.45145	0.97820
3303.39454	0.97775
3301.33763	0.97798
3299.28073	0.97866
3297.22382	0.97874
3295.16691	0.97832
3293.11000	0.97817
3291.05309	0.97839
3288.99618	0.97889
3286.93928	0.97960
3284.88237	0.98022
3282.82546	0.98024
3280.76855	0.97959
3278.71164	0.97896
3276.65474	0.97910
3274.59783	0.98003
3272.54092	0.98072
3270.48401	0.98037
3268.42710	0.97976
3266.37019	0.97961
3264.31329	0.97984
3262.25638	0.98004
3260.19947	0.97992
3258.14256	0.97994
3256.08565	0.98016
3254.02875	0.98017
3251.97184	0.98013
3249.91493	0.98041
3247.85802	0.98103
3245.80111	0.98154
3243.74420	0.98157
3241.68730	0.98130
3239.63039	0.98076
3237.57348	0.98028
3235.51657	0.98023
3233.45966	0.98025
3231.40276	0.98054
3229.34585	0.98090
3227.28894	0.98100
3225.23203	0.98146
3223.17512	0.98216
3221.11821	0.98241
3219.06131	0.98237
3217.00440	0.98247
3214.94749	0.98256
3212.89058	0.98243
3210.83367	0.98218
3208.77677	0.98194
3206.71986	0.98178
3204.66295	0.98180
3202.60604	0.98199
3200.54913	0.98223
3198.49222	0.98257
3196.43532	0.98280
3194.37841	0.98278
3192.32150	0.98295
3190.26459	0.98304
3188.20768	0.98262
3186.15078	0.98214
3184.09387	0.98186
3182.03696	0.98172
3179.98005	0.98157
3177.92314	0.98144
3175.86623	0.98164
3173.80933	0.98174
3171.75242	0.98141
3169.69551	0.98132
3167.63860	0.98169
3165.58169	0.98197
3163.52479	0.98203
3161.46788	0.98213
3159.41097	0.98239
3157.35406	0.98253
3155.29715	0.98245
3153.24024	0.98245
3151.18334	0.98259
3149.12643	0.98278
3147.06952	0.98283
3145.01261	0.98291
3142.95570	0.98335
3140.89880	0.98365
3138.84189	0.98342
3136.78498	0.98320
3134.72807	0.98340
3132.67116	0.98350
3130.61425	0.98306
3128.55735	0.98277
3126.50044	0.98312
3124.44353	0.98342
3122.38662	0.98325
3120.32971	0.98311
3118.27281	0.98338
3116.21590	0.98359
3114.15899	0.98333
3112.10208	0.98308
3110.04517	0.98304
3107.98826	0.98294
3105.93136	0.98301
3103.87445	0.98316
3101.81754	0.98317
3099.76063	0.98338
3097.70372	0.98365
3095.64682	0.98380
3093.58991	0.98420
3091.53300	0.98458
3089.47609	0.98446
3087.41918	0.98418
3085.36227	0.98421
3083.30537	0.98445
3081.24846	0.98449
3079.19155	0.98425
3077.13464	0.98378
3075.07773	0.98329
3073.02083	0.98317
3070.96392	0.98337
3068.90701	0.98386
3066.85010	0.98445
3064.79319	0.98461
3062.73628	0.98458
3060.67938	0.98459
3058.62247	0.98445
3056.56556	0.98430
3054.50865	0.98411
3052.45174	0.98372
3050.39484	0.98344
3048.33793	0.98333
3046.28102	0.98310
3044.22411	0.98293
3042.16720	0.98307
3040.11029	0.98325
3038.05339	0.98326
3035.99648	0.98307
3033.93957	0.98256
3031.88266	0.98213
3029.82575	0.98218
3027.76885	0.98242
3025.71194	0.98248
3023.65503	0.98251
3021.59812	0.98276
3019.54121	0.98292
3017.48430	0.98251
3015.42740	0.98180
3013.37049	0.98136
3011.31358	0.98135
3009.25667	0.98164
3007.19976	0.98193
3005.14286	0.98174
3003.08595	0.98128
3001.02904	0.98127
2998.97213	0.98146
2996.91522	0.98151
2994.85831	0.98137
2992.80141	0.98100
2990.74450	0.98057
2988.68759	0.98032
2986.63068	0.98037
2984.57377	0.98051
2982.51687	0.98066
2980.45996	0.98086
2978.40305	0.98079
2976.34614	0.98026
2974.28923	0.97953
2972.23232	0.97876
2970.17542	0.97830
2968.11851	0.97837
2966.06160	0.97852
2964.00469	0.97848
2961.94778	0.97828
2959.89088	0.97805
2957.83397	0.97805
2955.77706	0.97817
2953.72015	0.97784
2951.66324	0.97695
2949.60633	0.97622
2947.54943	0.97601
2945.49252	0.97615
2943.43561	0.97648
2941.37870	0.97658
2939.32179	0.97649
2937.26489	0.97655
2935.20798	0.97648
2933.15107	0.97624
2931.09416	0.97633
2929.03725	0.97715
2926.98034	0.97807
2924.92344	0.97778
2922.86653	0.97684
2920.80962	0.97687
2918.75271	0.97728
2916.69580	0.97712
2914.63890	0.97688
2912.58199	0.97677
2910.52508	0.97664
2908.46817	0.97670
2906.41126	0.97702
2904.35435	0.97724
2902.29745	0.97706
2900.24054	0.97675
2898.18363	0.97676
2896.12672	0.97701
2894.06981	0.97715
2892.01291	0.97715
2889.95600	0.97698
2887.89909	0.97675
2885.84218	0.97667
2883.78527	0.97668
2881.72836	0.97669
2879.67146	0.97682
2877.61455	0.97708
2875.55764	0.97728
2873.50073	0.97743
2871.44382	0.97774
2869.38692	0.97798
2867.33001	0.97793
2865.27310	0.97800
2863.21619	0.97842
2861.15928	0.97867
2859.10237	0.97892
2857.04547	0.97961
2854.98856	0.98020
2852.93165	0.98036
2850.87474	0.98049
2848.81783	0.98075
2846.76093	0.98090
2844.70402	0.98093
2842.64711	0.98099
2840.59020	0.98111
2838.53329	0.98137
2836.47638	0.98164
2834.41948	0.98171
2832.36257	0.98183
2830.30566	0.98202
2828.24875	0.98209
2826.19184	0.98233
2824.13494	0.98287
2822.07803	0.98332
2820.02112	0.98338
2817.96421	0.98316
2815.90730	0.98276
2813.85039	0.98264
2811.79349	0.98305
2809.73658	0.98350
2807.67967	0.98368
2805.62276	0.98359
2803.56585	0.98325
2801.50895	0.98299
2799.45204	0.98295
2797.39513	0.98292
2795.33822	0.98281
2793.28131	0.98293
2791.22440	0.98339
2789.16750	0.98370
2787.11059	0.98373
2785.05368	0.98352
2782.99677	0.98300
2780.93986	0.98269
2778.88296	0.98308
2776.82605	0.98361
2774.76914	0.98349
2772.71223	0.98288
2770.65532	0.98264
2768.59841	0.98295
2766.54151	0.98311
2764.48460	0.98309
2762.42769	0.98336
2760.37078	0.98377
2758.31387	0.98393
2756.25697	0.98372
2754.20006	0.98334
2752.14315	0.98298
2750.08624	0.98280
2748.02933	0.98295
2745.97242	0.98327
2743.91552	0.98340
2741.85861	0.98327
2739.80170	0.98298
2737.74479	0.98284
2735.68788	0.98307
2733.63098	0.98326
2731.57407	0.98313
2729.51716	0.98294
2727.46025	0.98272
2725.40334	0.98257
2723.34643	0.98272
2721.28953	0.98304
2719.23262	0.98338
2717.17571	0.98361
2715.11880	0.98375
2713.06189	0.98397
2711.00499	0.98408
2708.94808	0.98376
2706.89117	0.98346
2704.83426	0.98360
2702.77735	0.98372
2700.72044	0.98371
2698.66354	0.98392
2696.60663	0.98411
2694.54972	0.98394
2692.49281	0.98372
2690.43590	0.98372
2688.37900	0.98378
2686.32209	0.98387
2684.26518	0.98394
2682.20827	0.98382
2680.15136	0.98359
2678.09445	0.98350
2676.03755	0.98364
2673.98064	0.98389
2671.92373	0.98391
2669.86682	0.98354
2667.80991	0.98345
2665.75301	0.98366
2663.69610	0.98361
2661.63919	0.98359
2659.58228	0.98378
2657.52537	0.98381
2655.46846	0.98360
2653.41156	0.98330
2651.35465	0.98318
2649.29774	0.98339
2647.24083	0.98357
2645.18392	0.98331
2643.12702	0.98300
2641.07011	0.98330
2639.01320	0.98385
2636.95629	0.98402
2634.89938	0.98408
2632.84247	0.98427
2630.78557	0.98436
2628.72866	0.98403
2626.67175	0.98372
2624.61484	0.98404
2622.55793	0.98434
2620.50103	0.98405
2618.44412	0.98390
2616.38721	0.98418
2614.33030	0.98434
2612.27339	0.98427
2610.21648	0.98425
2608.15958	0.98421
2606.10267	0.98399
2604.04576	0.98363
2601.98885	0.98347
2599.93194	0.98403
2597.87504	0.98477
2595.81813	0.98461
2593.76122	0.98407
2591.70431	0.98402
2589.64740	0.98420
2587.59049	0.98401
2585.53359	0.98355
2583.47668	0.98358
2581.41977	0.98416
2579.36286	0.98493
2577.30595	0.98548
2575.24905	0.98541
2573.19214	0.98487
2571.13523	0.98442
2569.07832	0.98449
2567.02141	0.98488
2564.96450	0.98490
2562.90760	0.98425
2560.85069	0.98397
2558.79378	0.98482
2556.73687	0.98550
2554.67996	0.98512
2552.62306	0.98466
2550.56615	0.98479
2548.50924	0.98509
2546.45233	0.98507
2544.39542	0.98509
2542.33851	0.98543
2540.28161	0.98552
2538.22470	0.98529
2536.16779	0.98511
2534.11088	0.98497
2532.05397	0.98473
2529.99707	0.98475
2527.94016	0.98531
2525.88325	0.98586
2523.82634	0.98589
2521.76943	0.98555
2519.71252	0.98545
2517.65562	0.98558
2515.59871	0.98544
2513.54180	0.98517
2511.48489	0.98490
2509.42798	0.98463
2507.37108	0.98442
2505.31417	0.98446
2503.25726	0.98476
2501.20035	0.98500
2499.14344	0.98526
2497.08653	0.98544
2495.02963	0.98518
2492.97272	0.98496
2490.91581	0.98531
2488.85890	0.98550
2486.80199	0.98504
2484.74509	0.98471
2482.68818	0.98475
2480.63127	0.98508
2478.57436	0.98554
2476.51745	0.98518
2474.46054	0.98422
2472.40364	0.98392
2470.34673	0.98416
2468.28982	0.98448
2466.23291	0.98498
2464.17600	0.98541
2462.11910	0.98517
2460.06219	0.98465
2458.00528	0.98465
2455.94837	0.98507
2453.89146	0.98530
2451.83455	0.98512
2449.77765	0.98505
2447.72074	0.98521
2445.66383	0.98501
2443.60692	0.98428
2441.55001	0.98405
2439.49311	0.98476
2437.43620	0.98543
2435.37929	0.98577
2433.32238	0.98619
2431.26547	0.98653
2429.20856	0.98626
2427.15166	0.98546
2425.09475	0.98484
2423.03784	0.98488
2420.98093	0.98515
2418.92402	0.98513
2416.86712	0.98493
2414.81021	0.98448
2412.75330	0.98388
2410.69639	0.98393
2408.63948	0.98461
2406.58257	0.98506
2404.52567	0.98556
2402.46876	0.98628
2400.41185	0.98671
2398.35494	0.98663
2396.29803	0.98603
2394.24113	0.98528
2392.18422	0.98494
2390.12731	0.98531
2388.07040	0.98601
2386.01349	0.98624
2383.95658	0.98605
2381.89968	0.98596
2379.84277	0.98609
2377.78586	0.98648
2375.72895	0.98635
2373.67204	0.98526
2371.61514	0.98434
2369.55823	0.98387
2367.50132	0.98399
2365.44441	0.98501
2363.38750	0.98545
2361.33059	0.98532
2359.27369	0.98624
2357.21678	0.98702
2355.15987	0.98667
2353.10296	0.98568
2351.04605	0.98485
2348.98915	0.98470
2346.93224	0.98465
2344.87533	0.98451
2342.81842	0.98479
2340.76151	0.98579
2338.70460	0.98698
2336.64770	0.98700
2334.59079	0.98614
2332.53388	0.98571
2330.47697	0.98541
2328.42006	0.98489
2326.36316	0.98446
2324.30625	0.98419
2322.24934	0.98414
2320.19243	0.98420
2318.13552	0.98416
2316.07861	0.98433
2314.02171	0.98445
2311.96480	0.98451
2309.90789	0.98498
2307.85098	0.98532
2305.79407	0.98522
2303.73717	0.98510
2301.68026	0.98513
2299.62335	0.98520
2297.56644	0.98508
2295.50953	0.98472
2293.45262	0.98410
2291.39572	0.98356
2289.33881	0.98371
2287.28190	0.98412
2285.22499	0.98392
2283.16808	0.98363
2281.11117	0.98407
2279.05427	0.98490
2276.99736	0.98555
2274.94045	0.98613
2272.88354	0.98678
2270.82663	0.98681
2268.76973	0.98578
2266.71282	0.98539
2264.65591	0.98638
2262.59900	0.98676
2260.54209	0.98590
2258.48518	0.98521
2256.42828	0.98558
2254.37137	0.98675
2252.31446	0.98715
2250.25755	0.98597
2248.20064	0.98440
2246.14374	0.98329
2244.08683	0.98302
2242.02992	0.98376
2239.97301	0.98516
2237.91610	0.98683
2235.85919	0.98802
2233.80229	0.98847
2231.74538	0.98850
2229.68847	0.98833
2227.63156	0.98743
2225.57465	0.98601
2223.51775	0.98560
2221.46084	0.98641
2219.40393	0.98733
2217.34702	0.98730
2215.29011	0.98705
2213.23320	0.98726
2211.17630	0.98668
2209.11939	0.98569
2207.06248	0.98606
2205.00557	0.98713
2202.94866	0.98763
2200.89176	0.98806
2198.83485	0.98747
2196.77794	0.98566
2194.72103	0.98522
2192.66412	0.98579
2190.60721	0.98572
2188.55031	0.98664
2186.49340	0.98836
2184.43649	0.98841
2182.37958	0.98783
2180.32267	0.98803
2178.26577	0.98868
2176.20886	0.98909
2174.15195	0.98760
2172.09504	0.98541
2170.03813	0.98490
2167.98122	0.98581
2165.92432	0.98665
2163.86741	0.98634
2161.81050	0.98626
2159.75359	0.98877
2157.69668	0.99161
2155.63978	0.99105
2153.58287	0.98851
2151.52596	0.98685
2149.46905	0.98683
2147.41214	0.98710
2145.35523	0.98669
2143.29833	0.98602
2141.24142	0.98537
2139.18451	0.98551
2137.12760	0.98708
2135.07069	0.98882
2133.01379	0.98844
2130.95688	0.98611
2128.89997	0.98464
2126.84306	0.98554
2124.78615	0.98689
2122.72924	0.98713
2120.67234	0.98692
2118.61543	0.98622
2116.55852	0.98541
2114.50161	0.98529
2112.44470	0.98530
2110.38780	0.98520
2108.33089	0.98546
2106.27398	0.98592
2104.21707	0.98634
2102.16016	0.98678
2100.10325	0.98723
2098.04635	0.98742
2095.98944	0.98711
2093.93253	0.98676
2091.87562	0.98650
2089.81871	0.98617
2087.76181	0.98584
2085.70490	0.98583
2083.64799	0.98689
2081.59108	0.98821
2079.53417	0.98786
2077.47726	0.98589
2075.42036	0.98427
2073.36345	0.98486
2071.30654	0.98763
2069.24963	0.99005
2067.19272	0.98987
2065.13582	0.98835
2063.07891	0.98745
2061.02200	0.98704
2058.96509	0.98718
2056.90818	0.98729
2054.85127	0.98672
2052.79437	0.98683
2050.73746	0.98775
2048.68055	0.98790
2046.62364	0.98605
2044.56673	0.98317
2042.50983	0.98265
2040.45292	0.98413
2038.39601	0.98485
2036.33910	0.98510
2034.28219	0.98460
2032.22528	0.98472
2030.16838	0.98853
2028.11147	0.99330
2026.05456	0.99363
2023.99765	0.99015
2021.94074	0.98891
2019.88384	0.99132
2017.82693	0.99364
2015.77002	0.99430
2013.71311	0.99288
2011.65620	0.99060
2009.59929	0.99032
2007.54239	0.99032
2005.48548	0.98949
2003.42857	0.98999
2001.37166	0.99083
1999.31475	0.99011
1997.25785	0.98858
1995.20094	0.98854
1993.14403	0.98949
1991.08712	0.98982
1989.03021	0.98984
1986.97330	0.98911
1984.91640	0.98763
1982.85949	0.98624
1980.80258	0.98536
1978.74567	0.98559
1976.68876	0.98713
1974.63186	0.98940
1972.57495	0.99050
1970.51804	0.98899
1968.46113	0.98683
1966.40422	0.98600
1964.34731	0.98625
1962.29041	0.98689
1960.23350	0.98763
1958.17659	0.98904
1956.11968	0.99027
1954.06277	0.98926
1952.00587	0.98723
1949.94896	0.98704
1947.89205	0.98838
1945.83514	0.98949
1943.77823	0.99049
1941.72132	0.99093
1939.66442	0.98999
1937.60751	0.98914
1935.55060	0.98865
1933.49369	0.98772
1931.43678	0.98726
1929.37988	0.98771
1927.32297	0.98826
1925.26606	0.98862
1923.20915	0.98901
1921.15224	0.98935
1919.09533	0.98915
1917.03843	0.98853
1914.98152	0.98833
1912.92461	0.98852
1910.86770	0.98855
1908.81079	0.98856
1906.75389	0.98933
1904.69698	0.98980
1902.64007	0.98903
1900.58316	0.98851
1898.52625	0.98864
1896.46934	0.98874
1894.41244	0.98882
1892.35553	0.98893
1890.29862	0.98873
1888.24171	0.98855
1886.18480	0.98912
1884.12790	0.98984
1882.07099	0.98978
1880.01408	0.98916
1877.95717	0.98897
1875.90026	0.98938
1873.84335	0.98911
1871.78645	0.98784
1869.72954	0.98729
1867.67263	0.98792
1865.61572	0.98819
1863.55881	0.98813
1861.50191	0.98850
1859.44500	0.98912
1857.38809	0.98948
1855.33118	0.98956
1853.27427	0.98981
1851.21736	0.98992
1849.16046	0.98971
1847.10355	0.98971
1845.04664	0.98976
1842.98973	0.98955
1840.93282	0.98913
1838.87592	0.98888
1836.81901	0.98919
1834.76210	0.98995
1832.70519	0.99063
1830.64828	0.99059
1828.59137	0.98940
1826.53447	0.98852
1824.47756	0.98893
1822.42065	0.98928
1820.36374	0.98887
1818.30683	0.98855
1816.24993	0.98855
1814.19302	0.98858
1812.13611	0.98865
1810.07920	0.98843
1808.02229	0.98806
1805.96538	0.98774
1803.90848	0.98738
1801.85157	0.98715
1799.79466	0.98708
1797.73775	0.98679
1795.68084	0.98643
1793.62394	0.98613
1791.56703	0.98529
1789.51012	0.98454
1787.45321	0.98443
1785.39630	0.98409
1783.33939	0.98307
1781.28249	0.98190
1779.22558	0.98063
1777.16867	0.97901
1775.11176	0.97687
1773.05485	0.97362
1770.99795	0.96871
1768.94104	0.96278
1766.88413	0.95611
1764.82722	0.94914
1762.77031	0.94060
1760.71340	0.92983
1758.65650	0.91985
1756.59959	0.91056
1754.54268	0.90212
1752.48577	0.89456
1750.42886	0.88639
1748.37196	0.87852
1746.31505	0.87246
1744.25814	0.86742
1742.20123	0.86300
1740.14432	0.85888
1738.08741	0.85544
1736.03051	0.85339
1733.97360	0.85213
1731.91669	0.85245
1729.85978	0.85439
1727.80287	0.85704
1725.74597	0.86019
1723.68906	0.86450
1721.63215	0.86965
1719.57524	0.87536
1717.51833	0.88297
1715.46142	0.89193
1713.40452	0.90017
1711.34761	0.90770
1709.29070	0.91478
1707.23379	0.92181
1705.17688	0.92872
1703.11998	0.93422
1701.06307	0.93936
1699.00616	0.94464
1696.94925	0.94828
1694.89234	0.95151
1692.83543	0.95436
1690.77853	0.95680
1688.72162	0.95899
1686.66471	0.96059
1684.60780	0.96210
1682.55089	0.96364
1680.49399	0.96474
1678.43708	0.96562
1676.38017	0.96634
1674.32326	0.96698
1672.26635	0.96756
1670.20944	0.96798
1668.15254	0.96817
1666.09563	0.96837
1664.03872	0.96865
1661.98181	0.96871
1659.92490	0.96847
1657.86800	0.96813
1655.81109	0.96801
1653.75418	0.96842
1651.69727	0.96875
1649.64036	0.96857
1647.58345	0.96837
1645.52655	0.96817
1643.46964	0.96812
1641.41273	0.96843
1639.35582	0.96896
1637.29891	0.96926
1635.24201	0.96907
1633.18510	0.96887
1631.12819	0.96889
1629.07128	0.96910
1627.01437	0.96974
1624.95746	0.97056
1622.90056	0.97131
1620.84365	0.97181
1618.78674	0.97202
1616.72983	0.97234
1614.67292	0.97301
1612.61602	0.97394
1610.55911	0.97495
1608.50220	0.97574
1606.44529	0.97621
1604.38838	0.97646
1602.33147	0.97664
1600.27457	0.97688
1598.21766	0.97733
1596.16075	0.97806
1594.10384	0.97873
1592.04693	0.97909
1589.99003	0.97936
1587.93312	0.97958
1585.87621	0.97961
1583.81930	0.97967
1581.76239	0.97995
1579.70548	0.98029
1577.64858	0.98067
1575.59167	0.98086
1573.53476	0.98064
1571.47785	0.98054
1569.42094	0.98067
1567.36404	0.98084
1565.30713	0.98106
1563.25022	0.98152
1561.19331	0.98215
1559.13640	0.98216
1557.07949	0.98133
1555.02259	0.98132
1552.96568	0.98177
1550.90877	0.98195
1548.85186	0.98181
1546.79495	0.98185
1544.73805	0.98217
1542.68114	0.98232
1540.62423	0.98184
1538.56732	0.98142
1536.51041	0.98158
1534.45350	0.98175
1532.39660	0.98172
1530.33969	0.98176
1528.28278	0.98214
1526.22587	0.98292
1524.16896	0.98353
1522.11206	0.98340
1520.05515	0.98281
1517.99824	0.98241
1515.94133	0.98234
1513.88442	0.98249
1511.82751	0.98261
1509.77061	0.98280
1507.71370	0.98324
1505.65679	0.98343
1503.59988	0.98316
1501.54297	0.98311
1499.48607	0.98333
1497.42916	0.98334
1495.37225	0.98314
1493.31534	0.98324
1491.25843	0.98343
1489.20152	0.98334
1487.14462	0.98313
1485.08771	0.98312
1483.03080	0.98299
1480.97389	0.98254
1478.91698	0.98207
1476.86008	0.98177
1474.80317	0.98136
1472.74626	0.98023
1470.68935	0.97874
1468.63244	0.97776
1466.57553	0.97683
1464.51863	0.97549
1462.46172	0.97417
1460.40481	0.97317
1458.34790	0.97195
1456.29099	0.97009
1454.23409	0.96880
1452.17718	0.96797
1450.12027	0.96700
1448.06336	0.96571
1446.00645	0.96430
1443.94954	0.96305
1441.89264	0.96178
1439.83573	0.96060
1437.77882	0.95957
1435.72191	0.95857
1433.66500	0.95806
1431.60810	0.95794
1429.55119	0.95796
1427.49428	0.95838
1425.43737	0.95939
1423.38046	0.96079
1421.32355	0.96199
1419.26665	0.96285
1417.20974	0.96352
1415.15283	0.96421
1413.09592	0.96500
1411.03901	0.96569
1408.98211	0.96606
1406.92520	0.96627
1404.86829	0.96641
1402.81138	0.96651
1400.75447	0.96660
1398.69756	0.96609
1396.64066	0.96440
1394.58375	0.96175
1392.52684	0.95874
1390.46993	0.95553
1388.41302	0.95137
1386.35612	0.94610
1384.29921	0.94079
1382.24230	0.93561
1380.18539	0.93015
1378.12848	0.92445
1376.07157	0.91890
1374.01467	0.91345
1371.95776	0.90849
1369.90085	0.90496
1367.84394	0.90343
1365.78703	0.90445
1363.73013	0.90839
1361.67322	0.91567
1359.61631	0.92492
1357.55940	0.93441
1355.50249	0.94312
1353.44558	0.95004
1351.38868	0.95483
1349.33177	0.95805
1347.27486	0.96049
1345.21795	0.96252
1343.16104	0.96413
1341.10414	0.96518
1339.04723	0.96563
1336.99032	0.96590
1334.93341	0.96631
1332.87650	0.96653
1330.81959	0.96640
1328.76269	0.96629
1326.70578	0.96623
1324.64887	0.96607
1322.59196	0.96580
1320.53505	0.96565
1318.47815	0.96582
1316.42124	0.96607
1314.36433	0.96619
1312.30742	0.96638
1310.25051	0.96669
1308.19360	0.96691
1306.13670	0.96698
1304.07979	0.96681
1302.02288	0.96640
1299.96597	0.96583
1297.90906	0.96511
1295.85216	0.96437
1293.79525	0.96345
1291.73834	0.96198
1289.68143	0.96020
1287.62452	0.95836
1285.56761	0.95639
1283.51071	0.95415
1281.45380	0.95144
1279.39689	0.94833
1277.33998	0.94505
1275.28307	0.94153
1273.22617	0.93761
1271.16926	0.93329
1269.11235	0.92882
1267.05544	0.92435
1264.99853	0.91987
1262.94162	0.91527
1260.88472	0.91021
1258.82781	0.90451
1256.77090	0.89831
1254.71399	0.89181
1252.65708	0.88508
1250.60018	0.87835
1248.54327	0.87166
1246.48636	0.86480
1244.42945	0.85786
1242.37254	0.85089
1240.31563	0.84381
1238.25873	0.83686
1236.20182	0.83037
1234.14491	0.82429
1232.08800	0.81854
1230.03109	0.81340
1227.97419	0.80888
1225.91728	0.80501
1223.86037	0.80223
1221.80346	0.80057
1219.74655	0.79974
1217.68964	0.79980
1215.63274	0.80096
1213.57583	0.80364
1211.51892	0.80837
1209.46201	0.81522
1207.40510	0.82385
1205.34820	0.83412
1203.29129	0.84574
1201.23438	0.85817
1199.17747	0.87085
1197.12056	0.88310
1195.06365	0.89427
1193.00675	0.90387
1190.94984	0.91132
1188.89293	0.91622
1186.83602	0.91908
1184.77911	0.92101
1182.72221	0.92219
1180.66530	0.92219
1178.60839	0.92132
1176.55148	0.91993
1174.49457	0.91803
1172.43766	0.91600
1170.38076	0.91438
1168.32385	0.91315
1166.26694	0.91217
1164.21003	0.91157
1162.15312	0.91155
1160.09622	0.91238
1158.03931	0.91385
1155.98240	0.91546
1153.92549	0.91716
1151.86858	0.91911
1149.81167	0.92106
1147.75477	0.92281
1145.69786	0.92406
1143.64095	0.92440
1141.58404	0.92408
1139.52713	0.92333
1137.47023	0.92196
1135.41332	0.92010
1133.35641	0.91819
1131.29950	0.91631
1129.24259	0.91429
1127.18568	0.91216
1125.12878	0.91031
1123.07187	0.90924
1121.01496	0.90878
1118.95805	0.90838
1116.90114	0.90780
1114.84424	0.90734
1112.78733	0.90744
1110.73042	0.90750
1108.67351	0.90669
1106.61660	0.90546
1104.55969	0.90429
1102.50279	0.90296
1100.44588	0.90133
1098.38897	0.89922
1096.33206	0.89688
1094.27515	0.89459
1092.21825	0.89187
1090.16134	0.88851
1088.10443	0.88472
1086.04752	0.88085
1083.99061	0.87684
1081.93370	0.87242
1079.87680	0.86808
1077.81989	0.86412
1075.76298	0.86033
1073.70607	0.85663
1071.64916	0.85279
1069.59226	0.84872
1067.53535	0.84500
1065.47844	0.84193
1063.42153	0.83874
1061.36462	0.83496
1059.30771	0.83069
1057.25081	0.82599
1055.19390	0.82139
1053.13699	0.81697
1051.08008	0.81252
1049.02317	0.80834
1046.96627	0.80418
1044.90936	0.79980
1042.85245	0.79594
1040.79554	0.79256
1038.73863	0.78889
1036.68172	0.78507
1034.62482	0.78160
1032.56791	0.77872
1030.51100	0.77656
1028.45409	0.77541
1026.39718	0.77583
1024.34028	0.77781
1022.28337	0.78086
1020.22646	0.78481
1018.16955	0.78945
1016.11264	0.79444
1014.05573	0.79953
1011.99883	0.80460
1009.94192	0.80989
1007.88501	0.81546
1005.82810	0.82098
1003.77119	0.82627
1001.71429	0.83119
999.65738	0.83557
997.60047	0.83980
995.54356	0.84429
993.48665	0.84872
991.42974	0.85224
989.37284	0.85479
987.31593	0.85724
985.25902	0.86000
983.20211	0.86287
981.14520	0.86573
979.08830	0.86877
977.03139	0.87209
974.97448	0.87546
972.91757	0.87918
970.86066	0.88350
968.80375	0.88781
966.74685	0.89160
964.68994	0.89482
962.63303	0.89742
960.57612	0.89965
958.51921	0.90192
956.46231	0.90400
954.40540	0.90554
952.34849	0.90659
950.29158	0.90759
948.23467	0.90907
946.17776	0.91087
944.12086	0.91257
942.06395	0.91410
940.00704	0.91546
937.95013	0.91662
935.89322	0.91762
933.83632	0.91852
931.77941	0.91884
929.72250	0.91829
927.66559	0.91733
925.60868	0.91633
923.55177	0.91530
921.49487	0.91393
919.43796	0.91228
917.38105	0.91097
915.32414	0.91008
913.26723	0.90895
911.21033	0.90756
909.15342	0.90630
907.09651	0.90507
905.03960	0.90426
902.98269	0.90428
900.92578	0.90454
898.86888	0.90473
896.81197	0.90532
894.75506	0.90679
892.69815	0.90918
890.64124	0.91186
888.58434	0.91413
886.52743	0.91613
884.47052	0.91795
882.41361	0.91922
880.35670	0.92023
878.29979	0.92177
876.24289	0.92382
874.18598	0.92594
872.12907	0.92864
870.07216	0.93193
868.01525	0.93480
865.95835	0.93714
863.90144	0.93920
861.84453	0.94072
859.78762	0.94148
857.73071	0.94170
855.67380	0.94174
853.61690	0.94195
851.55999	0.94233
849.50308	0.94214
847.44617	0.94130
845.38926	0.94088
843.33236	0.94086
841.27545	0.94039
839.21854	0.93964
837.16163	0.93930
835.10472	0.93954
833.04781	0.94059
830.99091	0.94252
828.93400	0.94474
826.87709	0.94719
824.82018	0.94939
822.76327	0.95050
820.70637	0.95094
818.64946	0.95116
816.59255	0.95137
814.53564	0.95168
812.47873	0.95197
810.42182	0.95220
808.36492	0.95239
806.30801	0.95276
804.25110	0.95314
802.19419	0.95346
800.13728	0.95397
798.08038	0.95457
796.02347	0.95473
793.96656	0.95437
791.90965	0.95417
789.85274	0.95457
787.79583	0.95503
785.73893	0.95503
783.68202	0.95512
781.62511	0.95558
779.56820	0.95577
777.51129	0.95564
775.45439	0.95581
773.39748	0.95623
771.34057	0.95661
769.28366	0.95710
767.22675	0.95748
765.16984	0.95733
763.11294	0.95688
761.05603	0.95676
758.99912	0.95723
756.94221	0.95770
754.88530	0.95786
752.82839	0.95802
750.77149	0.95811
748.71458	0.95808
746.65767	0.95769
744.60076	0.95721
742.54385	0.95765
740.48695	0.95846
738.43004	0.95818
736.37313	0.95708
734.31622	0.95628
732.25931	0.95613
730.20240	0.95591
728.14550	0.95493
726.08859	0.95379
724.03168	0.95326
721.97477	0.95302
719.91786	0.95248
717.86096	0.95203
715.80405	0.95194
713.74714	0.95164
711.69023	0.95084
709.63332	0.94995
707.57641	0.94955
705.51951	0.94966
703.46260	0.94977
701.40569	0.94942
699.34878	0.94838
697.29187	0.94722
695.23497	0.94657
693.17806	0.94608
691.12115	0.94573
689.06424	0.94561
687.00733	0.94495
684.95042	0.94379
682.89352	0.94346
680.83661	0.94388
678.77970	0.94425
676.72279	0.94459
674.66588	0.94441
672.60898	0.94342
670.55207	0.94266
668.49516	0.94292
666.43825	0.94383
664.38134	0.94449
662.32443	0.94457
660.26753	0.94390
658.21062	0.94218
656.15371	0.94033
654.09680	0.93975
652.03989	0.93888
649.98299	0.93675
647.92608	0.93478
645.86917	0.93372
643.81226	0.93333
641.75535	0.93337
639.69844	0.93347
637.64154	0.93275
635.58463	0.93159
633.52772	0.93038
631.47081	0.92863
629.41390	0.92741
627.35700	0.92690
625.30009	0.92567
623.24318	0.92421
621.18627	0.92331
619.12936	0.92179
617.07245	0.91948
615.01555	0.91725
612.95864	0.91407
610.90173	0.90937
608.84482	0.90457
606.78791	0.90052
604.73101	0.89675
602.67410	0.89376
600.61719	0.89332
598.56028	0.89644
596.50337	0.90098
594.44646	0.90377
592.38956	0.90534
590.33265	0.90721
588.27574	0.90936
586.21883	0.91202
584.16192	0.91526
582.10502	0.91788
580.04811	0.91899
577.99120	0.91976
575.93429	0.92118
573.87738	0.92146
571.82047	0.91929
569.76357	0.91687
567.70666	0.91642
565.64975	0.91689
563.59284	0.91626
561.53593	0.91516
559.47903	0.91469
557.42212	0.91445
555.36521	0.91483
553.30830	0.91612
551.25139	0.91722
549.19448	0.91757
547.13758	0.91705
545.08067	0.91603
543.02376	0.91608
540.96685	0.91675
538.90994	0.91718
536.85304	0.91771
534.79613	0.91783
532.73922	0.91850
530.68231	0.91964
528.62540	0.91856
526.56849	0.91605
524.51159	0.91602
522.45468	0.91769
520.39777	0.91781
518.34086	0.91686
516.28395	0.91578
514.22705	0.91441
512.17014	0.91329
510.11323	0.91295
508.05632	0.91305
505.99941	0.91252
503.94250	0.91174
501.88560	0.91094
499.82869	0.90974
497.77178	0.90804
495.71487	0.90578
493.65796	0.90501
491.60106	0.90531
489.54415	0.90386
487.48724	0.90196
485.43033	0.90090
483.37342	0.90062
481.31651	0.90154
479.25961	0.90233
477.20270	0.90122
475.14579	0.89841
473.08888	0.89524
471.03197	0.89297
468.97507	0.89245
466.91816	0.89301
464.86125	0.89399
462.80434	0.89441
460.74743	0.89225
458.69052	0.88926
456.63362	0.88980
454.57671	0.89124
452.51980	0.88915
450.46289	0.88654
448.40598	0.88639
446.34908	0.88724
444.29217	0.88797
442.23526	0.88775
440.17835	0.88711
438.12144	0.88634
436.06453	0.88464
434.00763	0.88322
431.95072	0.88342
429.89381	0.88479
427.83690	0.88779
425.77999	0.89207
423.72309	0.89405
421.66618	0.89341
419.60927	0.89409
417.55236	0.89748
415.49545	0.89975
413.43854	0.89817
411.38164	0.89353
409.32473	0.89109
407.26782	0.89522
405.21091	0.90306
403.15400	0.90585
401.09710	0.90101
399.04019	0.89538
