3996.57260	0.98264
3994.51569	0.98281
3992.45878	0.98246
3990.40188	0.98217
3988.34497	0.98196
3986.28806	0.98188
3984.23115	0.98250
3982.17424	0.98305
3980.11733	0.98288
3978.06043	0.98256
3976.00352	0.98217
3973.94661	0.98184
3971.88970	0.98217
3969.83279	0.98222
3967.77589	0.98122
3965.71898	0.98049
3963.66207	0.98088
3961.60516	0.98176
3959.54825	0.98253
3957.49134	0.98285
3955.43444	0.98248
3953.37753	0.98209
3951.32062	0.98221
3949.26371	0.98266
3947.20680	0.98322
3945.14990	0.98371
3943.09299	0.98400
3941.03608	0.98407
3938.97917	0.98415
3936.92226	0.98414
3934.86535	0.98401
3932.80845	0.98402
3930.75154	0.98413
3928.69463	0.98373
3926.63772	0.98300
3924.58081	0.98261
3922.52391	0.98242
3920.46700	0.98222
3918.41009	0.98190
3916.35318	0.98151
3914.29627	0.98164
3912.23936	0.98214
3910.18246	0.98239
3908.12555	0.98272
3906.06864	0.98368
3904.01173	0.98521
3901.95482	0.98635
3899.89792	0.98622
3897.84101	0.98544
3895.78410	0.98465
3893.72719	0.98386
3891.67028	0.98310
3889.61337	0.98289
3887.55647	0.98320
3885.49956	0.98339
3883.44265	0.98344
3881.38574	0.98346
3879.32883	0.98324
3877.27193	0.98287
3875.21502	0.98263
3873.15811	0.98279
3871.10120	0.98327
3869.04429	0.98356
3866.98738	0.98342
3864.93048	0.98308
3862.87357	0.98330
3860.81666	0.98417
3858.75975	0.98445
3856.70284	0.98408
3854.64594	0.98401
3852.58903	0.98388
3850.53212	0.98296
3848.47521	0.98231
3846.41830	0.98211
3844.36139	0.98204
3842.30449	0.98200
3840.24758	0.98157
3838.19067	0.98100
3836.13376	0.98189
3834.07685	0.98367
3832.01995	0.98449
3829.96304	0.98415
3827.90613	0.98366
3825.84922	0.98337
3823.79231	0.98335
3821.73540	0.98362
3819.67850	0.98403
3817.62159	0.98437
3815.56468	0.98396
3813.50777	0.98358
3811.45086	0.98431
3809.39396	0.98496
3807.33705	0.98448
3805.28014	0.98381
3803.22323	0.98398
3801.16632	0.98488
3799.10941	0.98577
3797.05251	0.98546
3794.99560	0.98392
3792.93869	0.98307
3790.88178	0.98353
3788.82487	0.98406
3786.76796	0.98388
3784.71106	0.98309
3782.65415	0.98291
3780.59724	0.98398
3778.54033	0.98464
3776.48342	0.98440
3774.42652	0.98413
3772.36961	0.98358
3770.31270	0.98280
3768.25579	0.98266
3766.19888	0.98338
3764.14197	0.98412
3762.08507	0.98422
3760.02816	0.98429
3757.97125	0.98458
3755.91434	0.98428
3753.85743	0.98346
3751.80053	0.98300
3749.74362	0.98343
3747.68671	0.98392
3745.62980	0.98455
3743.57289	0.98453
3741.51598	0.98372
3739.45908	0.98387
3737.40217	0.98462
3735.34526	0.98433
3733.28835	0.98307
3731.23144	0.98274
3729.17454	0.98366
3727.11763	0.98464
3725.06072	0.98475
3723.00381	0.98452
3720.94690	0.98443
3718.88999	0.98437
3716.83309	0.98429
3714.77618	0.98420
3712.71927	0.98406
3710.66236	0.98408
3708.60545	0.98433
3706.54855	0.98447
3704.49164	0.98473
3702.43473	0.98480
3700.37782	0.98378
3698.32091	0.98258
3696.26400	0.98321
3694.20710	0.98536
3692.15019	0.98652
3690.09328	0.98581
3688.03637	0.98468
3685.97946	0.98388
3683.92256	0.98313
3681.86565	0.98296
3679.80874	0.98365
3677.75183	0.98381
3675.69492	0.98253
3673.63801	0.98183
3671.58111	0.98281
3669.52420	0.98438
3667.46729	0.98451
3665.41038	0.98349
3663.35347	0.98269
3661.29657	0.98205
3659.23966	0.98131
3657.18275	0.98088
3655.12584	0.98071
3653.06893	0.98036
3651.01202	0.97975
3648.95512	0.97959
3646.89821	0.98027
3644.84130	0.98068
3642.78439	0.98049
3640.72748	0.97957
3638.67058	0.97819
3636.61367	0.97738
3634.55676	0.97770
3632.49985	0.97858
3630.44294	0.97920
3628.38603	0.97855
3626.32913	0.97727
3624.27222	0.97655
3622.21531	0.97591
3620.15840	0.97517
3618.10149	0.97459
3616.04459	0.97416
3613.98768	0.97352
3611.93077	0.97252
3609.87386	0.97187
3607.81695	0.97193
3605.76004	0.97173
3603.70314	0.97071
3601.64623	0.96930
3599.58932	0.96855
3597.53241	0.96896
3595.47550	0.96907
3593.41860	0.96815
3591.36169	0.96740
3589.30478	0.96684
3587.24787	0.96565
3585.19096	0.96478
3583.13405	0.96479
3581.07715	0.96489
3579.02024	0.96489
3576.96333	0.96471
3574.90642	0.96406
3572.84951	0.96296
3570.79261	0.96165
3568.73570	0.96036
3566.67879	0.95942
3564.62188	0.95900
3562.56497	0.95850
3560.50806	0.95748
3558.45116	0.95640
3556.39425	0.95565
3554.33734	0.95477
3552.28043	0.95383
3550.22352	0.95328
3548.16662	0.95283
3546.10971	0.95182
3544.05280	0.95075
3541.99589	0.95026
3539.93898	0.94967
3537.88207	0.94882
3535.82517	0.94786
3533.76826	0.94712
3531.71135	0.94706
3529.65444	0.94672
3527.59753	0.94528
3525.54063	0.94385
3523.48372	0.94331
3521.42681	0.94309
3519.36990	0.94244
3517.31299	0.94110
3515.25608	0.93938
3513.19918	0.93800
3511.14227	0.93731
3509.08536	0.93729
3507.02845	0.93710
3504.97154	0.93574
3502.91464	0.93428
3500.85773	0.93387
3498.80082	0.93351
3496.74391	0.93254
3494.68700	0.93145
3492.63009	0.93077
3490.57319	0.93046
3488.51628	0.93006
3486.45937	0.92939
3484.40246	0.92865
3482.34555	0.92807
3480.28865	0.92740
3478.23174	0.92645
3476.17483	0.92603
3474.11792	0.92619
3472.06101	0.92599
3470.00410	0.92530
3467.94720	0.92448
3465.89029	0.92391
3463.83338	0.92359
3461.77647	0.92329
3459.71956	0.92264
3457.66266	0.92173
3455.60575	0.92110
3453.54884	0.92039
3451.49193	0.91945
3449.43502	0.91884
3447.37811	0.91845
3445.32121	0.91821
3443.26430	0.91817
3441.20739	0.91792
3439.15048	0.91761
3437.09357	0.91769
3435.03667	0.91791
3432.97976	0.91752
3430.92285	0.91659
3428.86594	0.91625
3426.80903	0.91667
3424.75212	0.91687
3422.69522	0.91652
3420.63831	0.91578
3418.58140	0.91525
3416.52449	0.91535
3414.46758	0.91552
3412.41068	0.91531
3410.35377	0.91501
3408.29686	0.91517
3406.23995	0.91568
3404.18304	0.91612
3402.12613	0.91650
3400.06923	0.91636
3398.01232	0.91552
3395.95541	0.91495
3393.89850	0.91519
3391.84159	0.91591
3389.78469	0.91627
3387.72778	0.91599
3385.67087	0.91591
3383.61396	0.91609
3381.55705	0.91591
3379.50014	0.91537
3377.44324	0.91452
3375.38633	0.91409
3373.32942	0.91466
3371.27251	0.91530
3369.21560	0.91538
3367.15870	0.91568
3365.10179	0.91630
3363.04488	0.91632
3360.98797	0.91585
3358.93106	0.91580
3356.87415	0.91613
3354.81725	0.91630
3352.76034	0.91632
3350.70343	0.91647
3348.64652	0.91692
3346.58961	0.91757
3344.53271	0.91808
3342.47580	0.91800
3340.41889	0.91758
3338.36198	0.91796
3336.30507	0.91900
3334.24816	0.91960
3332.19126	0.91970
3330.13435	0.91983
3328.07744	0.92041
3326.02053	0.92109
3323.96362	0.92120
3321.90672	0.92101
3319.84981	0.92082
3317.79290	0.92067
3315.73599	0.92102
3313.67908	0.92153
3311.62217	0.92175
3309.56527	0.92226
3307.50836	0.92301
3305.45145	0.92368
3303.39454	0.92447
3301.33763	0.92483
3299.28073	0.92451
3297.22382	0.92428
3295.16691	0.92444
3293.11000	0.92467
3291.05309	0.92484
3288.99618	0.92528
3286.93928	0.92613
3284.88237	0.92664
3282.82546	0.92678
3280.76855	0.92692
3278.71164	0.92672
3276.65474	0.92668
3274.59783	0.92758
3272.54092	0.92844
3270.48401	0.92824
3268.42710	0.92771
3266.37019	0.92773
3264.31329	0.92852
3262.25638	0.92955
3260.19947	0.93014
3258.14256	0.93050
3256.08565	0.93077
3254.02875	0.93081
3251.97184	0.93090
3249.91493	0.93121
3247.85802	0.93139
3245.80111	0.93133
3243.74420	0.93187
3241.68730	0.93299
3239.63039	0.93351
3237.57348	0.93332
3235.51657	0.93330
3233.45966	0.93387
3231.40276	0.93462
3229.34585	0.93477
3227.28894	0.93483
3225.23203	0.93567
3223.17512	0.93648
3221.11821	0.93662
3219.06131	0.93660
3217.00440	0.93687
3214.94749	0.93710
3212.89058	0.93708
3210.83367	0.93759
3208.77677	0.93862
3206.71986	0.93919
3204.66295	0.93933
3202.60604	0.93957
3200.54913	0.93991
3198.49222	0.94024
3196.43532	0.94064
3194.37841	0.94150
3192.32150	0.94216
3190.26459	0.94218
3188.20768	0.94232
3186.15078	0.94303
3184.09387	0.94417
3182.03696	0.94511
3179.98005	0.94552
3177.92314	0.94554
3175.86623	0.94543
3173.80933	0.94544
3171.75242	0.94567
3169.69551	0.94612
3167.63860	0.94671
3165.58169	0.94719
3163.52479	0.94733
3161.46788	0.94752
3159.41097	0.94811
3157.35406	0.94903
3155.29715	0.94972
3153.24024	0.94989
3151.18334	0.95009
3149.12643	0.95057
3147.06952	0.95107
3145.01261	0.95159
3142.95570	0.95214
3140.89880	0.95235
3138.84189	0.95222
3136.78498	0.95235
3134.72807	0.95285
3132.67116	0.95350
3130.61425	0.95416
3128.55735	0.95430
3126.50044	0.95410
3124.44353	0.95443
3122.38662	0.95515
3120.32971	0.95564
3118.27281	0.95575
3116.21590	0.95577
3114.15899	0.95612
3112.10208	0.95683
3110.04517	0.95750
3107.98826	0.95767
3105.93136	0.95748
3103.87445	0.95755
3101.81754	0.95794
3099.76063	0.95824
3097.70372	0.95870
3095.64682	0.95913
3093.58991	0.95915
3091.53300	0.95937
3089.47609	0.95984
3087.41918	0.95993
3085.36227	0.95987
3083.30537	0.96033
3081.24846	0.96101
3079.19155	0.96131
3077.13464	0.96132
3075.07773	0.96145
3073.02083	0.96171
3070.96392	0.96178
3068.90701	0.96163
3066.85010	0.96171
3064.79319	0.96243
3062.73628	0.96325
3060.67938	0.96361
3058.62247	0.96371
3056.56556	0.96386
3054.50865	0.96407
3052.45174	0.96405
3050.39484	0.96406
3048.33793	0.96435
3046.28102	0.96468
3044.22411	0.96463
3042.16720	0.96411
3040.11029	0.96397
3038.05339	0.96436
3035.99648	0.96438
3033.93957	0.96427
3031.88266	0.96457
3029.82575	0.96462
3027.76885	0.96454
3025.71194	0.96490
3023.65503	0.96510
3021.59812	0.96500
3019.54121	0.96517
3017.48430	0.96565
3015.42740	0.96606
3013.37049	0.96596
3011.31358	0.96551
3009.25667	0.96552
3007.19976	0.96603
3005.14286	0.96622
3003.08595	0.96610
3001.02904	0.96613
2998.97213	0.96626
2996.91522	0.96621
2994.85831	0.96573
2992.80141	0.96518
2990.74450	0.96485
2988.68759	0.96453
2986.63068	0.96408
2984.57377	0.96337
2982.51687	0.96245
2980.45996	0.96197
2978.40305	0.96190
2976.34614	0.96163
2974.28923	0.96113
2972.23232	0.96025
2970.17542	0.95875
2968.11851	0.95722
2966.06160	0.95617
2964.00469	0.95539
2961.94778	0.95474
2959.89088	0.95446
2957.83397	0.95438
2955.77706	0.95399
2953.72015	0.95346
2951.66324	0.95324
2949.60633	0.95280
2947.54943	0.95194
2945.49252	0.95117
2943.43561	0.95044
2941.37870	0.94962
2939.32179	0.94903
2937.26489	0.94835
2935.20798	0.94713
2933.15107	0.94609
2931.09416	0.94555
2929.03725	0.94492
2926.98034	0.94423
2924.92344	0.94391
2922.86653	0.94388
2920.80962	0.94390
2918.75271	0.94400
2916.69580	0.94431
2914.63890	0.94493
2912.58199	0.94555
2910.52508	0.94567
2908.46817	0.94550
2906.41126	0.94533
2904.35435	0.94496
2902.29745	0.94468
2900.24054	0.94494
2898.18363	0.94533
2896.12672	0.94559
2894.06981	0.94585
2892.01291	0.94558
2889.95600	0.94458
2887.89909	0.94370
2885.84218	0.94370
2883.78527	0.94425
2881.72836	0.94473
2879.67146	0.94502
2877.61455	0.94527
2875.55764	0.94556
2873.50073	0.94605
2871.44382	0.94670
2869.38692	0.94753
2867.33001	0.94847
2865.27310	0.94927
2863.21619	0.94983
2861.15928	0.95025
2859.10237	0.95052
2857.04547	0.95077
2854.98856	0.95130
2852.93165	0.95225
2850.87474	0.95345
2848.81783	0.95472
2846.76093	0.95600
2844.70402	0.95720
2842.64711	0.95824
2840.59020	0.95894
2838.53329	0.95938
2836.47638	0.95987
2834.41948	0.96058
2832.36257	0.96143
2830.30566	0.96212
2828.24875	0.96247
2826.19184	0.96260
2824.13494	0.96274
2822.07803	0.96289
2820.02112	0.96309
2817.96421	0.96337
2815.90730	0.96346
2813.85039	0.96353
2811.79349	0.96396
2809.73658	0.96428
2807.67967	0.96421
2805.62276	0.96441
2803.56585	0.96506
2801.50895	0.96548
2799.45204	0.96533
2797.39513	0.96491
2795.33822	0.96468
2793.28131	0.96475
2791.22440	0.96491
2789.16750	0.96518
2787.11059	0.96559
2785.05368	0.96585
2782.99677	0.96593
2780.93986	0.96601
2778.88296	0.96614
2776.82605	0.96623
2774.76914	0.96655
2772.71223	0.96728
2770.65532	0.96790
2768.59841	0.96799
2766.54151	0.96783
2764.48460	0.96787
2762.42769	0.96802
2760.37078	0.96806
2758.31387	0.96808
2756.25697	0.96816
2754.20006	0.96805
2752.14315	0.96762
2750.08624	0.96743
2748.02933	0.96785
2745.97242	0.96849
2743.91552	0.96894
2741.85861	0.96914
2739.80170	0.96881
2737.74479	0.96811
2735.68788	0.96782
2733.63098	0.96799
2731.57407	0.96828
2729.51716	0.96878
2727.46025	0.96937
2725.40334	0.96950
2723.34643	0.96909
2721.28953	0.96877
2719.23262	0.96881
2717.17571	0.96905
2715.11880	0.96937
2713.06189	0.96959
2711.00499	0.96955
2708.94808	0.96932
2706.89117	0.96923
2704.83426	0.96921
2702.77735	0.96913
2700.72044	0.96915
2698.66354	0.96929
2696.60663	0.96935
2694.54972	0.96922
2692.49281	0.96909
2690.43590	0.96917
2688.37900	0.96961
2686.32209	0.97018
2684.26518	0.97062
2682.20827	0.97095
2680.15136	0.97094
2678.09445	0.97062
2676.03755	0.97038
2673.98064	0.97033
2671.92373	0.97046
2669.86682	0.97066
2667.80991	0.97079
2665.75301	0.97083
2663.69610	0.97084
2661.63919	0.97104
2659.58228	0.97119
2657.52537	0.97092
2655.46846	0.97065
2653.41156	0.97078
2651.35465	0.97088
2649.29774	0.97071
2647.24083	0.97066
2645.18392	0.97068
2643.12702	0.97062
2641.07011	0.97075
2639.01320	0.97111
2636.95629	0.97128
2634.89938	0.97137
2632.84247	0.97192
2630.78557	0.97212
2628.72866	0.97148
2626.67175	0.97118
2624.61484	0.97168
2622.55793	0.97211
2620.50103	0.97229
2618.44412	0.97248
2616.38721	0.97253
2614.33030	0.97247
2612.27339	0.97239
2610.21648	0.97235
2608.15958	0.97241
2606.10267	0.97253
2604.04576	0.97278
2601.98885	0.97309
2599.93194	0.97327
2597.87504	0.97326
2595.81813	0.97343
2593.76122	0.97409
2591.70431	0.97460
2589.64740	0.97432
2587.59049	0.97381
2585.53359	0.97385
2583.47668	0.97408
2581.41977	0.97415
2579.36286	0.97387
2577.30595	0.97320
2575.24905	0.97307
2573.19214	0.97380
2571.13523	0.97453
2569.07832	0.97482
2567.02141	0.97478
2564.96450	0.97448
2562.90760	0.97408
2560.85069	0.97412
2558.79378	0.97441
2556.73687	0.97417
2554.67996	0.97364
2552.62306	0.97370
2550.56615	0.97441
2548.50924	0.97480
2546.45233	0.97469
2544.39542	0.97456
2542.33851	0.97462
2540.28161	0.97482
2538.22470	0.97486
2536.16779	0.97486
2534.11088	0.97497
2532.05397	0.97481
2529.99707	0.97481
2527.94016	0.97515
2525.88325	0.97484
2523.82634	0.97403
2521.76943	0.97376
2519.71252	0.97412
2517.65562	0.97470
2515.59871	0.97557
2513.54180	0.97656
2511.48489	0.97675
2509.42798	0.97630
2507.37108	0.97599
2505.31417	0.97567
2503.25726	0.97531
2501.20035	0.97519
2499.14344	0.97539
2497.08653	0.97569
2495.02963	0.97595
2492.97272	0.97597
2490.91581	0.97572
2488.85890	0.97579
2486.80199	0.97579
2484.74509	0.97521
2482.68818	0.97486
2480.63127	0.97511
2478.57436	0.97549
2476.51745	0.97575
2474.46054	0.97621
2472.40364	0.97673
2470.34673	0.97684
2468.28982	0.97676
2466.23291	0.97681
2464.17600	0.97663
2462.11910	0.97585
2460.06219	0.97473
2458.00528	0.97401
2455.94837	0.97418
2453.89146	0.97476
2451.83455	0.97526
2449.77765	0.97547
2447.72074	0.97543
2445.66383	0.97557
2443.60692	0.97577
2441.55001	0.97588
2439.49311	0.97614
2437.43620	0.97632
2435.37929	0.97625
2433.32238	0.97620
2431.26547	0.97632
2429.20856	0.97660
2427.15166	0.97700
2425.09475	0.97728
2423.03784	0.97685
2420.98093	0.97616
2418.92402	0.97577
2416.86712	0.97550
2414.81021	0.97577
2412.75330	0.97662
2410.69639	0.97737
2408.63948	0.97760
2406.58257	0.97733
2404.52567	0.97677
2402.46876	0.97644
2400.41185	0.97670
2398.35494	0.97705
2396.29803	0.97700
2394.24113	0.97671
2392.18422	0.97682
2390.12731	0.97754
2388.07040	0.97821
2386.01349	0.97827
2383.95658	0.97800
2381.89968	0.97790
2379.84277	0.97773
2377.78586	0.97735
2375.72895	0.97749
2373.67204	0.97821
2371.61514	0.97864
2369.55823	0.97884
2367.50132	0.97931
2365.44441	0.98003
2363.38750	0.98087
2361.33059	0.98078
2359.27369	0.97889
2357.21678	0.97708
2355.15987	0.97721
2353.10296	0.97797
2351.04605	0.97808
2348.98915	0.97760
2346.93224	0.97711
2344.87533	0.97734
2342.81842	0.97768
2340.76151	0.97804
2338.70460	0.97872
2336.64770	0.97813
2334.59079	0.97689
2332.53388	0.97715
2330.47697	0.97821
2328.42006	0.97815
2326.36316	0.97686
2324.30625	0.97562
2322.24934	0.97549
2320.19243	0.97603
2318.13552	0.97658
2316.07861	0.97711
2314.02171	0.97746
2311.96480	0.97765
2309.90789	0.97785
2307.85098	0.97771
2305.79407	0.97701
2303.73717	0.97615
2301.68026	0.97556
2299.62335	0.97565
2297.56644	0.97622
2295.50953	0.97650
2293.45262	0.97643
2291.39572	0.97634
2289.33881	0.97629
2287.28190	0.97622
2285.22499	0.97614
2283.16808	0.97632
2281.11117	0.97649
2279.05427	0.97638
2276.99736	0.97661
2274.94045	0.97703
2272.88354	0.97715
2270.82663	0.97701
2268.76973	0.97686
2266.71282	0.97696
2264.65591	0.97698
2262.59900	0.97727
2260.54209	0.97790
2258.48518	0.97768
2256.42828	0.97719
2254.37137	0.97754
2252.31446	0.97765
2250.25755	0.97739
2248.20064	0.97828
2246.14374	0.97986
2244.08683	0.98086
2242.02992	0.98120
2239.97301	0.98095
2237.91610	0.98010
2235.85919	0.97875
2233.80229	0.97758
2231.74538	0.97811
2229.68847	0.97967
2227.63156	0.98006
2225.57465	0.97905
2223.51775	0.97780
2221.46084	0.97824
2219.40393	0.97997
2217.34702	0.98082
2215.29011	0.98036
2213.23320	0.97892
2211.17630	0.97830
2209.11939	0.97868
2207.06248	0.97819
2205.00557	0.97709
2202.94866	0.97628
2200.89176	0.97586
2198.83485	0.97638
2196.77794	0.97736
2194.72103	0.97716
2192.66412	0.97631
2190.60721	0.97682
2188.55031	0.97838
2186.49340	0.97986
2184.43649	0.98089
2182.37958	0.98069
2180.32267	0.97934
2178.26577	0.97751
2176.20886	0.97590
2174.15195	0.97583
2172.09504	0.97652
2170.03813	0.97682
2167.98122	0.97654
2165.92432	0.97550
2163.86741	0.97411
2161.81050	0.97434
2159.75359	0.97790
2157.69668	0.98111
2155.63978	0.98226
2153.58287	0.98303
2151.52596	0.98242
2149.46905	0.98126
2147.41214	0.98101
2145.35523	0.98126
2143.29833	0.98165
2141.24142	0.98149
2139.18451	0.98003
2137.12760	0.97897
2135.07069	0.98035
2133.01379	0.98255
2130.95688	0.98275
2128.89997	0.98088
2126.84306	0.97911
2124.78615	0.97904
2122.72924	0.97971
2120.67234	0.97984
2118.61543	0.97991
2116.55852	0.97992
2114.50161	0.97904
2112.44470	0.97787
2110.38780	0.97739
2108.33089	0.97757
2106.27398	0.97824
2104.21707	0.97904
2102.16016	0.97879
2100.10325	0.97753
2098.04635	0.97685
2095.98944	0.97725
2093.93253	0.97810
2091.87562	0.97906
2089.81871	0.97924
2087.76181	0.97821
2085.70490	0.97750
2083.64799	0.97767
2081.59108	0.97767
2079.53417	0.97808
2077.47726	0.97919
2075.42036	0.97980
2073.36345	0.98076
2071.30654	0.98169
2069.24963	0.98048
2067.19272	0.97922
2065.13582	0.97953
2063.07891	0.97997
2061.02200	0.98052
2058.96509	0.98051
2056.90818	0.97976
2054.85127	0.97941
2052.79437	0.97812
2050.73746	0.97632
2048.68055	0.97712
2046.62364	0.97964
2044.56673	0.98086
2042.50983	0.98147
2040.45292	0.98229
2038.39601	0.98096
2036.33910	0.97885
2034.28219	0.97958
2032.22528	0.98065
2030.16838	0.98001
2028.11147	0.98111
2026.05456	0.98411
2023.99765	0.98480
2021.94074	0.98410
2019.88384	0.98495
2017.82693	0.98471
2015.77002	0.98163
2013.71311	0.97872
2011.65620	0.97842
2009.59929	0.98021
2007.54239	0.98265
2005.48548	0.98420
2003.42857	0.98350
2001.37166	0.98149
1999.31475	0.98018
1997.25785	0.98066
1995.20094	0.98147
1993.14403	0.98061
1991.08712	0.97986
1989.03021	0.98077
1986.97330	0.98197
1984.91640	0.98232
1982.85949	0.98102
1980.80258	0.97894
1978.74567	0.97930
1976.68876	0.98278
1974.63186	0.98501
1972.57495	0.98415
1970.51804	0.98294
1968.46113	0.98215
1966.40422	0.98133
1964.34731	0.98116
1962.29041	0.98149
1960.23350	0.98198
1958.17659	0.98164
1956.11968	0.98000
1954.06277	0.97882
1952.00587	0.97887
1949.94896	0.97948
1947.89205	0.98077
1945.83514	0.98238
1943.77823	0.98301
1941.72132	0.98284
1939.66442	0.98302
1937.60751	0.98274
1935.55060	0.98173
1933.49369	0.98129
1931.43678	0.98146
1929.37988	0.98190
1927.32297	0.98231
1925.26606	0.98257
1923.20915	0.98317
1921.15224	0.98324
1919.09533	0.98218
1917.03843	0.98160
1914.98152	0.98179
1912.92461	0.98132
1910.86770	0.98056
1908.81079	0.98071
1906.75389	0.98159
1904.69698	0.98193
1902.64007	0.98143
1900.58316	0.98090
1898.52625	0.98066
1896.46934	0.98073
1894.41244	0.98107
1892.35553	0.98141
1890.29862	0.98175
1888.24171	0.98215
1886.18480	0.98252
1884.12790	0.98266
1882.07099	0.98241
1880.01408	0.98172
1877.95717	0.98091
1875.90026	0.98042
1873.84335	0.98025
1871.78645	0.98058
1869.72954	0.98163
1867.67263	0.98281
1865.61572	0.98308
1863.55881	0.98236
1861.50191	0.98167
1859.44500	0.98174
1857.38809	0.98220
1855.33118	0.98228
1853.27427	0.98210
1851.21736	0.98194
1849.16046	0.98170
1847.10355	0.98172
1845.04664	0.98220
1842.98973	0.98229
1840.93282	0.98184
1838.87592	0.98166
1836.81901	0.98204
1834.76210	0.98254
1832.70519	0.98263
1830.64828	0.98242
1828.59137	0.98212
1826.53447	0.98183
1824.47756	0.98146
1822.42065	0.98126
1820.36374	0.98144
1818.30683	0.98186
1816.24993	0.98210
1814.19302	0.98171
1812.13611	0.98087
1810.07920	0.98029
1808.02229	0.98051
1805.96538	0.98074
1803.90848	0.98051
1801.85157	0.98022
1799.79466	0.97994
1797.73775	0.97956
1795.68084	0.97948
1793.62394	0.98006
1791.56703	0.98057
1789.51012	0.98011
1787.45321	0.97920
1785.39630	0.97842
1783.33939	0.97792
1781.28249	0.97747
1779.22558	0.97665
1777.16867	0.97587
1775.11176	0.97529
1773.05485	0.97357
1770.99795	0.97034
1768.94104	0.96730
1766.88413	0.96406
1764.82722	0.95977
1762.77031	0.95341
1760.71340	0.94503
1758.65650	0.93674
1756.59959	0.92782
1754.54268	0.91946
1752.48577	0.91193
1750.42886	0.90287
1748.37196	0.89373
1746.31505	0.88652
1744.25814	0.88022
1742.20123	0.87441
1740.14432	0.86881
1738.08741	0.86436
1736.03051	0.86141
1733.97360	0.85703
1731.91669	0.85275
1729.85978	0.85108
1727.80287	0.85057
1725.74597	0.85106
1723.68906	0.85239
1721.63215	0.85444
1719.57524	0.85822
1717.51833	0.86488
1715.46142	0.87249
1713.40452	0.87958
1711.34761	0.88694
1709.29070	0.89442
1707.23379	0.90210
1705.17688	0.91023
1703.11998	0.91726
1701.06307	0.92390
1699.00616	0.93060
1696.94925	0.93527
1694.89234	0.93923
1692.83543	0.94230
1690.77853	0.94463
1688.72162	0.94660
1686.66471	0.94810
1684.60780	0.94959
1682.55089	0.95073
1680.49399	0.95119
1678.43708	0.95136
1676.38017	0.95130
1674.32326	0.95134
1672.26635	0.95186
1670.20944	0.95185
1668.15254	0.95084
1666.09563	0.95021
1664.03872	0.95009
1661.98181	0.94991
1659.92490	0.94945
1657.86800	0.94901
1655.81109	0.94905
1653.75418	0.94926
1651.69727	0.94886
1649.64036	0.94882
1647.58345	0.94890
1645.52655	0.94851
1643.46964	0.94805
1641.41273	0.94767
1639.35582	0.94766
1637.29891	0.94834
1635.24201	0.94899
1633.18510	0.94893
1631.12819	0.94886
1629.07128	0.94884
1627.01437	0.94884
1624.95746	0.94891
1622.90056	0.94877
1620.84365	0.94842
1618.78674	0.94809
1616.72983	0.94750
1614.67292	0.94698
1612.61602	0.94677
1610.55911	0.94647
1608.50220	0.94610
1606.44529	0.94594
1604.38838	0.94615
1602.33147	0.94631
1600.27457	0.94602
1598.21766	0.94569
1596.16075	0.94580
1594.10384	0.94629
1592.04693	0.94669
1589.99003	0.94685
1587.93312	0.94684
1585.87621	0.94677
1583.81930	0.94712
1581.76239	0.94767
1579.70548	0.94773
1577.64858	0.94731
1575.59167	0.94675
1573.53476	0.94648
1571.47785	0.94619
1569.42094	0.94533
1567.36404	0.94457
1565.30713	0.94432
1563.25022	0.94447
1561.19331	0.94540
1559.13640	0.94765
1557.07949	0.95024
1555.02259	0.95181
1552.96568	0.95297
1550.90877	0.95434
1548.85186	0.95639
1546.79495	0.95823
1544.73805	0.95930
1542.68114	0.96013
1540.62423	0.96095
1538.56732	0.96162
1536.51041	0.96215
1534.45350	0.96255
1532.39660	0.96308
1530.33969	0.96381
1528.28278	0.96437
1526.22587	0.96471
1524.16896	0.96506
1522.11206	0.96530
1520.05515	0.96519
1517.99824	0.96518
1515.94133	0.96569
1513.88442	0.96632
1511.82751	0.96664
1509.77061	0.96669
1507.71370	0.96639
1505.65679	0.96641
1503.59988	0.96693
1501.54297	0.96728
1499.48607	0.96724
1497.42916	0.96677
1495.37225	0.96626
1493.31534	0.96617
1491.25843	0.96617
1489.20152	0.96585
1487.14462	0.96524
1485.08771	0.96441
1483.03080	0.96358
1480.97389	0.96272
1478.91698	0.96160
1476.86008	0.96014
1474.80317	0.95807
1472.74626	0.95512
1470.68935	0.95261
1468.63244	0.95110
1466.57553	0.94963
1464.51863	0.94780
1462.46172	0.94621
1460.40481	0.94521
1458.34790	0.94413
1456.29099	0.94211
1454.23409	0.94032
1452.17718	0.93905
1450.12027	0.93773
1448.06336	0.93600
1446.00645	0.93390
1443.94954	0.93179
1441.89264	0.92972
1439.83573	0.92813
1437.77882	0.92680
1435.72191	0.92492
1433.66500	0.92338
1431.60810	0.92253
1429.55119	0.92197
1427.49428	0.92179
1425.43737	0.92200
1423.38046	0.92231
1421.32355	0.92229
1419.26665	0.92173
1417.20974	0.92125
1415.15283	0.92135
1413.09592	0.92151
1411.03901	0.92164
1408.98211	0.92204
1406.92520	0.92275
1404.86829	0.92355
1402.81138	0.92423
1400.75447	0.92447
1398.69756	0.92411
1396.64066	0.92320
1394.58375	0.92162
1392.52684	0.91947
1390.46993	0.91687
1388.41302	0.91298
1386.35612	0.90752
1384.29921	0.90177
1382.24230	0.89593
1380.18539	0.88994
1378.12848	0.88449
1376.07157	0.87976
1374.01467	0.87558
1371.95776	0.87303
1369.90085	0.87273
1367.84394	0.87413
1365.78703	0.87725
1363.73013	0.88240
1361.67322	0.88918
1359.61631	0.89588
1357.55940	0.90192
1355.50249	0.90737
1353.44558	0.91189
1351.38868	0.91540
1349.33177	0.91814
1347.27486	0.92016
1345.21795	0.92159
1343.16104	0.92270
1341.10414	0.92364
1339.04723	0.92444
1336.99032	0.92513
1334.93341	0.92557
1332.87650	0.92595
1330.81959	0.92630
1328.76269	0.92618
1326.70578	0.92582
1324.64887	0.92559
1322.59196	0.92531
1320.53505	0.92495
1318.47815	0.92465
1316.42124	0.92444
1314.36433	0.92445
1312.30742	0.92479
1310.25051	0.92523
1308.19360	0.92549
1306.13670	0.92574
1304.07979	0.92633
1302.02288	0.92718
1299.96597	0.92781
1297.90906	0.92781
1295.85216	0.92749
1293.79525	0.92713
1291.73834	0.92631
1289.68143	0.92481
1287.62452	0.92278
1285.56761	0.92032
1283.51071	0.91761
1281.45380	0.91444
1279.39689	0.91057
1277.33998	0.90615
1275.28307	0.90120
1273.22617	0.89569
1271.16926	0.88956
1269.11235	0.88272
1267.05544	0.87512
1264.99853	0.86704
1262.94162	0.85896
1260.88472	0.85103
1258.82781	0.84363
1256.77090	0.83723
1254.71399	0.83168
1252.65708	0.82658
1250.60018	0.82149
1248.54327	0.81633
1246.48636	0.81124
1244.42945	0.80619
1242.37254	0.80145
1240.31563	0.79738
1238.25873	0.79391
1236.20182	0.79086
1234.14491	0.78826
1232.08800	0.78649
1230.03109	0.78642
1227.97419	0.78853
1225.91728	0.79289
1223.86037	0.79937
1221.80346	0.80761
1219.74655	0.81735
1217.68964	0.82849
1215.63274	0.84053
1213.57583	0.85216
1211.51892	0.86249
1209.46201	0.87178
1207.40510	0.87991
1205.34820	0.88656
1203.29129	0.89233
1201.23438	0.89782
1199.17747	0.90325
1197.12056	0.90865
1195.06365	0.91365
1193.00675	0.91809
1190.94984	0.92187
1188.89293	0.92464
1186.83602	0.92616
1184.77911	0.92623
1182.72221	0.92498
1180.66530	0.92295
1178.60839	0.92042
1176.55148	0.91707
1174.49457	0.91259
1172.43766	0.90753
1170.38076	0.90212
1168.32385	0.89636
1166.26694	0.89077
1164.21003	0.88550
1162.15312	0.88043
1160.09622	0.87608
1158.03931	0.87348
1155.98240	0.87288
1153.92549	0.87407
1151.86858	0.87688
1149.81167	0.88032
1147.75477	0.88335
1145.69786	0.88592
1143.64095	0.88792
1141.58404	0.88868
1139.52713	0.88781
1137.47023	0.88556
1135.41332	0.88248
1133.35641	0.87919
1131.29950	0.87560
1129.24259	0.87127
1127.18568	0.86674
1125.12878	0.86264
1123.07187	0.85887
1121.01496	0.85519
1118.95805	0.85150
1116.90114	0.84813
1114.84424	0.84545
1112.78733	0.84313
1110.73042	0.84060
1108.67351	0.83805
1106.61660	0.83574
1104.55969	0.83312
1102.50279	0.83005
1100.44588	0.82694
1098.38897	0.82368
1096.33206	0.82009
1094.27515	0.81665
1092.21825	0.81319
1090.16134	0.80909
1088.10443	0.80434
1086.04752	0.79873
1083.99061	0.79226
1081.93370	0.78573
1079.87680	0.77947
1077.81989	0.77301
1075.76298	0.76623
1073.70607	0.75961
1071.64916	0.75349
1069.59226	0.74802
1067.53535	0.74305
1065.47844	0.73844
1063.42153	0.73433
1061.36462	0.73045
1059.30771	0.72627
1057.25081	0.72210
1055.19390	0.71863
1053.13699	0.71565
1051.08008	0.71246
1049.02317	0.70865
1046.96627	0.70468
1044.90936	0.70123
1042.85245	0.69808
1040.79554	0.69459
1038.73863	0.69097
1036.68172	0.68746
1034.62482	0.68364
1032.56791	0.67947
1030.51100	0.67586
1028.45409	0.67359
1026.39718	0.67244
1024.34028	0.67187
1022.28337	0.67188
1020.22646	0.67305
1018.16955	0.67548
1016.11264	0.67894
1014.05573	0.68335
1011.99883	0.68816
1009.94192	0.69290
1007.88501	0.69792
1005.82810	0.70313
1003.77119	0.70780
1001.71429	0.71195
999.65738	0.71603
997.60047	0.72044
995.54356	0.72547
993.48665	0.73089
991.42974	0.73645
989.37284	0.74258
987.31593	0.74952
985.25902	0.75675
983.20211	0.76407
981.14520	0.77155
979.08830	0.77876
977.03139	0.78575
974.97448	0.79302
972.91757	0.80049
970.86066	0.80768
968.80375	0.81389
966.74685	0.81937
964.68994	0.82509
962.63303	0.83094
960.57612	0.83638
958.51921	0.84116
956.46231	0.84518
954.40540	0.84880
952.34849	0.85237
950.29158	0.85557
948.23467	0.85828
946.17776	0.86100
944.12086	0.86377
942.06395	0.86604
940.00704	0.86798
937.95013	0.87004
935.89322	0.87170
933.83632	0.87269
931.77941	0.87365
929.72250	0.87462
927.66559	0.87546
925.60868	0.87660
923.55177	0.87786
921.49487	0.87857
919.43796	0.87814
917.38105	0.87674
915.32414	0.87557
913.26723	0.87459
911.21033	0.87290
909.15342	0.87073
907.09651	0.86818
905.03960	0.86578
902.98269	0.86460
900.92578	0.86452
898.86888	0.86497
896.81197	0.86593
894.75506	0.86753
892.69815	0.86953
890.64124	0.87160
888.58434	0.87389
886.52743	0.87675
884.47052	0.87987
882.41361	0.88289
880.35670	0.88617
878.29979	0.88986
876.24289	0.89335
874.18598	0.89625
872.12907	0.89888
870.07216	0.90136
868.01525	0.90336
865.95835	0.90499
863.90144	0.90674
861.84453	0.90861
859.78762	0.91006
857.73071	0.91110
855.67380	0.91199
853.61690	0.91291
851.55999	0.91343
849.50308	0.91316
847.44617	0.91281
845.38926	0.91255
843.33236	0.91202
841.27545	0.91189
839.21854	0.91255
837.16163	0.91330
835.10472	0.91371
833.04781	0.91391
830.99091	0.91373
828.93400	0.91277
826.87709	0.91095
824.82018	0.90864
822.76327	0.90648
820.70637	0.90476
818.64946	0.90341
816.59255	0.90215
814.53564	0.90118
812.47873	0.90039
810.42182	0.89919
808.36492	0.89796
806.30801	0.89729
804.25110	0.89669
802.19419	0.89557
800.13728	0.89440
798.08038	0.89410
796.02347	0.89504
793.96656	0.89707
791.90965	0.89976
789.85274	0.90236
787.79583	0.90449
785.73893	0.90628
783.68202	0.90756
781.62511	0.90876
779.56820	0.90995
777.51129	0.91043
775.45439	0.91061
773.39748	0.91076
771.34057	0.91052
769.28366	0.90991
767.22675	0.90928
765.16984	0.90922
763.11294	0.90964
761.05603	0.90992
758.99912	0.90992
756.94221	0.90968
754.88530	0.90931
752.82839	0.90883
750.77149	0.90864
748.71458	0.90877
746.65767	0.90839
744.60076	0.90760
742.54385	0.90707
740.48695	0.90662
738.43004	0.90570
736.37313	0.90481
734.31622	0.90469
732.25931	0.90462
730.20240	0.90339
728.14550	0.90174
726.08859	0.90076
724.03168	0.89975
721.97477	0.89802
719.91786	0.89613
717.86096	0.89500
715.80405	0.89454
713.74714	0.89411
711.69023	0.89362
709.63332	0.89279
707.57641	0.89128
705.51951	0.88977
703.46260	0.88873
701.40569	0.88768
699.34878	0.88640
697.29187	0.88535
695.23497	0.88490
693.17806	0.88431
691.12115	0.88273
689.06424	0.88096
687.00733	0.87947
684.95042	0.87752
682.89352	0.87603
680.83661	0.87576
678.77970	0.87484
676.72279	0.87260
674.66588	0.87090
672.60898	0.87040
670.55207	0.86987
668.49516	0.86770
666.43825	0.86475
664.38134	0.86364
662.32443	0.86284
660.26753	0.86098
658.21062	0.85943
656.15371	0.85894
654.09680	0.85858
652.03989	0.85768
649.98299	0.85615
647.92608	0.85452
645.86917	0.85343
643.81226	0.85262
641.75535	0.85132
639.69844	0.84977
637.64154	0.84883
635.58463	0.84780
633.52772	0.84557
631.47081	0.84313
629.41390	0.84216
627.35700	0.84150
625.30009	0.83956
623.24318	0.83722
621.18627	0.83493
619.12936	0.83259
617.07245	0.83049
615.01555	0.82772
612.95864	0.82428
610.90173	0.82156
608.84482	0.81899
606.78791	0.81557
604.73101	0.81280
602.67410	0.81162
600.61719	0.81106
598.56028	0.81185
596.50337	0.81439
594.44646	0.81698
592.38956	0.81919
590.33265	0.82044
588.27574	0.82022
586.21883	0.82041
584.16192	0.82166
582.10502	0.82246
580.04811	0.82249
577.99120	0.82234
575.93429	0.82125
573.87738	0.81964
571.82047	0.81895
569.76357	0.81792
567.70666	0.81563
565.64975	0.81369
563.59284	0.81354
561.53593	0.81410
559.47903	0.81389
557.42212	0.81394
555.36521	0.81525
553.30830	0.81734
551.25139	0.81869
549.19448	0.81857
547.13758	0.81822
545.08067	0.81827
543.02376	0.81843
540.96685	0.81908
538.90994	0.82001
536.85304	0.81969
534.79613	0.81788
532.73922	0.81642
530.68231	0.81616
528.62540	0.81638
526.56849	0.81600
524.51159	0.81460
522.45468	0.81354
520.39777	0.81346
518.34086	0.81355
516.28395	0.81311
514.22705	0.81201
512.17014	0.81155
510.11323	0.81155
508.05632	0.81007
505.99941	0.80889
503.94250	0.80961
501.88560	0.80897
499.82869	0.80613
497.77178	0.80428
495.71487	0.80361
493.65796	0.80334
491.60106	0.80425
489.54415	0.80482
487.48724	0.80350
485.43033	0.80256
483.37342	0.80415
481.31651	0.80642
479.25961	0.80724
477.20270	0.80661
475.14579	0.80493
473.08888	0.80357
471.03197	0.80315
468.97507	0.80219
466.91816	0.80124
464.86125	0.80102
462.80434	0.80089
460.74743	0.80074
458.69052	0.80026
456.63362	0.80114
454.57671	0.80368
452.51980	0.80450
450.46289	0.80361
448.40598	0.80450
446.34908	0.80637
444.29217	0.80510
442.23526	0.80096
440.17835	0.79809
438.12144	0.79859
436.06453	0.80082
434.00763	0.80316
431.95072	0.80412
429.89381	0.80264
427.83690	0.79947
425.77999	0.79599
423.72309	0.79613
421.66618	0.80004
419.60927	0.80289
417.55236	0.80280
415.49545	0.80214
413.43854	0.80167
411.38164	0.80240
409.32473	0.80459
407.26782	0.80370
405.21091	0.79985
403.15400	0.80021
401.09710	0.80401
399.04019	0.80253
