3996.57260	1.00480
3994.51569	1.00554
3992.45878	1.00583
3990.40188	1.00535
3988.34497	1.00493
3986.28806	1.00507
3984.23115	1.00526
3982.17424	1.00508
3980.11733	1.00537
3978.06043	1.00605
3976.00352	1.00580
3973.94661	1.00467
3971.88970	1.00401
3969.83279	1.00418
3967.77589	1.00447
3965.71898	1.00479
3963.66207	1.00517
3961.60516	1.00515
3959.54825	1.00503
3957.49134	1.00538
3955.43444	1.00548
3953.37753	1.00495
3951.32062	1.00476
3949.26371	1.00515
3947.20680	1.00491
3945.14990	1.00348
3943.09299	1.00223
3941.03608	1.00275
3938.97917	1.00417
3936.92226	1.00474
3934.86535	1.00437
3932.80845	1.00376
3930.75154	1.00341
3928.69463	1.00386
3926.63772	1.00465
3924.58081	1.00477
3922.52391	1.00420
3920.46700	1.00291
3918.41009	1.00165
3916.35318	1.00228
3914.29627	1.00362
3912.23936	1.00399
3910.18246	1.00407
3908.12555	1.00385
3906.06864	1.00262
3904.01173	1.00101
3901.95482	1.00081
3899.89792	1.00184
3897.84101	1.00320
3895.78410	1.00401
3893.72719	1.00328
3891.67028	1.00227
3889.61337	1.00288
3887.55647	1.00353
3885.49956	1.00332
3883.44265	1.00302
3881.38574	1.00271
3879.32883	1.00268
3877.27193	1.00253
3875.21502	1.00172
3873.15811	1.00140
3871.10120	1.00180
3869.04429	1.00189
3866.98738	1.00148
3864.93048	1.00126
3862.87357	1.00247
3860.81666	1.00362
3858.75975	1.00271
3856.70284	1.00042
3854.64594	0.99850
3852.58903	1.00013
3850.53212	1.00302
3848.47521	1.00376
3846.41830	1.00355
3844.36139	1.00326
3842.30449	1.00247
3840.24758	1.00051
3838.19067	0.99894
3836.13376	1.00015
3834.07685	1.00208
3832.01995	1.00289
3829.96304	1.00310
3827.90613	1.00293
3825.84922	1.00211
3823.79231	1.00105
3821.73540	1.00010
3819.67850	1.00068
3817.62159	1.00229
3815.56468	1.00313
3813.50777	1.00383
3811.45086	1.00423
3809.39396	1.00406
3807.33705	1.00396
3805.28014	1.00415
3803.22323	1.00397
3801.16632	1.00306
3799.10941	1.00255
3797.05251	1.00309
3794.99560	1.00404
3792.93869	1.00449
3790.88178	1.00432
3788.82487	1.00381
3786.76796	1.00361
3784.71106	1.00393
3782.65415	1.00360
3780.59724	1.00276
3778.54033	1.00315
3776.48342	1.00380
3774.42652	1.00322
3772.36961	1.00274
3770.31270	1.00303
3768.25579	1.00353
3766.19888	1.00400
3764.14197	1.00451
3762.08507	1.00461
3760.02816	1.00345
3757.97125	1.00169
3755.91434	1.00038
3753.85743	0.99912
3751.80053	0.99812
3749.74362	0.99896
3747.68671	1.00033
3745.62980	0.99998
3743.57289	0.99914
3741.51598	0.99943
3739.45908	0.99971
3737.40217	0.99928
3735.34526	0.99839
3733.28835	0.99838
3731.23144	0.99969
3729.17454	1.00153
3727.11763	1.00289
3725.06072	1.00276
3723.00381	1.00216
3720.94690	1.00248
3718.88999	1.00295
3716.83309	1.00303
3714.77618	1.00279
3712.71927	1.00189
3710.66236	1.00114
3708.60545	1.00152
3706.54855	1.00206
3704.49164	1.00228
3702.43473	1.00269
3700.37782	1.00363
3698.32091	1.00436
3696.26400	1.00423
3694.20710	1.00317
3692.15019	1.00173
3690.09328	1.00060
3688.03637	1.00045
3685.97946	1.00165
3683.92256	1.00262
3681.86565	1.00191
3679.80874	1.00006
3677.75183	0.99767
3675.69492	0.99458
3673.63801	0.99397
3671.58111	0.99493
3669.52420	0.99534
3667.46729	0.99662
3665.41038	0.99776
3663.35347	0.99814
3661.29657	0.99788
3659.23966	0.99656
3657.18275	0.99505
3655.12584	0.99420
3653.06893	0.99300
3651.01202	0.99035
3648.95512	0.98729
3646.89821	0.98770
3644.84130	0.98977
3642.78439	0.99062
3640.72748	0.99001
3638.67058	0.98864
3636.61367	0.98725
3634.55676	0.98657
3632.49985	0.98555
3630.44294	0.98278
3628.38603	0.98085
3626.32913	0.98213
3624.27222	0.98294
3622.21531	0.98180
3620.15840	0.97918
3618.10149	0.97681
3616.04459	0.97583
3613.98768	0.97557
3611.93077	0.97513
3609.87386	0.97388
3607.81695	0.97270
3605.76004	0.97207
3603.70314	0.97138
3601.64623	0.97069
3599.58932	0.97029
3597.53241	0.96961
3595.47550	0.96792
3593.41860	0.96650
3591.36169	0.96652
3589.30478	0.96644
3587.24787	0.96498
3585.19096	0.96374
3583.13405	0.96334
3581.07715	0.96238
3579.02024	0.96124
3576.96333	0.96088
3574.90642	0.96039
3572.84951	0.95949
3570.79261	0.95852
3568.73570	0.95631
3566.67879	0.95331
3564.62188	0.95194
3562.56497	0.95157
3560.50806	0.95158
3558.45116	0.95146
3556.39425	0.95040
3554.33734	0.94914
3552.28043	0.94820
3550.22352	0.94681
3548.16662	0.94488
3546.10971	0.94293
3544.05280	0.94178
3541.99589	0.94148
3539.93898	0.94065
3537.88207	0.93893
3535.82517	0.93736
3533.76826	0.93637
3531.71135	0.93570
3529.65444	0.93519
3527.59753	0.93416
3525.54063	0.93241
3523.48372	0.93099
3521.42681	0.93016
3519.36990	0.92896
3517.31299	0.92747
3515.25608	0.92678
3513.19918	0.92679
3511.14227	0.92663
3509.08536	0.92576
3507.02845	0.92436
3504.97154	0.92267
3502.91464	0.92104
3500.85773	0.92072
3498.80082	0.92096
3496.74391	0.91996
3494.68700	0.91844
3492.63009	0.91776
3490.57319	0.91728
3488.51628	0.91645
3486.45937	0.91552
3484.40246	0.91433
3482.34555	0.91333
3480.28865	0.91300
3478.23174	0.91269
3476.17483	0.91202
3474.11792	0.91139
3472.06101	0.91076
3470.00410	0.90978
3467.94720	0.90883
3465.89029	0.90838
3463.83338	0.90814
3461.77647	0.90772
3459.71956	0.90740
3457.66266	0.90740
3455.60575	0.90741
3453.54884	0.90719
3451.49193	0.90659
3449.43502	0.90568
3447.37811	0.90510
3445.32121	0.90523
3443.26430	0.90546
3441.20739	0.90544
3439.15048	0.90514
3437.09357	0.90480
3435.03667	0.90499
3432.97976	0.90540
3430.92285	0.90550
3428.86594	0.90522
3426.80903	0.90468
3424.75212	0.90410
3422.69522	0.90376
3420.63831	0.90397
3418.58140	0.90432
3416.52449	0.90423
3414.46758	0.90407
3412.41068	0.90439
3410.35377	0.90475
3408.29686	0.90498
3406.23995	0.90548
3404.18304	0.90607
3402.12613	0.90649
3400.06923	0.90687
3398.01232	0.90729
3395.95541	0.90756
3393.89850	0.90727
3391.84159	0.90683
3389.78469	0.90737
3387.72778	0.90813
3385.67087	0.90807
3383.61396	0.90794
3381.55705	0.90861
3379.50014	0.90984
3377.44324	0.91070
3375.38633	0.91091
3373.32942	0.91080
3371.27251	0.91053
3369.21560	0.91061
3367.15870	0.91172
3365.10179	0.91292
3363.04488	0.91325
3360.98797	0.91340
3358.93106	0.91398
3356.87415	0.91461
3354.81725	0.91479
3352.76034	0.91462
3350.70343	0.91456
3348.64652	0.91540
3346.58961	0.91708
3344.53271	0.91838
3342.47580	0.91881
3340.41889	0.91902
3338.36198	0.91934
3336.30507	0.91948
3334.24816	0.91972
3332.19126	0.92045
3330.13435	0.92117
3328.07744	0.92166
3326.02053	0.92228
3323.96362	0.92276
3321.90672	0.92298
3319.84981	0.92340
3317.79290	0.92405
3315.73599	0.92477
3313.67908	0.92557
3311.62217	0.92617
3309.56527	0.92705
3307.50836	0.92838
3305.45145	0.92898
3303.39454	0.92891
3301.33763	0.92933
3299.28073	0.93036
3297.22382	0.93099
3295.16691	0.93092
3293.11000	0.93106
3291.05309	0.93169
3288.99618	0.93235
3286.93928	0.93315
3284.88237	0.93422
3282.82546	0.93492
3280.76855	0.93488
3278.71164	0.93483
3276.65474	0.93502
3274.59783	0.93493
3272.54092	0.93481
3270.48401	0.93522
3268.42710	0.93626
3266.37019	0.93758
3264.31329	0.93825
3262.25638	0.93864
3260.19947	0.93960
3258.14256	0.94064
3256.08565	0.94121
3254.02875	0.94149
3251.97184	0.94207
3249.91493	0.94298
3247.85802	0.94346
3245.80111	0.94342
3243.74420	0.94347
3241.68730	0.94410
3239.63039	0.94502
3237.57348	0.94532
3235.51657	0.94552
3233.45966	0.94640
3231.40276	0.94715
3229.34585	0.94758
3227.28894	0.94832
3225.23203	0.94924
3223.17512	0.94988
3221.11821	0.95009
3219.06131	0.95056
3217.00440	0.95177
3214.94749	0.95276
3212.89058	0.95298
3210.83367	0.95316
3208.77677	0.95347
3206.71986	0.95387
3204.66295	0.95509
3202.60604	0.95675
3200.54913	0.95752
3198.49222	0.95765
3196.43532	0.95815
3194.37841	0.95876
3192.32150	0.95917
3190.26459	0.95965
3188.20768	0.96036
3186.15078	0.96152
3184.09387	0.96263
3182.03696	0.96304
3179.98005	0.96312
3177.92314	0.96353
3175.86623	0.96439
3173.80933	0.96506
3171.75242	0.96521
3169.69551	0.96555
3167.63860	0.96644
3165.58169	0.96729
3163.52479	0.96768
3161.46788	0.96779
3159.41097	0.96800
3157.35406	0.96846
3155.29715	0.96907
3153.24024	0.96970
3151.18334	0.97026
3149.12643	0.97069
3147.06952	0.97133
3145.01261	0.97216
3142.95570	0.97254
3140.89880	0.97251
3138.84189	0.97263
3136.78498	0.97304
3134.72807	0.97353
3132.67116	0.97392
3130.61425	0.97439
3128.55735	0.97486
3126.50044	0.97514
3124.44353	0.97557
3122.38662	0.97618
3120.32971	0.97673
3118.27281	0.97706
3116.21590	0.97732
3114.15899	0.97784
3112.10208	0.97832
3110.04517	0.97877
3107.98826	0.97957
3105.93136	0.98027
3103.87445	0.98044
3101.81754	0.98030
3099.76063	0.98012
3097.70372	0.98029
3095.64682	0.98095
3093.58991	0.98153
3091.53300	0.98179
3089.47609	0.98192
3087.41918	0.98193
3085.36227	0.98222
3083.30537	0.98284
3081.24846	0.98314
3079.19155	0.98331
3077.13464	0.98398
3075.07773	0.98497
3073.02083	0.98543
3070.96392	0.98501
3068.90701	0.98437
3066.85010	0.98418
3064.79319	0.98437
3062.73628	0.98444
3060.67938	0.98437
3058.62247	0.98448
3056.56556	0.98486
3054.50865	0.98514
3052.45174	0.98512
3050.39484	0.98497
3048.33793	0.98462
3046.28102	0.98459
3044.22411	0.98518
3042.16720	0.98575
3040.11029	0.98624
3038.05339	0.98657
3035.99648	0.98627
3033.93957	0.98580
3031.88266	0.98574
3029.82575	0.98573
3027.76885	0.98539
3025.71194	0.98523
3023.65503	0.98548
3021.59812	0.98566
3019.54121	0.98564
3017.48430	0.98568
3015.42740	0.98574
3013.37049	0.98550
3011.31358	0.98504
3009.25667	0.98493
3007.19976	0.98526
3005.14286	0.98559
3003.08595	0.98551
3001.02904	0.98476
2998.97213	0.98364
2996.91522	0.98271
2994.85831	0.98226
2992.80141	0.98210
2990.74450	0.98185
2988.68759	0.98146
2986.63068	0.98086
2984.57377	0.97994
2982.51687	0.97888
2980.45996	0.97788
2978.40305	0.97690
2976.34614	0.97573
2974.28923	0.97449
2972.23232	0.97332
2970.17542	0.97225
2968.11851	0.97144
2966.06160	0.97078
2964.00469	0.97031
2961.94778	0.96997
2959.89088	0.96938
2957.83397	0.96865
2955.77706	0.96813
2953.72015	0.96770
2951.66324	0.96695
2949.60633	0.96602
2947.54943	0.96533
2945.49252	0.96466
2943.43561	0.96376
2941.37870	0.96305
2939.32179	0.96265
2937.26489	0.96206
2935.20798	0.96144
2933.15107	0.96165
2931.09416	0.96242
2929.03725	0.96264
2926.98034	0.96250
2924.92344	0.96276
2922.86653	0.96313
2920.80962	0.96344
2918.75271	0.96375
2916.69580	0.96357
2914.63890	0.96298
2912.58199	0.96264
2910.52508	0.96284
2908.46817	0.96318
2906.41126	0.96320
2904.35435	0.96281
2902.29745	0.96207
2900.24054	0.96144
2898.18363	0.96124
2896.12672	0.96116
2894.06981	0.96092
2892.01291	0.96049
2889.95600	0.96006
2887.89909	0.95972
2885.84218	0.95950
2883.78527	0.95956
2881.72836	0.96006
2879.67146	0.96098
2877.61455	0.96185
2875.55764	0.96238
2873.50073	0.96284
2871.44382	0.96355
2869.38692	0.96465
2867.33001	0.96595
2865.27310	0.96699
2863.21619	0.96787
2861.15928	0.96916
2859.10237	0.97107
2857.04547	0.97321
2854.98856	0.97498
2852.93165	0.97629
2850.87474	0.97720
2848.81783	0.97782
2846.76093	0.97857
2844.70402	0.97948
2842.64711	0.98044
2840.59020	0.98133
2838.53329	0.98216
2836.47638	0.98294
2834.41948	0.98341
2832.36257	0.98377
2830.30566	0.98427
2828.24875	0.98476
2826.19184	0.98516
2824.13494	0.98530
2822.07803	0.98538
2820.02112	0.98581
2817.96421	0.98620
2815.90730	0.98599
2813.85039	0.98560
2811.79349	0.98560
2809.73658	0.98596
2807.67967	0.98646
2805.62276	0.98702
2803.56585	0.98737
2801.50895	0.98747
2799.45204	0.98779
2797.39513	0.98833
2795.33822	0.98872
2793.28131	0.98878
2791.22440	0.98869
2789.16750	0.98868
2787.11059	0.98877
2785.05368	0.98896
2782.99677	0.98914
2780.93986	0.98908
2778.88296	0.98892
2776.82605	0.98879
2774.76914	0.98876
2772.71223	0.98888
2770.65532	0.98901
2768.59841	0.98928
2766.54151	0.98976
2764.48460	0.99027
2762.42769	0.99077
2760.37078	0.99097
2758.31387	0.99068
2756.25697	0.99031
2754.20006	0.99001
2752.14315	0.98983
2750.08624	0.99007
2748.02933	0.99040
2745.97242	0.99026
2743.91552	0.98999
2741.85861	0.98991
2739.80170	0.98986
2737.74479	0.98981
2735.68788	0.98996
2733.63098	0.99015
2731.57407	0.99029
2729.51716	0.99060
2727.46025	0.99093
2725.40334	0.99084
2723.34643	0.99054
2721.28953	0.99048
2719.23262	0.99054
2717.17571	0.99069
2715.11880	0.99110
2713.06189	0.99115
2711.00499	0.99081
2708.94808	0.99095
2706.89117	0.99141
2704.83426	0.99135
2702.77735	0.99099
2700.72044	0.99095
2698.66354	0.99117
2696.60663	0.99152
2694.54972	0.99192
2692.49281	0.99216
2690.43590	0.99236
2688.37900	0.99251
2686.32209	0.99245
2684.26518	0.99243
2682.20827	0.99255
2680.15136	0.99264
2678.09445	0.99265
2676.03755	0.99259
2673.98064	0.99266
2671.92373	0.99284
2669.86682	0.99280
2667.80991	0.99253
2665.75301	0.99234
2663.69610	0.99216
2661.63919	0.99215
2659.58228	0.99265
2657.52537	0.99317
2655.46846	0.99301
2653.41156	0.99244
2651.35465	0.99207
2649.29774	0.99177
2647.24083	0.99176
2645.18392	0.99234
2643.12702	0.99311
2641.07011	0.99368
2639.01320	0.99376
2636.95629	0.99357
2634.89938	0.99342
2632.84247	0.99324
2630.78557	0.99318
2628.72866	0.99329
2626.67175	0.99354
2624.61484	0.99375
2622.55793	0.99380
2620.50103	0.99375
2618.44412	0.99372
2616.38721	0.99390
2614.33030	0.99408
2612.27339	0.99401
2610.21648	0.99388
2608.15958	0.99410
2606.10267	0.99455
2604.04576	0.99460
2601.98885	0.99434
2599.93194	0.99431
2597.87504	0.99465
2595.81813	0.99505
2593.76122	0.99541
2591.70431	0.99579
2589.64740	0.99571
2587.59049	0.99543
2585.53359	0.99540
2583.47668	0.99513
2581.41977	0.99478
2579.36286	0.99507
2577.30595	0.99592
2575.24905	0.99659
2573.19214	0.99637
2571.13523	0.99571
2569.07832	0.99587
2567.02141	0.99661
2564.96450	0.99685
2562.90760	0.99655
2560.85069	0.99595
2558.79378	0.99536
2556.73687	0.99537
2554.67996	0.99571
2552.62306	0.99606
2550.56615	0.99631
2548.50924	0.99596
2546.45233	0.99553
2544.39542	0.99561
2542.33851	0.99603
2540.28161	0.99680
2538.22470	0.99733
2536.16779	0.99700
2534.11088	0.99625
2532.05397	0.99605
2529.99707	0.99674
2527.94016	0.99727
2525.88325	0.99708
2523.82634	0.99676
2521.76943	0.99656
2519.71252	0.99651
2517.65562	0.99656
2515.59871	0.99662
2513.54180	0.99702
2511.48489	0.99768
2509.42798	0.99793
2507.37108	0.99766
2505.31417	0.99710
2503.25726	0.99656
2501.20035	0.99648
2499.14344	0.99697
2497.08653	0.99761
2495.02963	0.99799
2492.97272	0.99808
2490.91581	0.99798
2488.85890	0.99779
2486.80199	0.99747
2484.74509	0.99690
2482.68818	0.99633
2480.63127	0.99632
2478.57436	0.99678
2476.51745	0.99683
2474.46054	0.99651
2472.40364	0.99633
2470.34673	0.99637
2468.28982	0.99663
2466.23291	0.99712
2464.17600	0.99748
2462.11910	0.99712
2460.06219	0.99633
2458.00528	0.99623
2455.94837	0.99736
2453.89146	0.99865
2451.83455	0.99888
2449.77765	0.99809
2447.72074	0.99727
2445.66383	0.99731
2443.60692	0.99792
2441.55001	0.99822
2439.49311	0.99808
2437.43620	0.99790
2435.37929	0.99781
2433.32238	0.99803
2431.26547	0.99871
2429.20856	0.99916
2427.15166	0.99846
2425.09475	0.99723
2423.03784	0.99705
2420.98093	0.99772
2418.92402	0.99818
2416.86712	0.99822
2414.81021	0.99776
2412.75330	0.99722
2410.69639	0.99734
2408.63948	0.99780
2406.58257	0.99800
2404.52567	0.99766
2402.46876	0.99691
2400.41185	0.99657
2398.35494	0.99697
2396.29803	0.99764
2394.24113	0.99810
2392.18422	0.99804
2390.12731	0.99763
2388.07040	0.99751
2386.01349	0.99766
2383.95658	0.99777
2381.89968	0.99809
2379.84277	0.99823
2377.78586	0.99778
2375.72895	0.99750
2373.67204	0.99744
2371.61514	0.99719
2369.55823	0.99752
2367.50132	0.99857
2365.44441	0.99870
2363.38750	0.99770
2361.33059	0.99676
2359.27369	0.99640
2357.21678	0.99674
2355.15987	0.99658
2353.10296	0.99628
2351.04605	0.99715
2348.98915	0.99794
2346.93224	0.99802
2344.87533	0.99800
2342.81842	0.99742
2340.76151	0.99625
2338.70460	0.99639
2336.64770	0.99753
2334.59079	0.99791
2332.53388	0.99738
2330.47697	0.99692
2328.42006	0.99694
2326.36316	0.99691
2324.30625	0.99693
2322.24934	0.99745
2320.19243	0.99784
2318.13552	0.99770
2316.07861	0.99702
2314.02171	0.99596
2311.96480	0.99571
2309.90789	0.99642
2307.85098	0.99673
2305.79407	0.99668
2303.73717	0.99721
2301.68026	0.99789
2299.62335	0.99796
2297.56644	0.99751
2295.50953	0.99703
2293.45262	0.99694
2291.39572	0.99715
2289.33881	0.99712
2287.28190	0.99665
2285.22499	0.99632
2283.16808	0.99643
2281.11117	0.99644
2279.05427	0.99603
2276.99736	0.99587
2274.94045	0.99640
2272.88354	0.99667
2270.82663	0.99616
2268.76973	0.99588
2266.71282	0.99633
2264.65591	0.99633
2262.59900	0.99558
2260.54209	0.99560
2258.48518	0.99701
2256.42828	0.99861
2254.37137	0.99903
2252.31446	0.99818
2250.25755	0.99764
2248.20064	0.99811
2246.14374	0.99795
2244.08683	0.99704
2242.02992	0.99646
2239.97301	0.99637
2237.91610	0.99716
2235.85919	0.99811
2233.80229	0.99800
2231.74538	0.99724
2229.68847	0.99676
2227.63156	0.99674
2225.57465	0.99701
2223.51775	0.99789
2221.46084	0.99876
2219.40393	0.99773
2217.34702	0.99597
2215.29011	0.99589
2213.23320	0.99692
2211.17630	0.99742
2209.11939	0.99682
2207.06248	0.99680
2205.00557	0.99829
2202.94866	0.99932
2200.89176	0.99895
2198.83485	0.99816
2196.77794	0.99763
2194.72103	0.99737
2192.66412	0.99771
2190.60721	0.99872
2188.55031	0.99803
2186.49340	0.99427
2184.43649	0.99173
2182.37958	0.99349
2180.32267	0.99594
2178.26577	0.99598
2176.20886	0.99532
2174.15195	0.99667
2172.09504	0.99842
2170.03813	0.99751
2167.98122	0.99496
2165.92432	0.99309
2163.86741	0.99222
2161.81050	0.99334
2159.75359	0.99802
2157.69668	1.00138
2155.63978	1.00067
2153.58287	1.00061
2151.52596	1.00208
2149.46905	1.00235
2147.41214	1.00108
2145.35523	1.00097
2143.29833	1.00223
2141.24142	1.00226
2139.18451	1.00094
2137.12760	0.99932
2135.07069	0.99764
2133.01379	0.99631
2130.95688	0.99559
2128.89997	0.99574
2126.84306	0.99623
2124.78615	0.99632
2122.72924	0.99625
2120.67234	0.99638
2118.61543	0.99659
2116.55852	0.99663
2114.50161	0.99622
2112.44470	0.99566
2110.38780	0.99652
2108.33089	0.99850
2106.27398	0.99903
2104.21707	0.99802
2102.16016	0.99761
2100.10325	0.99850
2098.04635	0.99927
2095.98944	0.99942
2093.93253	0.99937
2091.87562	0.99822
2089.81871	0.99629
2087.76181	0.99592
2085.70490	0.99676
2083.64799	0.99675
2081.59108	0.99689
2079.53417	0.99765
2077.47726	0.99762
2075.42036	0.99666
2073.36345	0.99482
2071.30654	0.99333
2069.24963	0.99394
2067.19272	0.99571
2065.13582	0.99634
2063.07891	0.99519
2061.02200	0.99479
2058.96509	0.99673
2056.90818	0.99911
2054.85127	1.00020
2052.79437	0.99939
2050.73746	0.99667
2048.68055	0.99462
2046.62364	0.99529
2044.56673	0.99732
2042.50983	0.99969
2040.45292	1.00109
2038.39601	1.00088
2036.33910	1.00014
2034.28219	0.99860
2032.22528	0.99742
2030.16838	0.99755
2028.11147	0.99820
2026.05456	0.99978
2023.99765	1.00121
2021.94074	1.00164
2019.88384	1.00155
2017.82693	1.00061
2015.77002	0.99989
2013.71311	0.99997
2011.65620	1.00026
2009.59929	1.00099
2007.54239	1.00221
2005.48548	1.00289
2003.42857	1.00246
2001.37166	1.00279
1999.31475	1.00364
1997.25785	1.00275
1995.20094	1.00105
1993.14403	0.99998
1991.08712	0.99930
1989.03021	0.99825
1986.97330	0.99770
1984.91640	0.99867
1982.85949	0.99932
1980.80258	0.99857
1978.74567	0.99755
1976.68876	0.99716
1974.63186	0.99847
1972.57495	1.00055
1970.51804	1.00107
1968.46113	1.00052
1966.40422	0.99896
1964.34731	0.99664
1962.29041	0.99625
1960.23350	0.99803
1958.17659	0.99949
1956.11968	0.99999
1954.06277	0.99964
1952.00587	0.99854
1949.94896	0.99856
1947.89205	0.99929
1945.83514	0.99916
1943.77823	0.99891
1941.72132	0.99850
1939.66442	0.99773
1937.60751	0.99778
1935.55060	0.99826
1933.49369	0.99804
1931.43678	0.99802
1929.37988	0.99854
1927.32297	0.99873
1925.26606	0.99858
1923.20915	0.99794
1921.15224	0.99724
1919.09533	0.99701
1917.03843	0.99769
1914.98152	0.99893
1912.92461	0.99934
1910.86770	0.99885
1908.81079	0.99780
1906.75389	0.99672
1904.69698	0.99683
1902.64007	0.99807
1900.58316	0.99908
1898.52625	0.99941
1896.46934	0.99908
1894.41244	0.99828
1892.35553	0.99779
1890.29862	0.99779
1888.24171	0.99812
1886.18480	0.99829
1884.12790	0.99834
1882.07099	0.99864
1880.01408	0.99881
1877.95717	0.99839
1875.90026	0.99811
1873.84335	0.99818
1871.78645	0.99746
1869.72954	0.99591
1867.67263	0.99545
1865.61572	0.99652
1863.55881	0.99760
1861.50191	0.99838
1859.44500	0.99866
1857.38809	0.99851
1855.33118	0.99816
1853.27427	0.99770
1851.21736	0.99741
1849.16046	0.99712
1847.10355	0.99631
1845.04664	0.99532
1842.98973	0.99512
1840.93282	0.99555
1838.87592	0.99577
1836.81901	0.99589
1834.76210	0.99620
1832.70519	0.99544
1830.64828	0.99378
1828.59137	0.99323
1826.53447	0.99311
1824.47756	0.99253
1822.42065	0.99288
1820.36374	0.99385
1818.30683	0.99398
1816.24993	0.99339
1814.19302	0.99231
1812.13611	0.99099
1810.07920	0.99037
1808.02229	0.99046
1805.96538	0.98996
1803.90848	0.98885
1801.85157	0.98742
1799.79466	0.98636
1797.73775	0.98605
1795.68084	0.98567
1793.62394	0.98471
1791.56703	0.98346
1789.51012	0.98312
1787.45321	0.98278
1785.39630	0.98164
1783.33939	0.98001
1781.28249	0.97795
1779.22558	0.97507
1777.16867	0.97173
1775.11176	0.96768
1773.05485	0.96155
1770.99795	0.95385
1768.94104	0.94602
1766.88413	0.93637
1764.82722	0.92456
1762.77031	0.90798
1760.71340	0.88582
1758.65650	0.86422
1756.59959	0.84206
1754.54268	0.82153
1752.48577	0.80269
1750.42886	0.78060
1748.37196	0.76004
1746.31505	0.74589
1744.25814	0.73485
1742.20123	0.72467
1740.14432	0.71414
1738.08741	0.70546
1736.03051	0.69982
1733.97360	0.69276
1731.91669	0.68740
1729.85978	0.68749
1727.80287	0.69085
1725.74597	0.69658
1723.68906	0.70519
1721.63215	0.71603
1719.57524	0.72913
1717.51833	0.74981
1715.46142	0.77718
1713.40452	0.80146
1711.34761	0.82248
1709.29070	0.84170
1707.23379	0.86012
1705.17688	0.87832
1703.11998	0.89259
1701.06307	0.90447
1699.00616	0.91599
1696.94925	0.92442
1694.89234	0.93266
1692.83543	0.93884
1690.77853	0.94248
1688.72162	0.94486
1686.66471	0.94571
1684.60780	0.94594
1682.55089	0.94769
1680.49399	0.94998
1678.43708	0.95133
1676.38017	0.95098
1674.32326	0.94960
1672.26635	0.94873
1670.20944	0.94810
1668.15254	0.94813
1666.09563	0.94834
1664.03872	0.94737
1661.98181	0.94607
1659.92490	0.94572
1657.86800	0.94510
1655.81109	0.94336
1653.75418	0.94032
1651.69727	0.93870
1649.64036	0.93850
1647.58345	0.93755
1645.52655	0.93807
1643.46964	0.93996
1641.41273	0.94094
1639.35582	0.94087
1637.29891	0.94011
1635.24201	0.94045
1633.18510	0.94271
1631.12819	0.94444
1629.07128	0.94543
1627.01437	0.94633
1624.95746	0.94720
1622.90056	0.94870
1620.84365	0.95098
1618.78674	0.95273
1616.72983	0.95423
1614.67292	0.95635
1612.61602	0.95838
1610.55911	0.96023
1608.50220	0.96229
1606.44529	0.96436
1604.38838	0.96622
1602.33147	0.96795
1600.27457	0.96944
1598.21766	0.97047
1596.16075	0.97114
1594.10384	0.97176
1592.04693	0.97261
1589.99003	0.97333
1587.93312	0.97354
1585.87621	0.97361
1583.81930	0.97372
1581.76239	0.97374
1579.70548	0.97338
1577.64858	0.97232
1575.59167	0.97159
1573.53476	0.97209
1571.47785	0.97187
1569.42094	0.97082
1567.36404	0.97091
1565.30713	0.97152
1563.25022	0.97128
1561.19331	0.96952
1559.13640	0.96665
1557.07949	0.96825
1555.02259	0.97137
1552.96568	0.97325
1550.90877	0.97429
1548.85186	0.97489
1546.79495	0.97477
1544.73805	0.97330
1542.68114	0.97087
1540.62423	0.96959
1538.56732	0.97231
1536.51041	0.97466
1534.45350	0.97518
1532.39660	0.97569
1530.33969	0.97641
1528.28278	0.97611
1526.22587	0.97515
1524.16896	0.97444
1522.11206	0.97382
1520.05515	0.97372
1517.99824	0.97427
1515.94133	0.97528
1513.88442	0.97611
1511.82751	0.97565
1509.77061	0.97376
1507.71370	0.97181
1505.65679	0.97404
1503.59988	0.97652
1501.54297	0.97680
1499.48607	0.97602
1497.42916	0.97521
1495.37225	0.97544
1493.31534	0.97558
1491.25843	0.97400
1489.20152	0.97186
1487.14462	0.97185
1485.08771	0.97237
1483.03080	0.97183
1480.97389	0.97021
1478.91698	0.96798
1476.86008	0.96490
1474.80317	0.96072
1472.74626	0.95635
1470.68935	0.95383
1468.63244	0.95228
1466.57553	0.94963
1464.51863	0.94601
1462.46172	0.94324
1460.40481	0.94074
1458.34790	0.93661
1456.29099	0.93260
1454.23409	0.93182
1452.17718	0.93141
1450.12027	0.92971
1448.06336	0.92682
1446.00645	0.92383
1443.94954	0.92096
1441.89264	0.91776
1439.83573	0.91439
1437.77882	0.91044
1435.72191	0.90647
1433.66500	0.90485
1431.60810	0.90432
1429.55119	0.90401
1427.49428	0.90430
1425.43737	0.90498
1423.38046	0.90605
1421.32355	0.90698
1419.26665	0.90701
1417.20974	0.90738
1415.15283	0.90858
1413.09592	0.90921
1411.03901	0.90916
1408.98211	0.90912
1406.92520	0.90928
1404.86829	0.90959
1402.81138	0.91008
1400.75447	0.90972
1398.69756	0.90776
1396.64066	0.90424
1394.58375	0.89884
1392.52684	0.89235
1390.46993	0.88469
1388.41302	0.87319
1386.35612	0.85804
1384.29921	0.84353
1382.24230	0.82970
1380.18539	0.81582
1378.12848	0.80353
1376.07157	0.79366
1374.01467	0.78627
1371.95776	0.78315
1369.90085	0.78516
1367.84394	0.79195
1365.78703	0.80257
1363.73013	0.81693
1361.67322	0.83550
1359.61631	0.85378
1357.55940	0.86942
1355.50249	0.88299
1353.44558	0.89400
1351.38868	0.90201
1349.33177	0.90763
1347.27486	0.91140
1345.21795	0.91361
1343.16104	0.91484
1341.10414	0.91581
1339.04723	0.91694
1336.99032	0.91808
1334.93341	0.91864
1332.87650	0.91814
1330.81959	0.91693
1328.76269	0.91558
1326.70578	0.91409
1324.64887	0.91252
1322.59196	0.91104
1320.53505	0.90951
1318.47815	0.90801
1316.42124	0.90689
1314.36433	0.90627
1312.30742	0.90601
1310.25051	0.90587
1308.19360	0.90580
1306.13670	0.90588
1304.07979	0.90604
1302.02288	0.90619
1299.96597	0.90611
1297.90906	0.90551
1295.85216	0.90398
1293.79525	0.90121
1291.73834	0.89732
1289.68143	0.89242
1287.62452	0.88642
1285.56761	0.87955
1283.51071	0.87194
1281.45380	0.86312
1279.39689	0.85283
1277.33998	0.84115
1275.28307	0.82835
1273.22617	0.81457
1271.16926	0.79959
1269.11235	0.78360
1267.05544	0.76710
1264.99853	0.75011
1262.94162	0.73258
1260.88472	0.71464
1258.82781	0.69688
1256.77090	0.67995
1254.71399	0.66369
1252.65708	0.64788
1250.60018	0.63269
1248.54327	0.61814
1246.48636	0.60409
1244.42945	0.59082
1242.37254	0.57881
1240.31563	0.56807
1238.25873	0.55861
1236.20182	0.55095
1234.14491	0.54561
1232.08800	0.54320
1230.03109	0.54447
1227.97419	0.55032
1225.91728	0.56173
1223.86037	0.57918
1221.80346	0.60237
1219.74655	0.63040
1217.68964	0.66170
1215.63274	0.69423
1213.57583	0.72599
1211.51892	0.75512
1209.46201	0.78065
1207.40510	0.80288
1205.34820	0.82227
1203.29129	0.83902
1201.23438	0.85354
1199.17747	0.86639
1197.12056	0.87772
1195.06365	0.88706
1193.00675	0.89415
1190.94984	0.89901
1188.89293	0.90147
1186.83602	0.90123
1184.77911	0.89862
1182.72221	0.89430
1180.66530	0.88854
1178.60839	0.88164
1176.55148	0.87374
1174.49457	0.86478
1172.43766	0.85504
1170.38076	0.84474
1168.32385	0.83392
1166.26694	0.82317
1164.21003	0.81321
1162.15312	0.80483
1160.09622	0.79912
1158.03931	0.79690
1155.98240	0.79813
1153.92549	0.80232
1151.86858	0.80864
1149.81167	0.81576
1147.75477	0.82233
1145.69786	0.82744
1143.64095	0.83059
1141.58404	0.83128
1139.52713	0.82913
1137.47023	0.82462
1135.41332	0.81869
1133.35641	0.81168
1131.29950	0.80394
1129.24259	0.79644
1127.18568	0.78960
1125.12878	0.78337
1123.07187	0.77788
1121.01496	0.77305
1118.95805	0.76894
1116.90114	0.76552
1114.84424	0.76223
1112.78733	0.75889
1110.73042	0.75563
1108.67351	0.75215
1106.61660	0.74826
1104.55969	0.74394
1102.50279	0.73895
1100.44588	0.73317
1098.38897	0.72663
1096.33206	0.71907
1094.27515	0.70998
1092.21825	0.69927
1090.16134	0.68717
1088.10443	0.67366
1086.04752	0.65880
1083.99061	0.64292
1081.93370	0.62667
1079.87680	0.61088
1077.81989	0.59614
1075.76298	0.58266
1073.70607	0.57028
1071.64916	0.55888
1069.59226	0.54830
1067.53535	0.53841
1065.47844	0.52923
1063.42153	0.52030
1061.36462	0.51121
1059.30771	0.50206
1057.25081	0.49269
1055.19390	0.48304
1053.13699	0.47358
1051.08008	0.46495
1049.02317	0.45710
1046.96627	0.44960
1044.90936	0.44247
1042.85245	0.43566
1040.79554	0.42871
1038.73863	0.42176
1036.68172	0.41578
1034.62482	0.41196
1032.56791	0.41127
1030.51100	0.41450
1028.45409	0.42245
1026.39718	0.43510
1024.34028	0.45160
1022.28337	0.47099
1020.22646	0.49219
1018.16955	0.51401
1016.11264	0.53573
1014.05573	0.55678
1011.99883	0.57643
1009.94192	0.59444
1007.88501	0.61115
1005.82810	0.62722
1003.77119	0.64295
1001.71429	0.65795
999.65738	0.67218
997.60047	0.68642
995.54356	0.70106
993.48665	0.71528
991.42974	0.72851
989.37284	0.74116
987.31593	0.75312
985.25902	0.76429
983.20211	0.77528
981.14520	0.78622
979.08830	0.79704
977.03139	0.80769
974.97448	0.81802
972.91757	0.82818
970.86066	0.83811
968.80375	0.84755
966.74685	0.85630
964.68994	0.86378
962.63303	0.86954
960.57612	0.87382
958.51921	0.87670
956.46231	0.87815
954.40540	0.87859
952.34849	0.87895
950.29158	0.87984
948.23467	0.88159
946.17776	0.88446
944.12086	0.88754
942.06395	0.88944
940.00704	0.89011
937.95013	0.89027
935.89322	0.89046
933.83632	0.89084
931.77941	0.89142
929.72250	0.89208
927.66559	0.89226
925.60868	0.89174
923.55177	0.89062
921.49487	0.88842
919.43796	0.88485
917.38105	0.88041
915.32414	0.87556
913.26723	0.87054
911.21033	0.86571
909.15342	0.86151
907.09651	0.85875
905.03960	0.85808
902.98269	0.85938
900.92578	0.86238
898.86888	0.86612
896.81197	0.86993
894.75506	0.87402
892.69815	0.87815
890.64124	0.88240
888.58434	0.88671
886.52743	0.89094
884.47052	0.89596
882.41361	0.90190
880.35670	0.90797
878.29979	0.91399
876.24289	0.91942
874.18598	0.92374
872.12907	0.92763
870.07216	0.93111
868.01525	0.93349
865.95835	0.93508
863.90144	0.93680
861.84453	0.93840
859.78762	0.93922
857.73071	0.93936
855.67380	0.93906
853.61690	0.93833
851.55999	0.93736
849.50308	0.93625
847.44617	0.93502
845.38926	0.93387
843.33236	0.93249
841.27545	0.93125
839.21854	0.93085
837.16163	0.93095
835.10472	0.93138
833.04781	0.93230
830.99091	0.93337
828.93400	0.93441
826.87709	0.93545
824.82018	0.93620
822.76327	0.93617
820.70637	0.93526
818.64946	0.93372
816.59255	0.93236
814.53564	0.93211
812.47873	0.93270
810.42182	0.93327
808.36492	0.93330
806.30801	0.93303
804.25110	0.93287
802.19419	0.93276
800.13728	0.93281
798.08038	0.93277
796.02347	0.93225
793.96656	0.93154
791.90965	0.93078
789.85274	0.92982
787.79583	0.92922
785.73893	0.92896
783.68202	0.92828
781.62511	0.92737
779.56820	0.92658
777.51129	0.92577
775.45439	0.92478
773.39748	0.92384
771.34057	0.92346
769.28366	0.92330
767.22675	0.92280
765.16984	0.92202
763.11294	0.92087
761.05603	0.91963
758.99912	0.91861
756.94221	0.91781
754.88530	0.91741
752.82839	0.91694
750.77149	0.91592
748.71458	0.91463
746.65767	0.91319
744.60076	0.91173
742.54385	0.91053
740.48695	0.90949
738.43004	0.90847
736.37313	0.90705
734.31622	0.90527
732.25931	0.90359
730.20240	0.90128
728.14550	0.89862
726.08859	0.89640
724.03168	0.89419
721.97477	0.89201
719.91786	0.88948
717.86096	0.88664
715.80405	0.88456
713.74714	0.88282
711.69023	0.88143
709.63332	0.88075
707.57641	0.87962
705.51951	0.87786
703.46260	0.87640
701.40569	0.87501
699.34878	0.87317
697.29187	0.87099
695.23497	0.86868
693.17806	0.86599
691.12115	0.86266
689.06424	0.85940
687.00733	0.85700
684.95042	0.85542
682.89352	0.85420
680.83661	0.85278
678.77970	0.85073
676.72279	0.84836
674.66588	0.84672
672.60898	0.84540
670.55207	0.84327
668.49516	0.84045
666.43825	0.83909
664.38134	0.83903
662.32443	0.83822
660.26753	0.83658
658.21062	0.83461
656.15371	0.83197
654.09680	0.82886
652.03989	0.82609
649.98299	0.82374
647.92608	0.82118
645.86917	0.81823
643.81226	0.81508
641.75535	0.81171
639.69844	0.80877
637.64154	0.80657
635.58463	0.80381
633.52772	0.80034
631.47081	0.79744
629.41390	0.79517
627.35700	0.79253
625.30009	0.78976
623.24318	0.78738
621.18627	0.78463
619.12936	0.78128
617.07245	0.77725
615.01555	0.77192
612.95864	0.76571
610.90173	0.75902
608.84482	0.75143
606.78791	0.74497
604.73101	0.74247
602.67410	0.74343
600.61719	0.74621
598.56028	0.75024
596.50337	0.75487
594.44646	0.75965
592.38956	0.76488
590.33265	0.77003
588.27574	0.77410
586.21883	0.77708
584.16192	0.77852
582.10502	0.77814
580.04811	0.77676
577.99120	0.77473
575.93429	0.77245
573.87738	0.77085
571.82047	0.76947
569.76357	0.76756
567.70666	0.76551
565.64975	0.76398
563.59284	0.76285
561.53593	0.76210
559.47903	0.76241
557.42212	0.76365
555.36521	0.76513
553.30830	0.76658
551.25139	0.76821
549.19448	0.76958
547.13758	0.76999
545.08067	0.77055
543.02376	0.77242
540.96685	0.77411
538.90994	0.77336
536.85304	0.77120
534.79613	0.77063
532.73922	0.77198
530.68231	0.77262
528.62540	0.77139
526.56849	0.76990
524.51159	0.76975
522.45468	0.77083
520.39777	0.77113
518.34086	0.76985
516.28395	0.76826
514.22705	0.76680
512.17014	0.76554
510.11323	0.76413
508.05632	0.76148
505.99941	0.75860
503.94250	0.75673
501.88560	0.75437
499.82869	0.75127
497.77178	0.74945
495.71487	0.74886
493.65796	0.74839
491.60106	0.74803
489.54415	0.74718
487.48724	0.74584
485.43033	0.74573
483.37342	0.74701
481.31651	0.74778
479.25961	0.74771
477.20270	0.74756
475.14579	0.74694
473.08888	0.74532
471.03197	0.74400
468.97507	0.74443
466.91816	0.74570
464.86125	0.74663
462.80434	0.74643
460.74743	0.74651
458.69052	0.74815
456.63362	0.74858
454.57671	0.74732
452.51980	0.74773
450.46289	0.74989
448.40598	0.75051
446.34908	0.74954
444.29217	0.74761
442.23526	0.74470
440.17835	0.74626
438.12144	0.75161
436.06453	0.75308
434.00763	0.75200
431.95072	0.75318
429.89381	0.75478
427.83690	0.75613
425.77999	0.75835
423.72309	0.76016
421.66618	0.75952
419.60927	0.75707
417.55236	0.75855
415.49545	0.76181
413.43854	0.76000
411.38164	0.75511
409.32473	0.75249
407.26782	0.75228
405.21091	0.75409
403.15400	0.75793
401.09710	0.76025
399.04019	0.75505
