3996.61717	0.99379
3994.56024	0.99369
3992.50331	0.99344
3990.44637	0.99282
3988.38944	0.99231
3986.33251	0.99226
3984.27558	0.99235
3982.21865	0.99230
3980.16172	0.99257
3978.10479	0.99314
3976.04786	0.99268
3973.99092	0.99174
3971.93399	0.99169
3969.87706	0.99162
3967.82013	0.99141
3965.76320	0.99193
3963.70627	0.99247
3961.64934	0.99262
3959.59241	0.99276
3957.53548	0.99269
3955.47854	0.99241
3953.42161	0.99241
3951.36468	0.99277
3949.30775	0.99296
3947.25082	0.99284
3945.19389	0.99281
3943.13696	0.99295
3941.08003	0.99320
3939.02310	0.99350
3936.96616	0.99355
3934.90923	0.99341
3932.85230	0.99353
3930.79537	0.99374
3928.73844	0.99365
3926.68151	0.99374
3924.62458	0.99384
3922.56765	0.99353
3920.51072	0.99352
3918.45378	0.99397
3916.39685	0.99435
3914.33992	0.99451
3912.28299	0.99443
3910.22606	0.99435
3908.16913	0.99398
3906.11220	0.99311
3904.05527	0.99334
3901.99834	0.99502
3899.94140	0.99569
3897.88447	0.99492
3895.82754	0.99369
3893.77061	0.99273
3891.71368	0.99264
3889.65675	0.99365
3887.59982	0.99471
3885.54289	0.99443
3883.48596	0.99306
3881.42902	0.99238
3879.37209	0.99242
3877.31516	0.99258
3875.25823	0.99264
3873.20130	0.99275
3871.14437	0.99280
3869.08744	0.99263
3867.03051	0.99282
3864.97358	0.99339
3862.91664	0.99392
3860.85971	0.99405
3858.80278	0.99401
3856.74585	0.99429
3854.68892	0.99470
3852.63199	0.99375
3850.57506	0.99263
3848.51813	0.99290
3846.46120	0.99361
3844.40426	0.99382
3842.34733	0.99351
3840.29040	0.99353
3838.23347	0.99394
3836.17654	0.99372
3834.11961	0.99269
3832.06268	0.99153
3830.00575	0.99160
3827.94882	0.99290
3825.89188	0.99365
3823.83495	0.99333
3821.77802	0.99301
3819.72109	0.99375
3817.66416	0.99467
3815.60723	0.99388
3813.55030	0.99227
3811.49337	0.99183
3809.43644	0.99253
3807.37950	0.99337
3805.32257	0.99327
3803.26564	0.99303
3801.20871	0.99322
3799.15178	0.99287
3797.09485	0.99253
3795.03792	0.99331
3792.98099	0.99425
3790.92406	0.99434
3788.86712	0.99411
3786.81019	0.99418
3784.75326	0.99397
3782.69633	0.99323
3780.63940	0.99299
3778.58247	0.99333
3776.52554	0.99355
3774.46861	0.99363
3772.41168	0.99401
3770.35474	0.99451
3768.29781	0.99470
3766.24088	0.99536
3764.18395	0.99571
3762.12702	0.99464
3760.07009	0.99343
3758.01316	0.99321
3755.95623	0.99351
3753.89930	0.99374
3751.84236	0.99348
3749.78543	0.99322
3747.72850	0.99394
3745.67157	0.99481
3743.61464	0.99522
3741.55771	0.99491
3739.50078	0.99424
3737.44385	0.99417
3735.38691	0.99436
3733.32998	0.99259
3731.27305	0.99145
3729.21612	0.99260
3727.15919	0.99384
3725.10226	0.99359
3723.04533	0.99307
3720.98840	0.99337
3718.93147	0.99383
3716.87453	0.99405
3714.81760	0.99401
3712.76067	0.99337
3710.70374	0.99261
3708.64681	0.99300
3706.58988	0.99367
3704.53295	0.99411
3702.47602	0.99382
3700.41909	0.99249
3698.36215	0.99167
3696.30522	0.99178
3694.24829	0.99203
3692.19136	0.99265
3690.13443	0.99321
3688.07750	0.99230
3686.02057	0.99144
3683.96364	0.99172
3681.90671	0.99250
3679.84977	0.99299
3677.79284	0.99348
3675.73591	0.99387
3673.67898	0.99305
3671.62205	0.99244
3669.56512	0.99225
3667.50819	0.99144
3665.45126	0.99054
3663.39433	0.99044
3661.33739	0.99068
3659.28046	0.99028
3657.22353	0.98917
3655.16660	0.98770
3653.10967	0.98668
3651.05274	0.98654
3648.99581	0.98778
3646.93888	0.98786
3644.88195	0.98534
3642.82501	0.98298
3640.76808	0.98219
3638.71115	0.98214
3636.65422	0.98218
3634.59729	0.98256
3632.54036	0.98261
3630.48343	0.98201
3628.42650	0.98138
3626.36957	0.98076
3624.31263	0.97978
3622.25570	0.97868
3620.19877	0.97772
3618.14184	0.97695
3616.08491	0.97663
3614.02798	0.97635
3611.97105	0.97561
3609.91412	0.97475
3607.85719	0.97397
3605.80025	0.97366
3603.74332	0.97377
3601.68639	0.97344
3599.62946	0.97269
3597.57253	0.97222
3595.51560	0.97164
3593.45867	0.97074
3591.40174	0.96988
3589.34481	0.96835
3587.28787	0.96652
3585.23094	0.96690
3583.17401	0.96798
3581.11708	0.96761
3579.06015	0.96649
3577.00322	0.96604
3574.94629	0.96642
3572.88936	0.96665
3570.83243	0.96602
3568.77549	0.96537
3566.71856	0.96477
3564.66163	0.96294
3562.60470	0.96165
3560.54777	0.96142
3558.49084	0.96114
3556.43391	0.96102
3554.37698	0.96097
3552.32005	0.96013
3550.26311	0.95866
3548.20618	0.95755
3546.14925	0.95715
3544.09232	0.95696
3542.03539	0.95667
3539.97846	0.95649
3537.92153	0.95621
3535.86460	0.95512
3533.80767	0.95365
3531.75073	0.95274
3529.69380	0.95262
3527.63687	0.95265
3525.57994	0.95184
3523.52301	0.95067
3521.46608	0.95029
3519.40915	0.95053
3517.35222	0.95033
3515.29529	0.94967
3513.23835	0.94926
3511.18142	0.94927
3509.12449	0.94887
3507.06756	0.94776
3505.01063	0.94692
3502.95370	0.94667
3500.89677	0.94678
3498.83984	0.94683
3496.78290	0.94615
3494.72597	0.94491
3492.66904	0.94409
3490.61211	0.94384
3488.55518	0.94373
3486.49825	0.94377
3484.44132	0.94354
3482.38439	0.94244
3480.32746	0.94146
3478.27052	0.94131
3476.21359	0.94080
3474.15666	0.94002
3472.09973	0.94007
3470.04280	0.94065
3467.98587	0.94062
3465.92894	0.94007
3463.87201	0.94008
3461.81508	0.94043
3459.75814	0.94010
3457.70121	0.93970
3455.64428	0.94023
3453.58735	0.94058
3451.53042	0.94012
3449.47349	0.94002
3447.41656	0.94061
3445.35963	0.94125
3443.30270	0.94158
3441.24576	0.94142
3439.18883	0.94095
3437.13190	0.94040
3435.07497	0.94004
3433.01804	0.94015
3430.96111	0.94058
3428.90418	0.94081
3426.84725	0.94070
3424.79032	0.94079
3422.73338	0.94065
3420.67645	0.93995
3418.61952	0.93998
3416.56259	0.94076
3414.50566	0.94136
3412.44873	0.94187
3410.39180	0.94213
3408.33487	0.94193
3406.27794	0.94201
3404.22100	0.94247
3402.16407	0.94268
3400.10714	0.94263
3398.05021	0.94291
3395.99328	0.94390
3393.93635	0.94478
3391.87942	0.94483
3389.82249	0.94438
3387.76556	0.94398
3385.70862	0.94407
3383.65169	0.94478
3381.59476	0.94516
3379.53783	0.94504
3377.48090	0.94543
3375.42397	0.94611
3373.36704	0.94617
3371.31011	0.94589
3369.25318	0.94612
3367.19624	0.94689
3365.13931	0.94776
3363.08238	0.94839
3361.02545	0.94841
3358.96852	0.94836
3356.91159	0.94890
3354.85466	0.94945
3352.79773	0.94950
3350.74080	0.94939
3348.68386	0.94966
3346.62693	0.95004
3344.57000	0.95013
3342.51307	0.95045
3340.45614	0.95108
3338.39921	0.95156
3336.34228	0.95159
3334.28535	0.95155
3332.22842	0.95214
3330.17148	0.95302
3328.11455	0.95331
3326.05762	0.95322
3324.00069	0.95343
3321.94376	0.95395
3319.88683	0.95443
3317.82990	0.95480
3315.77297	0.95507
3313.71604	0.95526
3311.65910	0.95575
3309.60217	0.95608
3307.54524	0.95587
3305.48831	0.95594
3303.43138	0.95645
3301.37445	0.95720
3299.31752	0.95813
3297.26059	0.95853
3295.20366	0.95862
3293.14672	0.95887
3291.08979	0.95884
3289.03286	0.95869
3286.97593	0.95900
3284.91900	0.95980
3282.86207	0.96076
3280.80514	0.96140
3278.74821	0.96121
3276.69128	0.96025
3274.63434	0.95963
3272.57741	0.96006
3270.52048	0.96081
3268.46355	0.96149
3266.40662	0.96213
3264.34969	0.96242
3262.29276	0.96260
3260.23583	0.96298
3258.17889	0.96324
3256.12196	0.96336
3254.06503	0.96370
3252.00810	0.96437
3249.95117	0.96473
3247.89424	0.96463
3245.83731	0.96462
3243.78038	0.96484
3241.72345	0.96513
3239.66651	0.96535
3237.60958	0.96540
3235.55265	0.96540
3233.49572	0.96573
3231.43879	0.96627
3229.38186	0.96667
3227.32493	0.96722
3225.26800	0.96794
3223.21107	0.96822
3221.15413	0.96813
3219.09720	0.96822
3217.04027	0.96865
3214.98334	0.96913
3212.92641	0.96953
3210.86948	0.97019
3208.81255	0.97101
3206.75562	0.97147
3204.69869	0.97162
3202.64175	0.97173
3200.58482	0.97190
3198.52789	0.97251
3196.47096	0.97314
3194.41403	0.97293
3192.35710	0.97252
3190.30017	0.97282
3188.24324	0.97364
3186.18631	0.97449
3184.12937	0.97498
3182.07244	0.97514
3180.01551	0.97529
3177.95858	0.97561
3175.90165	0.97593
3173.84472	0.97598
3171.78779	0.97583
3169.73086	0.97588
3167.67393	0.97622
3165.61699	0.97680
3163.56006	0.97738
3161.50313	0.97750
3159.44620	0.97736
3157.38927	0.97746
3155.33234	0.97814
3153.27541	0.97900
3151.21848	0.97965
3149.16155	0.98005
3147.10461	0.97996
3145.04768	0.97966
3142.99075	0.97965
3140.93382	0.98013
3138.87689	0.98073
3136.81996	0.98093
3134.76303	0.98093
3132.70610	0.98092
3130.64917	0.98088
3128.59223	0.98110
3126.53530	0.98150
3124.47837	0.98188
3122.42144	0.98216
3120.36451	0.98248
3118.30758	0.98312
3116.25065	0.98347
3114.19372	0.98332
3112.13679	0.98324
3110.07985	0.98343
3108.02292	0.98402
3105.96599	0.98455
3103.90906	0.98449
3101.85213	0.98423
3099.79520	0.98410
3097.73827	0.98412
3095.68134	0.98420
3093.62441	0.98439
3091.56747	0.98440
3089.51054	0.98393
3087.45361	0.98371
3085.39668	0.98387
3083.33975	0.98418
3081.28282	0.98468
3079.22589	0.98523
3077.16896	0.98572
3075.11203	0.98590
3073.05509	0.98573
3070.99816	0.98577
3068.94123	0.98628
3066.88430	0.98682
3064.82737	0.98682
3062.77044	0.98623
3060.71351	0.98582
3058.65658	0.98613
3056.59965	0.98660
3054.54271	0.98662
3052.48578	0.98659
3050.42885	0.98675
3048.37192	0.98676
3046.31499	0.98665
3044.25806	0.98646
3042.20113	0.98632
3040.14420	0.98622
3038.08727	0.98606
3036.03033	0.98613
3033.97340	0.98603
3031.91647	0.98567
3029.85954	0.98575
3027.80261	0.98593
3025.74568	0.98549
3023.68875	0.98498
3021.63182	0.98530
3019.57488	0.98598
3017.51795	0.98610
3015.46102	0.98577
3013.40409	0.98547
3011.34716	0.98527
3009.29023	0.98521
3007.23330	0.98526
3005.17637	0.98518
3003.11944	0.98500
3001.06250	0.98502
2999.00557	0.98507
2996.94864	0.98478
2994.89171	0.98436
2992.83478	0.98417
2990.77785	0.98421
2988.72092	0.98409
2986.66399	0.98381
2984.60706	0.98379
2982.55012	0.98391
2980.49319	0.98357
2978.43626	0.98269
2976.37933	0.98183
2974.32240	0.98129
2972.26547	0.98078
2970.20854	0.98025
2968.15161	0.97994
2966.09468	0.97945
2964.03774	0.97878
2961.98081	0.97843
2959.92388	0.97826
2957.86695	0.97771
2955.81002	0.97682
2953.75309	0.97623
2951.69616	0.97588
2949.63923	0.97550
2947.58230	0.97519
2945.52536	0.97471
2943.46843	0.97429
2941.41150	0.97416
2939.35457	0.97405
2937.29764	0.97407
2935.24071	0.97408
2933.18378	0.97397
2931.12685	0.97430
2929.06992	0.97479
2927.01298	0.97482
2924.95605	0.97484
2922.89912	0.97515
2920.84219	0.97541
2918.78526	0.97552
2916.72833	0.97548
2914.67140	0.97543
2912.61447	0.97543
2910.55754	0.97527
2908.50060	0.97517
2906.44367	0.97503
2904.38674	0.97470
2902.32981	0.97443
2900.27288	0.97434
2898.21595	0.97422
2896.15902	0.97403
2894.10209	0.97392
2892.04516	0.97376
2889.98822	0.97353
2887.93129	0.97335
2885.87436	0.97336
2883.81743	0.97367
2881.76050	0.97397
2879.70357	0.97399
2877.64664	0.97397
2875.58971	0.97423
2873.53278	0.97472
2871.47584	0.97523
2869.41891	0.97581
2867.36198	0.97642
2865.30505	0.97693
2863.24812	0.97775
2861.19119	0.97898
2859.13426	0.97991
2857.07733	0.98036
2855.02040	0.98096
2852.96346	0.98182
2850.90653	0.98252
2848.84960	0.98317
2846.79267	0.98392
2844.73574	0.98453
2842.67881	0.98515
2840.62188	0.98573
2838.56495	0.98584
2836.50802	0.98568
2834.45108	0.98558
2832.39415	0.98568
2830.33722	0.98615
2828.28029	0.98671
2826.22336	0.98696
2824.16643	0.98683
2822.10950	0.98656
2820.05257	0.98668
2817.99564	0.98713
2815.93870	0.98735
2813.88177	0.98726
2811.82484	0.98721
2809.76791	0.98747
2807.71098	0.98794
2805.65405	0.98809
2803.59712	0.98771
2801.54019	0.98740
2799.48326	0.98747
2797.42632	0.98775
2795.36939	0.98815
2793.31246	0.98830
2791.25553	0.98806
2789.19860	0.98802
2787.14167	0.98847
2785.08474	0.98888
2783.02781	0.98885
2780.97088	0.98858
2778.91394	0.98861
2776.85701	0.98912
2774.80008	0.98950
2772.74315	0.98928
2770.68622	0.98907
2768.62929	0.98922
2766.57236	0.98927
2764.51543	0.98921
2762.45849	0.98920
2760.40156	0.98931
2758.34463	0.98942
2756.28770	0.98931
2754.23077	0.98912
2752.17384	0.98917
2750.11691	0.98941
2748.05998	0.98955
2746.00305	0.98954
2743.94611	0.98954
2741.88918	0.98958
2739.83225	0.98951
2737.77532	0.98943
2735.71839	0.98960
2733.66146	0.98989
2731.60453	0.98976
2729.54760	0.98923
2727.49067	0.98900
2725.43373	0.98923
2723.37680	0.98942
2721.31987	0.98938
2719.26294	0.98933
2717.20601	0.98953
2715.14908	0.98987
2713.09215	0.99004
2711.03522	0.98979
2708.97829	0.98941
2706.92135	0.98939
2704.86442	0.98966
2702.80749	0.98998
2700.75056	0.99017
2698.69363	0.99025
2696.63670	0.99032
2694.57977	0.99017
2692.52284	0.98992
2690.46591	0.98986
2688.40897	0.98994
2686.35204	0.99001
2684.29511	0.99039
2682.23818	0.99112
2680.18125	0.99155
2678.12432	0.99161
2676.06739	0.99153
2674.01046	0.99126
2671.95353	0.99106
2669.89659	0.99109
2667.83966	0.99127
2665.78273	0.99143
2663.72580	0.99127
2661.66887	0.99080
2659.61194	0.99061
2657.55501	0.99095
2655.49808	0.99109
2653.44115	0.99058
2651.38421	0.98995
2649.32728	0.98987
2647.27035	0.99026
2645.21342	0.99065
2643.15649	0.99106
2641.09956	0.99118
2639.04263	0.99081
2636.98570	0.99058
2634.92877	0.99070
2632.87183	0.99099
2630.81490	0.99124
2628.75797	0.99146
2626.70104	0.99179
2624.64411	0.99155
2622.58718	0.99081
2620.53025	0.99070
2618.47332	0.99111
2616.41639	0.99128
2614.35945	0.99141
2612.30252	0.99176
2610.24559	0.99196
2608.18866	0.99199
2606.13173	0.99213
2604.07480	0.99237
2602.01787	0.99251
2599.96094	0.99218
2597.90401	0.99173
2595.84707	0.99164
2593.79014	0.99185
2591.73321	0.99209
2589.67628	0.99171
2587.61935	0.99117
2585.56242	0.99142
2583.50549	0.99204
2581.44856	0.99255
2579.39163	0.99294
2577.33469	0.99287
2575.27776	0.99246
2573.22083	0.99245
2571.16390	0.99291
2569.10697	0.99287
2567.05004	0.99207
2564.99311	0.99161
2562.93618	0.99202
2560.87925	0.99231
2558.82231	0.99224
2556.76538	0.99234
2554.70845	0.99239
2552.65152	0.99219
2550.59459	0.99199
2548.53766	0.99219
2546.48073	0.99262
2544.42380	0.99294
2542.36687	0.99367
2540.30993	0.99431
2538.25300	0.99396
2536.19607	0.99322
2534.13914	0.99284
2532.08221	0.99257
2530.02528	0.99193
2527.96835	0.99132
2525.91142	0.99125
2523.85448	0.99175
2521.79755	0.99237
2519.74062	0.99263
2517.68369	0.99252
2515.62676	0.99216
2513.56983	0.99200
2511.51290	0.99221
2509.45597	0.99257
2507.39904	0.99275
2505.34210	0.99247
2503.28517	0.99201
2501.22824	0.99175
2499.17131	0.99189
2497.11438	0.99250
2495.05745	0.99339
2493.00052	0.99438
2490.94359	0.99483
2488.88666	0.99402
2486.82972	0.99299
2484.77279	0.99277
2482.71586	0.99284
2480.65893	0.99280
2478.60200	0.99258
2476.54507	0.99240
2474.48814	0.99287
2472.43121	0.99348
2470.37428	0.99337
2468.31734	0.99282
2466.26041	0.99244
2464.20348	0.99259
2462.14655	0.99322
2460.08962	0.99377
2458.03269	0.99367
2455.97576	0.99303
2453.91883	0.99249
2451.86190	0.99244
2449.80496	0.99293
2447.74803	0.99330
2445.69110	0.99311
2443.63417	0.99299
2441.57724	0.99292
2439.52031	0.99284
2437.46338	0.99319
2435.40645	0.99358
2433.34952	0.99394
2431.29258	0.99445
2429.23565	0.99436
2427.17872	0.99371
2425.12179	0.99336
2423.06486	0.99326
2421.00793	0.99310
2418.95100	0.99306
2416.89407	0.99306
2414.83714	0.99295
2412.78020	0.99324
2410.72327	0.99392
2408.66634	0.99418
2406.60941	0.99392
2404.55248	0.99348
2402.49555	0.99321
2400.43862	0.99330
2398.38169	0.99361
2396.32476	0.99404
2394.26782	0.99420
2392.21089	0.99384
2390.15396	0.99364
2388.09703	0.99377
2386.04010	0.99380
2383.98317	0.99386
2381.92624	0.99399
2379.86931	0.99411
2377.81238	0.99412
2375.75544	0.99393
2373.69851	0.99437
2371.64158	0.99557
2369.58465	0.99633
2367.52772	0.99560
2365.47079	0.99344
2363.41386	0.99185
2361.35693	0.99236
2359.30000	0.99379
2357.24306	0.99422
2355.18613	0.99392
2353.12920	0.99376
2351.07227	0.99360
2349.01534	0.99321
2346.95841	0.99277
2344.90148	0.99287
2342.84455	0.99343
2340.78762	0.99347
2338.73068	0.99306
2336.67375	0.99291
2334.61682	0.99296
2332.55989	0.99261
2330.50296	0.99235
2328.44603	0.99242
2326.38910	0.99200
2324.33217	0.99136
2322.27524	0.99146
2320.21830	0.99201
2318.16137	0.99173
2316.10444	0.99124
2314.04751	0.99205
2311.99058	0.99337
2309.93365	0.99387
2307.87672	0.99368
2305.81979	0.99339
2303.76286	0.99339
2301.70592	0.99346
2299.64899	0.99368
2297.59206	0.99417
2295.53513	0.99409
2293.47820	0.99362
2291.42127	0.99380
2289.36434	0.99425
2287.30741	0.99354
2285.25047	0.99203
2283.19354	0.99170
2281.13661	0.99302
2279.07968	0.99424
2277.02275	0.99418
2274.96582	0.99311
2272.90889	0.99194
2270.85196	0.99124
2268.79503	0.99109
2266.73809	0.99221
2264.68116	0.99364
2262.62423	0.99352
2260.56730	0.99292
2258.51037	0.99260
2256.45344	0.99200
2254.39651	0.99236
2252.33958	0.99389
2250.28265	0.99426
2248.22571	0.99368
2246.16878	0.99350
2244.11185	0.99333
2242.05492	0.99353
2239.99799	0.99402
2237.94106	0.99386
2235.88413	0.99381
2233.82720	0.99456
2231.77027	0.99544
2229.71333	0.99645
2227.65640	0.99708
2225.59947	0.99643
2223.54254	0.99571
2221.48561	0.99545
2219.42868	0.99449
2217.37175	0.99300
2215.31482	0.99145
2213.25789	0.99028
2211.20095	0.99060
2209.14402	0.99181
2207.08709	0.99332
2205.03016	0.99537
2202.97323	0.99612
2200.91630	0.99477
2198.85937	0.99291
2196.80244	0.99177
2194.74551	0.99155
2192.68857	0.99153
2190.63164	0.99162
2188.57471	0.99191
2186.51778	0.99220
2184.46085	0.99294
2182.40392	0.99394
2180.34699	0.99350
2178.29006	0.99239
2176.23313	0.99370
2174.17619	0.99589
2172.11926	0.99623
2170.06233	0.99591
2168.00540	0.99613
2165.94847	0.99586
2163.89154	0.99411
2161.83461	0.99276
2159.77768	0.99343
2157.72075	0.99475
2155.66381	0.99530
2153.60688	0.99464
2151.54995	0.99345
2149.49302	0.99249
2147.43609	0.99214
2145.37916	0.99268
2143.32223	0.99355
2141.26530	0.99491
2139.20837	0.99673
2137.15143	0.99755
2135.09450	0.99669
2133.03757	0.99509
2130.98064	0.99432
2128.92371	0.99446
2126.86678	0.99397
2124.80985	0.99279
2122.75292	0.99253
2120.69599	0.99301
2118.63905	0.99299
2116.58212	0.99246
2114.52519	0.99157
2112.46826	0.99157
2110.41133	0.99349
2108.35440	0.99533
2106.29747	0.99471
2104.24054	0.99249
2102.18361	0.99150
2100.12667	0.99226
2098.06974	0.99299
2096.01281	0.99291
2093.95588	0.99311
2091.89895	0.99352
2089.84202	0.99246
2087.78509	0.99045
2085.72816	0.98982
2083.67123	0.99065
2081.61429	0.99147
2079.55736	0.99218
2077.50043	0.99305
2075.44350	0.99363
2073.38657	0.99376
2071.32964	0.99418
2069.27271	0.99539
2067.21578	0.99599
2065.15885	0.99511
2063.10191	0.99491
2061.04498	0.99593
2058.98805	0.99589
2056.93112	0.99458
2054.87419	0.99408
2052.81726	0.99492
2050.76033	0.99501
2048.70340	0.99381
2046.64646	0.99295
2044.58953	0.99362
2042.53260	0.99549
2040.47567	0.99665
2038.41874	0.99586
2036.36181	0.99391
2034.30488	0.99294
2032.24795	0.99382
2030.19102	0.99543
2028.13408	0.99642
2026.07715	0.99621
2024.02022	0.99584
2021.96329	0.99630
2019.90636	0.99751
2017.84943	0.99906
2015.79250	0.99963
2013.73557	0.99837
2011.67864	0.99652
2009.62170	0.99612
2007.56477	0.99731
2005.50784	0.99793
2003.45091	0.99767
2001.39398	0.99741
1999.33705	0.99634
1997.28012	0.99456
1995.22319	0.99352
1993.16626	0.99382
1991.10932	0.99493
1989.05239	0.99503
1986.99546	0.99284
1984.93853	0.99093
1982.88160	0.99200
1980.82467	0.99437
1978.76774	0.99665
1976.71081	0.99770
1974.65388	0.99551
1972.59694	0.99298
1970.54001	0.99342
1968.48308	0.99429
1966.42615	0.99375
1964.36922	0.99399
1962.31229	0.99486
1960.25536	0.99557
1958.19843	0.99616
1956.14150	0.99619
1954.08456	0.99564
1952.02763	0.99468
1949.97070	0.99349
1947.91377	0.99327
1945.85684	0.99426
1943.79991	0.99540
1941.74298	0.99612
1939.68605	0.99565
1937.62912	0.99493
1935.57218	0.99517
1933.51525	0.99568
1931.45832	0.99601
1929.40139	0.99601
1927.34446	0.99530
1925.28753	0.99426
1923.23060	0.99383
1921.17367	0.99430
1919.11674	0.99505
1917.05980	0.99563
1915.00287	0.99594
1912.94594	0.99557
1910.88901	0.99429
1908.83208	0.99320
1906.77515	0.99330
1904.71822	0.99370
1902.66129	0.99394
1900.60436	0.99470
1898.54742	0.99569
1896.49049	0.99566
1894.43356	0.99464
1892.37663	0.99430
1890.31970	0.99485
1888.26277	0.99515
1886.20584	0.99485
1884.14891	0.99434
1882.09198	0.99415
1880.03504	0.99447
1877.97811	0.99490
1875.92118	0.99503
1873.86425	0.99498
1871.80732	0.99533
1869.75039	0.99573
1867.69346	0.99506
1865.63653	0.99438
1863.57960	0.99446
1861.52266	0.99426
1859.46573	0.99366
1857.40880	0.99338
1855.35187	0.99311
1853.29494	0.99286
1851.23801	0.99284
1849.18108	0.99293
1847.12415	0.99331
1845.06722	0.99386
1843.01028	0.99359
1840.95335	0.99272
1838.89642	0.99273
1836.83949	0.99324
1834.78256	0.99313
1832.72563	0.99261
1830.66870	0.99224
1828.61177	0.99207
1826.55484	0.99211
1824.49790	0.99218
1822.44097	0.99189
1820.38404	0.99125
1818.32711	0.99070
1816.27018	0.99036
1814.21325	0.99000
1812.15632	0.98988
1810.09939	0.98981
1808.04245	0.98955
1805.98552	0.98918
1803.92859	0.98868
1801.87166	0.98762
1799.81473	0.98633
1797.75780	0.98601
1795.70087	0.98650
1793.64394	0.98643
1791.58701	0.98545
1789.53007	0.98486
1787.47314	0.98446
1785.41621	0.98383
1783.35928	0.98266
1781.30235	0.98101
1779.24542	0.97887
1777.18849	0.97665
1775.13156	0.97455
1773.07463	0.97099
1771.01769	0.96503
1768.96076	0.95835
1766.90383	0.95036
1764.84690	0.94121
1762.78997	0.92939
1760.73304	0.91402
1758.67611	0.89959
1756.61918	0.88513
1754.56225	0.87234
1752.50531	0.86153
1750.44838	0.84785
1748.39145	0.83350
1746.33452	0.82389
1744.27759	0.81692
1742.22066	0.81034
1740.16373	0.80372
1738.10680	0.79892
1736.04987	0.79648
1733.99293	0.79202
1731.93600	0.78811
1729.87907	0.78855
1727.82214	0.79078
1725.76521	0.79455
1723.70828	0.80050
1721.65135	0.80798
1719.59442	0.81702
1717.53749	0.83036
1715.48055	0.84657
1713.42362	0.86062
1711.36669	0.87370
1709.30976	0.88647
1707.25283	0.89896
1705.19590	0.91126
1703.13897	0.92094
1701.08204	0.92930
1699.02511	0.93790
1696.96817	0.94407
1694.91124	0.94957
1692.85431	0.95413
1690.79738	0.95759
1688.74045	0.96027
1686.68352	0.96215
1684.62659	0.96378
1682.56966	0.96492
1680.51273	0.96571
1678.45579	0.96653
1676.39886	0.96725
1674.34193	0.96773
1672.28500	0.96779
1670.22807	0.96713
1668.17114	0.96640
1666.11421	0.96604
1664.05728	0.96508
1662.00035	0.96371
1659.94341	0.96294
1657.88648	0.96266
1655.82955	0.96254
1653.77262	0.96108
1651.71569	0.95876
1649.65876	0.95910
1647.60183	0.95939
1645.54490	0.95861
1643.48797	0.95849
1641.43103	0.95861
1639.37410	0.95848
1637.31717	0.95862
1635.26024	0.95945
1633.20331	0.96024
1631.14638	0.96098
1629.08945	0.96196
1627.03252	0.96304
1624.97559	0.96415
1622.91865	0.96535
1620.86172	0.96662
1618.80479	0.96798
1616.74786	0.96966
1614.69093	0.97137
1612.63400	0.97274
1610.57707	0.97380
1608.52014	0.97481
1606.46321	0.97629
1604.40627	0.97799
1602.34934	0.97917
1600.29241	0.97992
1598.23548	0.98060
1596.17855	0.98127
1594.12162	0.98197
1592.06469	0.98267
1590.00776	0.98318
1587.95083	0.98346
1585.89389	0.98373
1583.83696	0.98412
1581.78003	0.98464
1579.72310	0.98510
1577.66617	0.98533
1575.60924	0.98499
1573.55231	0.98466
1571.49538	0.98505
1569.43844	0.98557
1567.38151	0.98558
1565.32458	0.98545
1563.26765	0.98565
1561.21072	0.98630
1559.15379	0.98694
1557.09686	0.98661
1555.03993	0.98642
1552.98300	0.98631
1550.92606	0.98628
1548.86913	0.98646
1546.81220	0.98665
1544.75527	0.98667
1542.69834	0.98657
1540.64141	0.98630
1538.58448	0.98555
1536.52755	0.98533
1534.47062	0.98558
1532.41368	0.98577
1530.35675	0.98569
1528.29982	0.98554
1526.24289	0.98539
1524.18596	0.98552
1522.12903	0.98564
1520.07210	0.98567
1518.01517	0.98579
1515.95824	0.98564
1513.90130	0.98561
1511.84437	0.98567
1509.78744	0.98551
1507.73051	0.98516
1505.67358	0.98492
1503.61665	0.98504
1501.55972	0.98497
1499.50279	0.98459
1497.44586	0.98430
1495.38892	0.98427
1493.33199	0.98427
1491.27506	0.98419
1489.21813	0.98371
1487.16120	0.98292
1485.10427	0.98214
1483.04734	0.98127
1480.99041	0.98018
1478.93348	0.97894
1476.87654	0.97767
1474.81961	0.97629
1472.76268	0.97420
1470.70575	0.97194
1468.64882	0.97040
1466.59189	0.96885
1464.53496	0.96681
1462.47803	0.96486
1460.42110	0.96342
1458.36416	0.96161
1456.30723	0.95894
1454.25030	0.95757
1452.19337	0.95671
1450.13644	0.95529
1448.07951	0.95325
1446.02258	0.95097
1443.96565	0.94883
1441.90872	0.94679
1439.85178	0.94496
1437.79485	0.94297
1435.73792	0.94065
1433.68099	0.93956
1431.62406	0.93942
1429.56713	0.93950
1427.51020	0.93995
1425.45327	0.94071
1423.39634	0.94153
1421.33940	0.94230
1419.28247	0.94291
1417.22554	0.94351
1415.16861	0.94448
1413.11168	0.94540
1411.05475	0.94601
1408.99782	0.94651
1406.94089	0.94686
1404.88396	0.94678
1402.82702	0.94666
1400.77009	0.94640
1398.71316	0.94511
1396.65623	0.94257
1394.59930	0.93847
1392.54237	0.93335
1390.48544	0.92811
1388.42851	0.92103
1386.37158	0.91121
1384.31464	0.90147
1382.25771	0.89234
1380.20078	0.88324
1378.14385	0.87515
1376.08692	0.86829
1374.02999	0.86246
1371.97306	0.85959
1369.91613	0.86037
1367.85920	0.86414
1365.80226	0.87063
1363.74533	0.88015
1361.68840	0.89277
1359.63147	0.90530
1357.57454	0.91626
1355.51761	0.92571
1353.46068	0.93301
1351.40375	0.93814
1349.34682	0.94182
1347.28988	0.94458
1345.23295	0.94677
1343.17602	0.94844
1341.11909	0.94947
1339.06216	0.94992
1337.00523	0.95005
1334.94830	0.95000
1332.89137	0.94962
1330.83444	0.94887
1328.77750	0.94793
1326.72057	0.94675
1324.66364	0.94552
1322.60671	0.94452
1320.54978	0.94359
1318.49285	0.94271
1316.43592	0.94212
1314.37899	0.94182
1312.32205	0.94147
1310.26512	0.94107
1308.20819	0.94093
1306.15126	0.94098
1304.09433	0.94099
1302.03740	0.94085
1299.98047	0.94037
1297.92354	0.93956
1295.86661	0.93841
1293.80967	0.93660
1291.75274	0.93374
1289.69581	0.92995
1287.63888	0.92572
1285.58195	0.92108
1283.52502	0.91573
1281.46809	0.90956
1279.41116	0.90270
1277.35423	0.89513
1275.29729	0.88675
1273.24036	0.87779
1271.18343	0.86834
1269.12650	0.85831
1267.06957	0.84785
1265.01264	0.83706
1262.95571	0.82593
1260.89878	0.81445
1258.84185	0.80300
1256.78491	0.79214
1254.72798	0.78167
1252.67105	0.77115
1250.61412	0.76069
1248.55719	0.75077
1246.50026	0.74139
1244.44333	0.73232
1242.38640	0.72389
1240.32947	0.71626
1238.27253	0.70928
1236.21560	0.70334
1234.15867	0.69904
1232.10174	0.69671
1230.04481	0.69664
1227.98788	0.69925
1225.93095	0.70493
1223.87402	0.71393
1221.81709	0.72623
1219.76015	0.74168
1217.70322	0.75959
1215.64629	0.77869
1213.58936	0.79820
1211.53243	0.81750
1209.47550	0.83559
1207.41857	0.85207
1205.36164	0.86708
1203.30471	0.88059
1201.24777	0.89245
1199.19084	0.90283
1197.13391	0.91182
1195.07698	0.91914
1193.02005	0.92488
1190.96312	0.92891
1188.90619	0.93100
1186.84926	0.93148
1184.79233	0.93052
1182.73539	0.92811
1180.67846	0.92466
1178.62153	0.92074
1176.56460	0.91616
1174.50767	0.91087
1172.45074	0.90555
1170.39381	0.90045
1168.33688	0.89543
1166.27995	0.89042
1164.22301	0.88557
1162.16608	0.88145
1160.10915	0.87865
1158.05222	0.87746
1155.99529	0.87817
1153.93836	0.88078
1151.88143	0.88450
1149.82450	0.88831
1147.76757	0.89151
1145.71063	0.89403
1143.65370	0.89587
1141.59677	0.89642
1139.53984	0.89516
1137.48291	0.89235
1135.42598	0.88866
1133.36905	0.88453
1131.31212	0.88023
1129.25519	0.87607
1127.19825	0.87211
1125.14132	0.86844
1123.08439	0.86529
1121.02746	0.86255
1118.97053	0.86008
1116.91360	0.85792
1114.85667	0.85610
1112.79974	0.85447
1110.74281	0.85263
1108.68587	0.85029
1106.62894	0.84766
1104.57201	0.84514
1102.51508	0.84254
1100.45815	0.83922
1098.40122	0.83511
1096.34429	0.83005
1094.28736	0.82403
1092.23043	0.81738
1090.17349	0.80972
1088.11656	0.80061
1086.05963	0.79041
1084.00270	0.77998
1081.94577	0.76986
1079.88884	0.76032
1077.83191	0.75180
1075.77498	0.74391
1073.71804	0.73622
1071.66111	0.72934
1069.60418	0.72340
1067.54725	0.71761
1065.49032	0.71156
1063.43339	0.70542
1061.37646	0.69928
1059.31953	0.69310
1057.26260	0.68705
1055.20566	0.68128
1053.14873	0.67534
1051.09180	0.66903
1049.03487	0.66321
1046.97794	0.65862
1044.92101	0.65458
1042.86408	0.65043
1040.80715	0.64648
1038.75022	0.64323
1036.69328	0.64101
1034.63635	0.64022
1032.57942	0.64158
1030.52249	0.64564
1028.46556	0.65254
1026.40863	0.66205
1024.35170	0.67357
1022.29477	0.68621
1020.23784	0.69898
1018.18090	0.71151
1016.12397	0.72360
1014.06704	0.73495
1012.01011	0.74590
1009.95318	0.75653
1007.89625	0.76625
1005.83932	0.77510
1003.78239	0.78380
1001.72546	0.79273
999.66852	0.80157
997.61159	0.80979
995.55466	0.81748
993.49773	0.82510
991.44080	0.83247
989.38387	0.83899
987.32694	0.84478
985.27001	0.85022
983.21308	0.85548
981.15614	0.86096
979.09921	0.86674
977.04228	0.87242
974.98535	0.87796
972.92842	0.88368
970.87149	0.88958
968.81456	0.89534
966.75763	0.90066
964.70070	0.90527
962.64376	0.90929
960.58683	0.91270
958.52990	0.91517
956.47297	0.91701
954.41604	0.91852
952.35911	0.91981
950.30218	0.92148
948.24525	0.92350
946.18832	0.92500
944.13138	0.92575
942.07445	0.92624
940.01752	0.92667
937.96059	0.92685
935.90366	0.92685
933.84673	0.92709
931.78980	0.92761
929.73287	0.92782
927.67594	0.92713
925.61900	0.92567
923.56207	0.92412
921.50514	0.92259
919.44821	0.92045
917.39128	0.91773
915.33435	0.91503
913.27742	0.91244
911.22049	0.90954
909.16356	0.90656
907.10662	0.90465
905.04969	0.90441
902.99276	0.90530
900.93583	0.90709
898.87890	0.90969
896.82197	0.91244
894.76504	0.91490
892.70811	0.91726
890.65118	0.91959
888.59424	0.92192
886.53731	0.92495
884.48038	0.92871
882.42345	0.93213
880.36652	0.93510
878.30959	0.93844
876.25266	0.94200
874.19573	0.94492
872.13880	0.94735
870.08186	0.95011
868.02493	0.95274
865.96800	0.95438
863.91107	0.95547
861.85414	0.95624
859.79721	0.95665
857.74028	0.95704
855.68335	0.95745
853.62642	0.95755
851.56948	0.95685
849.51255	0.95573
847.45562	0.95510
845.39869	0.95484
843.34176	0.95424
841.28483	0.95334
839.22790	0.95287
837.17097	0.95336
835.11403	0.95454
833.05710	0.95555
831.00017	0.95613
828.94324	0.95650
826.88631	0.95691
824.82938	0.95736
822.77245	0.95759
820.71552	0.95789
818.65859	0.95828
816.60165	0.95815
814.54472	0.95780
812.48779	0.95785
810.43086	0.95786
808.37393	0.95728
806.31700	0.95653
804.26007	0.95618
802.20314	0.95583
800.14621	0.95536
798.08927	0.95548
796.03234	0.95566
793.97541	0.95502
791.91848	0.95446
789.86155	0.95451
787.80462	0.95460
785.74769	0.95455
783.69076	0.95455
781.63383	0.95449
779.57689	0.95436
777.51996	0.95427
775.46303	0.95396
773.40610	0.95321
771.34917	0.95237
769.29224	0.95198
767.23531	0.95171
765.17838	0.95098
763.12145	0.94996
761.06451	0.94914
759.00758	0.94896
756.95065	0.94935
754.89372	0.94935
752.83679	0.94855
750.77986	0.94752
748.72293	0.94665
746.66600	0.94624
744.60907	0.94595
742.55213	0.94485
740.49520	0.94319
738.43827	0.94199
736.38134	0.94158
734.32441	0.94127
732.26748	0.93995
730.21055	0.93775
728.15362	0.93615
726.09669	0.93554
724.03975	0.93474
721.98282	0.93307
719.92589	0.93133
717.86896	0.93018
715.81203	0.92948
713.75510	0.92929
711.69817	0.92863
709.64124	0.92632
707.58431	0.92388
705.52737	0.92325
703.47044	0.92357
701.41351	0.92330
699.35658	0.92219
697.29965	0.92087
695.24272	0.92002
693.18579	0.91913
691.12886	0.91723
689.07193	0.91471
687.01499	0.91280
684.95806	0.91169
682.90113	0.91076
680.84420	0.90926
678.78727	0.90737
676.73034	0.90663
674.67341	0.90670
672.61648	0.90667
670.55955	0.90727
668.50261	0.90692
666.44568	0.90431
664.38875	0.90249
662.33182	0.90123
660.27489	0.90029
658.21796	0.90000
656.16103	0.89908
654.10410	0.89679
652.04717	0.89476
649.99023	0.89369
647.93330	0.89229
645.87637	0.89018
643.81944	0.88770
641.76251	0.88538
639.70558	0.88381
637.64865	0.88272
635.59172	0.88138
633.53479	0.87946
631.47785	0.87733
629.42092	0.87595
627.36399	0.87442
625.30706	0.87204
623.25013	0.87074
621.19320	0.87023
619.13627	0.86829
617.07934	0.86483
615.02241	0.86050
612.96547	0.85537
610.90854	0.84971
608.85161	0.84436
606.79468	0.84047
604.73775	0.83853
602.68082	0.83830
600.62389	0.83982
598.56696	0.84263
596.51002	0.84574
594.45309	0.84934
592.39616	0.85372
590.33923	0.85764
588.28230	0.86000
586.22537	0.86093
584.16844	0.86114
582.11151	0.86227
580.05458	0.86475
577.99764	0.86574
575.94071	0.86367
573.88378	0.86112
571.82685	0.86031
569.76992	0.85985
567.71299	0.85801
565.65606	0.85530
563.59913	0.85322
561.54220	0.85313
559.48526	0.85457
557.42833	0.85540
555.37140	0.85525
553.31447	0.85608
551.25754	0.85765
549.20061	0.85721
547.14368	0.85569
545.08675	0.85609
543.02982	0.85805
540.97288	0.86003
538.91595	0.86086
536.85902	0.86011
534.80209	0.85833
532.74516	0.85696
530.68823	0.85751
528.63130	0.85941
526.57437	0.85990
524.51744	0.85818
522.46050	0.85725
520.40357	0.85717
518.34664	0.85620
516.28971	0.85502
514.23278	0.85463
512.17585	0.85432
510.11892	0.85317
508.06199	0.85185
506.00506	0.85086
503.94812	0.84967
501.89119	0.84859
499.83426	0.84792
497.77733	0.84656
495.72040	0.84496
493.66347	0.84431
491.60654	0.84348
489.54961	0.84177
487.49268	0.84027
485.43574	0.84015
483.37881	0.84021
481.32188	0.83950
479.26495	0.83988
477.20802	0.84072
475.15109	0.84020
473.09416	0.83993
471.03723	0.84086
468.98030	0.84081
466.92336	0.84046
464.86643	0.84113
462.80950	0.84043
460.75257	0.83653
458.69564	0.83336
456.63871	0.83458
454.58178	0.83665
452.52485	0.83880
450.46792	0.84157
448.41098	0.84284
446.35405	0.84241
444.29712	0.84071
442.24019	0.83969
440.18326	0.84130
438.12633	0.84171
436.06940	0.84026
434.01247	0.84131
431.95554	0.84378
429.89860	0.84534
427.84167	0.84585
425.78474	0.84461
423.72781	0.84323
421.67088	0.84421
419.61395	0.84744
417.55702	0.85017
415.50009	0.84901
413.44316	0.84580
411.38622	0.84430
409.32929	0.84514
407.27236	0.84406
405.21543	0.84096
403.15850	0.84079
401.10157	0.84489
399.04464	0.85069
