3996.57260	0.99526
3994.51569	0.99527
3992.45878	0.99485
3990.40188	0.99471
3988.34497	0.99498
3986.28806	0.99518
3984.23115	0.99454
3982.17424	0.99392
3980.11733	0.99434
3978.06043	0.99483
3976.00352	0.99469
3973.94661	0.99413
3971.88970	0.99370
3969.83279	0.99374
3967.77589	0.99395
3965.71898	0.99397
3963.66207	0.99383
3961.60516	0.99422
3959.54825	0.99494
3957.49134	0.99519
3955.43444	0.99517
3953.37753	0.99473
3951.32062	0.99448
3949.26371	0.99516
3947.20680	0.99515
3945.14990	0.99444
3943.09299	0.99442
3941.03608	0.99462
3938.97917	0.99486
3936.92226	0.99544
3934.86535	0.99573
3932.80845	0.99551
3930.75154	0.99540
3928.69463	0.99554
3926.63772	0.99586
3924.58081	0.99619
3922.52391	0.99644
3920.46700	0.99624
3918.41009	0.99557
3916.35318	0.99534
3914.29627	0.99504
3912.23936	0.99421
3910.18246	0.99391
3908.12555	0.99438
3906.06864	0.99470
3904.01173	0.99448
3901.95482	0.99435
3899.89792	0.99440
3897.84101	0.99473
3895.78410	0.99523
3893.72719	0.99587
3891.67028	0.99665
3889.61337	0.99664
3887.55647	0.99606
3885.49956	0.99552
3883.44265	0.99548
3881.38574	0.99613
3879.32883	0.99664
3877.27193	0.99633
3875.21502	0.99598
3873.15811	0.99671
3871.10120	0.99776
3869.04429	0.99792
3866.98738	0.99776
3864.93048	0.99685
3862.87357	0.99534
3860.81666	0.99502
3858.75975	0.99591
3856.70284	0.99716
3854.64594	0.99741
3852.58903	0.99598
3850.53212	0.99577
3848.47521	0.99613
3846.41830	0.99608
3844.36139	0.99577
3842.30449	0.99539
3840.24758	0.99544
3838.19067	0.99590
3836.13376	0.99604
3834.07685	0.99584
3832.01995	0.99596
3829.96304	0.99626
3827.90613	0.99596
3825.84922	0.99500
3823.79231	0.99410
3821.73540	0.99432
3819.67850	0.99537
3817.62159	0.99550
3815.56468	0.99512
3813.50777	0.99526
3811.45086	0.99587
3809.39396	0.99625
3807.33705	0.99602
3805.28014	0.99616
3803.22323	0.99695
3801.16632	0.99703
3799.10941	0.99623
3797.05251	0.99593
3794.99560	0.99621
3792.93869	0.99636
3790.88178	0.99593
3788.82487	0.99519
3786.76796	0.99478
3784.71106	0.99483
3782.65415	0.99476
3780.59724	0.99414
3778.54033	0.99370
3776.48342	0.99358
3774.42652	0.99349
3772.36961	0.99427
3770.31270	0.99542
3768.25579	0.99543
3766.19888	0.99492
3764.14197	0.99521
3762.08507	0.99567
3760.02816	0.99527
3757.97125	0.99506
3755.91434	0.99558
3753.85743	0.99536
3751.80053	0.99485
3749.74362	0.99622
3747.68671	0.99730
3745.62980	0.99668
3743.57289	0.99567
3741.51598	0.99472
3739.45908	0.99399
3737.40217	0.99421
3735.34526	0.99531
3733.28835	0.99596
3731.23144	0.99602
3729.17454	0.99596
3727.11763	0.99582
3725.06072	0.99557
3723.00381	0.99524
3720.94690	0.99489
3718.88999	0.99534
3716.83309	0.99621
3714.77618	0.99605
3712.71927	0.99515
3710.66236	0.99522
3708.60545	0.99612
3706.54855	0.99631
3704.49164	0.99553
3702.43473	0.99449
3700.37782	0.99451
3698.32091	0.99541
3696.26400	0.99613
3694.20710	0.99663
3692.15019	0.99688
3690.09328	0.99642
3688.03637	0.99549
3685.97946	0.99528
3683.92256	0.99565
3681.86565	0.99586
3679.80874	0.99509
3677.75183	0.99354
3675.69492	0.99281
3673.63801	0.99337
3671.58111	0.99366
3669.52420	0.99328
3667.46729	0.99298
3665.41038	0.99336
3663.35347	0.99394
3661.29657	0.99413
3659.23966	0.99374
3657.18275	0.99305
3655.12584	0.99269
3653.06893	0.99276
3651.01202	0.99248
3648.95512	0.99191
3646.89821	0.99215
3644.84130	0.99201
3642.78439	0.99112
3640.72748	0.98985
3638.67058	0.98901
3636.61367	0.98939
3634.55676	0.98992
3632.49985	0.98977
3630.44294	0.98937
3628.38603	0.98873
3626.32913	0.98823
3624.27222	0.98801
3622.21531	0.98813
3620.15840	0.98847
3618.10149	0.98810
3616.04459	0.98713
3613.98768	0.98688
3611.93077	0.98730
3609.87386	0.98698
3607.81695	0.98641
3605.76004	0.98666
3603.70314	0.98682
3601.64623	0.98594
3599.58932	0.98465
3597.53241	0.98451
3595.47550	0.98503
3593.41860	0.98522
3591.36169	0.98499
3589.30478	0.98437
3587.24787	0.98385
3585.19096	0.98340
3583.13405	0.98285
3581.07715	0.98273
3579.02024	0.98307
3576.96333	0.98326
3574.90642	0.98266
3572.84951	0.98178
3570.79261	0.98164
3568.73570	0.98200
3566.67879	0.98171
3564.62188	0.98051
3562.56497	0.97975
3560.50806	0.98018
3558.45116	0.98080
3556.39425	0.98033
3554.33734	0.97900
3552.28043	0.97827
3550.22352	0.97909
3548.16662	0.97961
3546.10971	0.97819
3544.05280	0.97660
3541.99589	0.97657
3539.93898	0.97705
3537.88207	0.97686
3535.82517	0.97610
3533.76826	0.97587
3531.71135	0.97630
3529.65444	0.97609
3527.59753	0.97469
3525.54063	0.97346
3523.48372	0.97340
3521.42681	0.97348
3519.36990	0.97295
3517.31299	0.97240
3515.25608	0.97195
3513.19918	0.97147
3511.14227	0.97104
3509.08536	0.97068
3507.02845	0.97074
3504.97154	0.97088
3502.91464	0.97030
3500.85773	0.96980
3498.80082	0.96996
3496.74391	0.96987
3494.68700	0.96905
3492.63009	0.96793
3490.57319	0.96722
3488.51628	0.96714
3486.45937	0.96745
3484.40246	0.96773
3482.34555	0.96715
3480.28865	0.96572
3478.23174	0.96476
3476.17483	0.96470
3474.11792	0.96500
3472.06101	0.96531
3470.00410	0.96510
3467.94720	0.96462
3465.89029	0.96438
3463.83338	0.96430
3461.77647	0.96465
3459.71956	0.96461
3457.66266	0.96356
3455.60575	0.96289
3453.54884	0.96286
3451.49193	0.96264
3449.43502	0.96252
3447.37811	0.96285
3445.32121	0.96301
3443.26430	0.96262
3441.20739	0.96234
3439.15048	0.96271
3437.09357	0.96336
3435.03667	0.96388
3432.97976	0.96403
3430.92285	0.96374
3428.86594	0.96349
3426.80903	0.96339
3424.75212	0.96329
3422.69522	0.96327
3420.63831	0.96308
3418.58140	0.96288
3416.52449	0.96334
3414.46758	0.96424
3412.41068	0.96477
3410.35377	0.96455
3408.29686	0.96369
3406.23995	0.96310
3404.18304	0.96349
3402.12613	0.96425
3400.06923	0.96482
3398.01232	0.96502
3395.95541	0.96509
3393.89850	0.96513
3391.84159	0.96507
3389.78469	0.96517
3387.72778	0.96515
3385.67087	0.96482
3383.61396	0.96452
3381.55705	0.96458
3379.50014	0.96489
3377.44324	0.96494
3375.38633	0.96477
3373.32942	0.96468
3371.27251	0.96481
3369.21560	0.96500
3367.15870	0.96496
3365.10179	0.96493
3363.04488	0.96517
3360.98797	0.96542
3358.93106	0.96553
3356.87415	0.96556
3354.81725	0.96557
3352.76034	0.96570
3350.70343	0.96612
3348.64652	0.96653
3346.58961	0.96680
3344.53271	0.96682
3342.47580	0.96641
3340.41889	0.96598
3338.36198	0.96579
3336.30507	0.96568
3334.24816	0.96560
3332.19126	0.96577
3330.13435	0.96604
3328.07744	0.96631
3326.02053	0.96700
3323.96362	0.96767
3321.90672	0.96750
3319.84981	0.96688
3317.79290	0.96670
3315.73599	0.96670
3313.67908	0.96645
3311.62217	0.96632
3309.56527	0.96669
3307.50836	0.96745
3305.45145	0.96792
3303.39454	0.96759
3301.33763	0.96728
3299.28073	0.96760
3297.22382	0.96807
3295.16691	0.96847
3293.11000	0.96857
3291.05309	0.96833
3288.99618	0.96817
3286.93928	0.96824
3284.88237	0.96855
3282.82546	0.96864
3280.76855	0.96835
3278.71164	0.96815
3276.65474	0.96841
3274.59783	0.96884
3272.54092	0.96873
3270.48401	0.96808
3268.42710	0.96776
3266.37019	0.96822
3264.31329	0.96899
3262.25638	0.96927
3260.19947	0.96883
3258.14256	0.96862
3256.08565	0.96924
3254.02875	0.97001
3251.97184	0.97042
3249.91493	0.97037
3247.85802	0.96994
3245.80111	0.96949
3243.74420	0.96933
3241.68730	0.96942
3239.63039	0.96985
3237.57348	0.97031
3235.51657	0.97044
3233.45966	0.97088
3231.40276	0.97165
3229.34585	0.97183
3227.28894	0.97136
3225.23203	0.97107
3223.17512	0.97139
3221.11821	0.97184
3219.06131	0.97203
3217.00440	0.97219
3214.94749	0.97251
3212.89058	0.97257
3210.83367	0.97215
3208.77677	0.97207
3206.71986	0.97266
3204.66295	0.97318
3202.60604	0.97351
3200.54913	0.97395
3198.49222	0.97422
3196.43532	0.97421
3194.37841	0.97450
3192.32150	0.97497
3190.26459	0.97502
3188.20768	0.97458
3186.15078	0.97407
3184.09387	0.97406
3182.03696	0.97469
3179.98005	0.97530
3177.92314	0.97559
3175.86623	0.97611
3173.80933	0.97663
3171.75242	0.97648
3169.69551	0.97630
3167.63860	0.97681
3165.58169	0.97725
3163.52479	0.97722
3161.46788	0.97745
3159.41097	0.97798
3157.35406	0.97825
3155.29715	0.97828
3153.24024	0.97838
3151.18334	0.97836
3149.12643	0.97797
3147.06952	0.97776
3145.01261	0.97834
3142.95570	0.97926
3140.89880	0.97953
3138.84189	0.97890
3136.78498	0.97826
3134.72807	0.97844
3132.67116	0.97909
3130.61425	0.97983
3128.55735	0.98054
3126.50044	0.98075
3124.44353	0.98039
3122.38662	0.98026
3120.32971	0.98107
3118.27281	0.98187
3116.21590	0.98165
3114.15899	0.98098
3112.10208	0.98064
3110.04517	0.98080
3107.98826	0.98126
3105.93136	0.98174
3103.87445	0.98225
3101.81754	0.98266
3099.76063	0.98282
3097.70372	0.98269
3095.64682	0.98224
3093.58991	0.98194
3091.53300	0.98203
3089.47609	0.98215
3087.41918	0.98240
3085.36227	0.98274
3083.30537	0.98271
3081.24846	0.98270
3079.19155	0.98287
3077.13464	0.98299
3075.07773	0.98329
3073.02083	0.98358
3070.96392	0.98381
3068.90701	0.98412
3066.85010	0.98412
3064.79319	0.98392
3062.73628	0.98417
3060.67938	0.98474
3058.62247	0.98504
3056.56556	0.98494
3054.50865	0.98481
3052.45174	0.98486
3050.39484	0.98499
3048.33793	0.98497
3046.28102	0.98493
3044.22411	0.98504
3042.16720	0.98488
3040.11029	0.98434
3038.05339	0.98383
3035.99648	0.98367
3033.93957	0.98380
3031.88266	0.98375
3029.82575	0.98348
3027.76885	0.98323
3025.71194	0.98296
3023.65503	0.98261
3021.59812	0.98236
3019.54121	0.98218
3017.48430	0.98194
3015.42740	0.98193
3013.37049	0.98226
3011.31358	0.98259
3009.25667	0.98302
3007.19976	0.98319
3005.14286	0.98258
3003.08595	0.98167
3001.02904	0.98122
2998.97213	0.98141
2996.91522	0.98192
2994.85831	0.98262
2992.80141	0.98297
2990.74450	0.98257
2988.68759	0.98205
2986.63068	0.98159
2984.57377	0.98123
2982.51687	0.98130
2980.45996	0.98164
2978.40305	0.98177
2976.34614	0.98122
2974.28923	0.97990
2972.23232	0.97853
2970.17542	0.97772
2968.11851	0.97727
2966.06160	0.97681
2964.00469	0.97649
2961.94778	0.97626
2959.89088	0.97552
2957.83397	0.97458
2955.77706	0.97408
2953.72015	0.97399
2951.66324	0.97393
2949.60633	0.97365
2947.54943	0.97337
2945.49252	0.97311
2943.43561	0.97251
2941.37870	0.97198
2939.32179	0.97187
2937.26489	0.97177
2935.20798	0.97165
2933.15107	0.97186
2931.09416	0.97231
2929.03725	0.97241
2926.98034	0.97224
2924.92344	0.97249
2922.86653	0.97287
2920.80962	0.97252
2918.75271	0.97173
2916.69580	0.97145
2914.63890	0.97186
2912.58199	0.97261
2910.52508	0.97307
2908.46817	0.97295
2906.41126	0.97264
2904.35435	0.97269
2902.29745	0.97304
2900.24054	0.97304
2898.18363	0.97272
2896.12672	0.97255
2894.06981	0.97235
2892.01291	0.97212
2889.95600	0.97223
2887.89909	0.97231
2885.84218	0.97197
2883.78527	0.97152
2881.72836	0.97133
2879.67146	0.97148
2877.61455	0.97199
2875.55764	0.97277
2873.50073	0.97341
2871.44382	0.97372
2869.38692	0.97401
2867.33001	0.97457
2865.27310	0.97527
2863.21619	0.97580
2861.15928	0.97616
2859.10237	0.97666
2857.04547	0.97757
2854.98856	0.97874
2852.93165	0.97977
2850.87474	0.98049
2848.81783	0.98104
2846.76093	0.98148
2844.70402	0.98173
2842.64711	0.98209
2840.59020	0.98295
2838.53329	0.98375
2836.47638	0.98398
2834.41948	0.98387
2832.36257	0.98370
2830.30566	0.98376
2828.24875	0.98418
2826.19184	0.98454
2824.13494	0.98457
2822.07803	0.98480
2820.02112	0.98536
2817.96421	0.98562
2815.90730	0.98567
2813.85039	0.98593
2811.79349	0.98595
2809.73658	0.98565
2807.67967	0.98561
2805.62276	0.98589
2803.56585	0.98617
2801.50895	0.98649
2799.45204	0.98676
2797.39513	0.98676
2795.33822	0.98675
2793.28131	0.98682
2791.22440	0.98660
2789.16750	0.98616
2787.11059	0.98634
2785.05368	0.98714
2782.99677	0.98765
2780.93986	0.98763
2778.88296	0.98748
2776.82605	0.98746
2774.76914	0.98777
2772.71223	0.98789
2770.65532	0.98747
2768.59841	0.98713
2766.54151	0.98720
2764.48460	0.98744
2762.42769	0.98785
2760.37078	0.98843
2758.31387	0.98884
2756.25697	0.98877
2754.20006	0.98829
2752.14315	0.98779
2750.08624	0.98773
2748.02933	0.98799
2745.97242	0.98826
2743.91552	0.98866
2741.85861	0.98891
2739.80170	0.98864
2737.74479	0.98815
2735.68788	0.98791
2733.63098	0.98790
2731.57407	0.98807
2729.51716	0.98828
2727.46025	0.98844
2725.40334	0.98862
2723.34643	0.98871
2721.28953	0.98866
2719.23262	0.98846
2717.17571	0.98814
2715.11880	0.98790
2713.06189	0.98789
2711.00499	0.98815
2708.94808	0.98851
2706.89117	0.98884
2704.83426	0.98908
2702.77735	0.98896
2700.72044	0.98848
2698.66354	0.98823
2696.60663	0.98843
2694.54972	0.98879
2692.49281	0.98904
2690.43590	0.98899
2688.37900	0.98905
2686.32209	0.98939
2684.26518	0.98953
2682.20827	0.98944
2680.15136	0.98947
2678.09445	0.98963
2676.03755	0.98973
2673.98064	0.98956
2671.92373	0.98930
2669.86682	0.98922
2667.80991	0.98921
2665.75301	0.98940
2663.69610	0.98980
2661.63919	0.98987
2659.58228	0.98959
2657.52537	0.98923
2655.46846	0.98901
2653.41156	0.98934
2651.35465	0.98995
2649.29774	0.99007
2647.24083	0.98992
2645.18392	0.98986
2643.12702	0.99006
2641.07011	0.99061
2639.01320	0.99094
2636.95629	0.99080
2634.89938	0.99070
2632.84247	0.99099
2630.78557	0.99131
2628.72866	0.99113
2626.67175	0.99061
2624.61484	0.99026
2622.55793	0.99003
2620.50103	0.98977
2618.44412	0.98959
2616.38721	0.98963
2614.33030	0.98975
2612.27339	0.98979
2610.21648	0.99007
2608.15958	0.99062
2606.10267	0.99112
2604.04576	0.99142
2601.98885	0.99155
2599.93194	0.99182
2597.87504	0.99196
2595.81813	0.99154
2593.76122	0.99090
2591.70431	0.99073
2589.64740	0.99100
2587.59049	0.99112
2585.53359	0.99104
2583.47668	0.99094
2581.41977	0.99077
2579.36286	0.99092
2577.30595	0.99128
2575.24905	0.99150
2573.19214	0.99181
2571.13523	0.99201
2569.07832	0.99181
2567.02141	0.99162
2564.96450	0.99155
2562.90760	0.99169
2560.85069	0.99227
2558.79378	0.99239
2556.73687	0.99205
2554.67996	0.99211
2552.62306	0.99200
2550.56615	0.99146
2548.50924	0.99134
2546.45233	0.99178
2544.39542	0.99210
2542.33851	0.99222
2540.28161	0.99229
2538.22470	0.99196
2536.16779	0.99156
2534.11088	0.99146
2532.05397	0.99136
2529.99707	0.99116
2527.94016	0.99119
2525.88325	0.99189
2523.82634	0.99279
2521.76943	0.99304
2519.71252	0.99289
2517.65562	0.99270
2515.59871	0.99217
2513.54180	0.99164
2511.48489	0.99162
2509.42798	0.99153
2507.37108	0.99145
2505.31417	0.99213
2503.25726	0.99264
2501.20035	0.99224
2499.14344	0.99187
2497.08653	0.99210
2495.02963	0.99234
2492.97272	0.99196
2490.91581	0.99149
2488.85890	0.99143
2486.80199	0.99191
2484.74509	0.99283
2482.68818	0.99316
2480.63127	0.99320
2478.57436	0.99348
2476.51745	0.99327
2474.46054	0.99296
2472.40364	0.99285
2470.34673	0.99260
2468.28982	0.99255
2466.23291	0.99246
2464.17600	0.99216
2462.11910	0.99210
2460.06219	0.99168
2458.00528	0.99104
2455.94837	0.99091
2453.89146	0.99108
2451.83455	0.99137
2449.77765	0.99139
2447.72074	0.99131
2445.66383	0.99166
2443.60692	0.99201
2441.55001	0.99188
2439.49311	0.99156
2437.43620	0.99170
2435.37929	0.99214
2433.32238	0.99239
2431.26547	0.99234
2429.20856	0.99215
2427.15166	0.99217
2425.09475	0.99219
2423.03784	0.99205
2420.98093	0.99213
2418.92402	0.99241
2416.86712	0.99248
2414.81021	0.99233
2412.75330	0.99215
2410.69639	0.99210
2408.63948	0.99227
2406.58257	0.99237
2404.52567	0.99214
2402.46876	0.99192
2400.41185	0.99224
2398.35494	0.99281
2396.29803	0.99296
2394.24113	0.99292
2392.18422	0.99338
2390.12731	0.99400
2388.07040	0.99392
2386.01349	0.99335
2383.95658	0.99293
2381.89968	0.99301
2379.84277	0.99355
2377.78586	0.99382
2375.72895	0.99305
2373.67204	0.99173
2371.61514	0.99134
2369.55823	0.99213
2367.50132	0.99271
2365.44441	0.99296
2363.38750	0.99314
2361.33059	0.99292
2359.27369	0.99312
2357.21678	0.99333
2355.15987	0.99252
2353.10296	0.99162
2351.04605	0.99140
2348.98915	0.99146
2346.93224	0.99163
2344.87533	0.99162
2342.81842	0.99134
2340.76151	0.99187
2338.70460	0.99282
2336.64770	0.99300
2334.59079	0.99303
2332.53388	0.99308
2330.47697	0.99238
2328.42006	0.99133
2326.36316	0.99063
2324.30625	0.99073
2322.24934	0.99160
2320.19243	0.99234
2318.13552	0.99228
2316.07861	0.99166
2314.02171	0.99163
2311.96480	0.99218
2309.90789	0.99230
2307.85098	0.99197
2305.79407	0.99160
2303.73717	0.99157
2301.68026	0.99202
2299.62335	0.99199
2297.56644	0.99109
2295.50953	0.99065
2293.45262	0.99127
2291.39572	0.99183
2289.33881	0.99116
2287.28190	0.99016
2285.22499	0.99046
2283.16808	0.99124
2281.11117	0.99135
2279.05427	0.99127
2276.99736	0.99153
2274.94045	0.99161
2272.88354	0.99118
2270.82663	0.99126
2268.76973	0.99158
2266.71282	0.99117
2264.65591	0.99121
2262.59900	0.99202
2260.54209	0.99223
2258.48518	0.99224
2256.42828	0.99303
2254.37137	0.99377
2252.31446	0.99381
2250.25755	0.99342
2248.20064	0.99250
2246.14374	0.99187
2244.08683	0.99221
2242.02992	0.99234
2239.97301	0.99233
2237.91610	0.99266
2235.85919	0.99256
2233.80229	0.99177
2231.74538	0.99067
2229.68847	0.99004
2227.63156	0.99064
2225.57465	0.99217
2223.51775	0.99360
2221.46084	0.99391
2219.40393	0.99251
2217.34702	0.99091
2215.29011	0.99111
2213.23320	0.99201
2211.17630	0.99284
2209.11939	0.99363
2207.06248	0.99308
2205.00557	0.99068
2202.94866	0.98787
2200.89176	0.98788
2198.83485	0.98990
2196.77794	0.99028
2194.72103	0.99035
2192.66412	0.99157
2190.60721	0.99268
2188.55031	0.99266
2186.49340	0.99168
2184.43649	0.99101
2182.37958	0.99142
2180.32267	0.99261
2178.26577	0.99291
2176.20886	0.99206
2174.15195	0.99199
2172.09504	0.99282
2170.03813	0.99298
2167.98122	0.99172
2165.92432	0.99048
2163.86741	0.98962
2161.81050	0.98921
2159.75359	0.99167
2157.69668	0.99468
2155.63978	0.99541
2153.58287	0.99514
2151.52596	0.99561
2149.46905	0.99718
2147.41214	0.99687
2145.35523	0.99444
2143.29833	0.99254
2141.24142	0.99178
2139.18451	0.99233
2137.12760	0.99393
2135.07069	0.99541
2133.01379	0.99608
2130.95688	0.99531
2128.89997	0.99302
2126.84306	0.99141
2124.78615	0.99125
2122.72924	0.99068
2120.67234	0.99002
2118.61543	0.99035
2116.55852	0.99121
2114.50161	0.99214
2112.44470	0.99243
2110.38780	0.99218
2108.33089	0.99219
2106.27398	0.99204
2104.21707	0.99157
2102.16016	0.99124
2100.10325	0.99157
2098.04635	0.99224
2095.98944	0.99199
2093.93253	0.99157
2091.87562	0.99183
2089.81871	0.99145
2087.76181	0.99057
2085.70490	0.99067
2083.64799	0.99131
2081.59108	0.99133
2079.53417	0.99123
2077.47726	0.99214
2075.42036	0.99362
2073.36345	0.99371
2071.30654	0.99195
2069.24963	0.99081
2067.19272	0.99140
2065.13582	0.99190
2063.07891	0.99197
2061.02200	0.99215
2058.96509	0.99239
2056.90818	0.99308
2054.85127	0.99332
2052.79437	0.99247
2050.73746	0.99239
2048.68055	0.99329
2046.62364	0.99322
2044.56673	0.99319
2042.50983	0.99403
2040.45292	0.99376
2038.39601	0.99308
2036.33910	0.99379
2034.28219	0.99483
2032.22528	0.99437
2030.16838	0.99295
2028.11147	0.99257
2026.05456	0.99268
2023.99765	0.99162
2021.94074	0.99035
2019.88384	0.99128
2017.82693	0.99375
2015.77002	0.99386
2013.71311	0.99132
2011.65620	0.98955
2009.59929	0.99001
2007.54239	0.99196
2005.48548	0.99459
2003.42857	0.99622
2001.37166	0.99637
1999.31475	0.99618
1997.25785	0.99535
1995.20094	0.99395
1993.14403	0.99351
1991.08712	0.99434
1989.03021	0.99422
1986.97330	0.99233
1984.91640	0.99054
1982.85949	0.98974
1980.80258	0.99029
1978.74567	0.99323
1976.68876	0.99664
1974.63186	0.99669
1972.57495	0.99455
1970.51804	0.99449
1968.46113	0.99692
1966.40422	0.99691
1964.34731	0.99367
1962.29041	0.99240
1960.23350	0.99385
1958.17659	0.99573
1956.11968	0.99704
1954.06277	0.99663
1952.00587	0.99553
1949.94896	0.99530
1947.89205	0.99421
1945.83514	0.99172
1943.77823	0.99002
1941.72132	0.99000
1939.66442	0.99081
1937.60751	0.99198
1935.55060	0.99335
1933.49369	0.99436
1931.43678	0.99459
1929.37988	0.99384
1927.32297	0.99294
1925.26606	0.99312
1923.20915	0.99369
1921.15224	0.99366
1919.09533	0.99330
1917.03843	0.99299
1914.98152	0.99284
1912.92461	0.99293
1910.86770	0.99334
1908.81079	0.99372
1906.75389	0.99400
1904.69698	0.99395
1902.64007	0.99349
1900.58316	0.99343
1898.52625	0.99368
1896.46934	0.99378
1894.41244	0.99411
1892.35553	0.99408
1890.29862	0.99348
1888.24171	0.99309
1886.18480	0.99298
1884.12790	0.99325
1882.07099	0.99352
1880.01408	0.99337
1877.95717	0.99337
1875.90026	0.99389
1873.84335	0.99405
1871.78645	0.99347
1869.72954	0.99309
1867.67263	0.99353
1865.61572	0.99431
1863.55881	0.99441
1861.50191	0.99379
1859.44500	0.99313
1857.38809	0.99309
1855.33118	0.99341
1853.27427	0.99339
1851.21736	0.99332
1849.16046	0.99335
1847.10355	0.99301
1845.04664	0.99318
1842.98973	0.99416
1840.93282	0.99413
1838.87592	0.99333
1836.81901	0.99262
1834.76210	0.99236
1832.70519	0.99235
1830.64828	0.99230
1828.59137	0.99215
1826.53447	0.99199
1824.47756	0.99169
1822.42065	0.99112
1820.36374	0.99081
1818.30683	0.99090
1816.24993	0.99089
1814.19302	0.99081
1812.13611	0.99081
1810.07920	0.99041
1808.02229	0.99009
1805.96538	0.99010
1803.90848	0.98975
1801.85157	0.98885
1799.79466	0.98802
1797.73775	0.98776
1795.68084	0.98761
1793.62394	0.98714
1791.56703	0.98636
1789.51012	0.98602
1787.45321	0.98606
1785.39630	0.98574
1783.33939	0.98462
1781.28249	0.98337
1779.22558	0.98245
1777.16867	0.98169
1775.11176	0.98035
1773.05485	0.97739
1770.99795	0.97309
1768.94104	0.96856
1766.88413	0.96280
1764.82722	0.95589
1762.77031	0.94675
1760.71340	0.93433
1758.65650	0.92194
1756.59959	0.90941
1754.54268	0.89834
1752.48577	0.88927
1750.42886	0.87934
1748.37196	0.86945
1746.31505	0.86159
1744.25814	0.85520
1742.20123	0.84993
1740.14432	0.84532
1738.08741	0.84231
1736.03051	0.84151
1733.97360	0.84127
1731.91669	0.84282
1729.85978	0.84664
1727.80287	0.85146
1725.74597	0.85742
1723.68906	0.86510
1721.63215	0.87341
1719.57524	0.88213
1717.51833	0.89333
1715.46142	0.90559
1713.40452	0.91578
1711.34761	0.92447
1709.29070	0.93206
1707.23379	0.93915
1705.17688	0.94616
1703.11998	0.95172
1701.06307	0.95580
1699.00616	0.95923
1696.94925	0.96234
1694.89234	0.96543
1692.83543	0.96741
1690.77853	0.96875
1688.72162	0.97015
1686.66471	0.97143
1684.60780	0.97283
1682.55089	0.97340
1680.49399	0.97326
1678.43708	0.97350
1676.38017	0.97408
1674.32326	0.97440
1672.26635	0.97410
1670.20944	0.97331
1668.15254	0.97268
1666.09563	0.97286
1664.03872	0.97332
1661.98181	0.97344
1659.92490	0.97314
1657.86800	0.97296
1655.81109	0.97283
1653.75418	0.97190
1651.69727	0.97091
1649.64036	0.97124
1647.58345	0.97155
1645.52655	0.97140
1643.46964	0.97157
1641.41273	0.97192
1639.35582	0.97197
1637.29891	0.97152
1635.24201	0.97062
1633.18510	0.97021
1631.12819	0.97022
1629.07128	0.97014
1627.01437	0.97010
1624.95746	0.97004
1622.90056	0.96945
1620.84365	0.96867
1618.78674	0.96795
1616.72983	0.96679
1614.67292	0.96607
1612.61602	0.96592
1610.55911	0.96520
1608.50220	0.96387
1606.44529	0.96278
1604.38838	0.96198
1602.33147	0.96082
1600.27457	0.95913
1598.21766	0.95738
1596.16075	0.95577
1594.10384	0.95411
1592.04693	0.95248
1589.99003	0.95108
1587.93312	0.94960
1585.87621	0.94787
1583.81930	0.94630
1581.76239	0.94530
1579.70548	0.94496
1577.64858	0.94456
1575.59167	0.94336
1573.53476	0.94268
1571.47785	0.94279
1569.42094	0.94310
1567.36404	0.94370
1565.30713	0.94421
1563.25022	0.94451
1561.19331	0.94514
1559.13640	0.94585
1557.07949	0.94626
1555.02259	0.94722
1552.96568	0.94822
1550.90877	0.94894
1548.85186	0.94968
1546.79495	0.95083
1544.73805	0.95225
1542.68114	0.95337
1540.62423	0.95415
1538.56732	0.95493
1536.51041	0.95532
1534.45350	0.95502
1532.39660	0.95391
1530.33969	0.95267
1528.28278	0.95103
1526.22587	0.94829
1524.16896	0.94535
1522.11206	0.94233
1520.05515	0.93967
1517.99824	0.93905
1515.94133	0.94000
1513.88442	0.94213
1511.82751	0.94511
1509.77061	0.94859
1507.71370	0.95302
1505.65679	0.95759
1503.59988	0.96028
1501.54297	0.96259
1499.48607	0.96487
1497.42916	0.96689
1495.37225	0.96845
1493.31534	0.96967
1491.25843	0.97076
1489.20152	0.97105
1487.14462	0.97017
1485.08771	0.96904
1483.03080	0.96779
1480.97389	0.96614
1478.91698	0.96434
1476.86008	0.96266
1474.80317	0.96086
1472.74626	0.95835
1470.68935	0.95617
1468.63244	0.95518
1466.57553	0.95399
1464.51863	0.95189
1462.46172	0.95017
1460.40481	0.94917
1458.34790	0.94781
1456.29099	0.94606
1454.23409	0.94552
1452.17718	0.94540
1450.12027	0.94503
1448.06336	0.94415
1446.00645	0.94288
1443.94954	0.94162
1441.89264	0.94026
1439.83573	0.93895
1437.77882	0.93755
1435.72191	0.93613
1433.66500	0.93590
1431.60810	0.93600
1429.55119	0.93533
1427.49428	0.93428
1425.43737	0.93339
1423.38046	0.93257
1421.32355	0.93215
1419.26665	0.93209
1417.20974	0.93186
1415.15283	0.93137
1413.09592	0.93024
1411.03901	0.92795
1408.98211	0.92498
1406.92520	0.92200
1404.86829	0.91861
1402.81138	0.91550
1400.75447	0.91335
1398.69756	0.91140
1396.64066	0.91001
1394.58375	0.90978
1392.52684	0.91015
1390.46993	0.91012
1388.41302	0.90843
1386.35612	0.90447
1384.29921	0.89962
1382.24230	0.89444
1380.18539	0.88897
1378.12848	0.88374
1376.07157	0.87889
1374.01467	0.87406
1371.95776	0.87055
1369.90085	0.86924
1367.84394	0.86993
1365.78703	0.87311
1363.73013	0.87942
1361.67322	0.88890
1359.61631	0.89919
1357.55940	0.90871
1355.50249	0.91726
1353.44558	0.92451
1351.38868	0.92995
1349.33177	0.93339
1347.27486	0.93527
1345.21795	0.93637
1343.16104	0.93730
1341.10414	0.93850
1339.04723	0.94015
1336.99032	0.94168
1334.93341	0.94280
1332.87650	0.94384
1330.81959	0.94473
1328.76269	0.94535
1326.70578	0.94569
1324.64887	0.94577
1322.59196	0.94569
1320.53505	0.94527
1318.47815	0.94466
1316.42124	0.94455
1314.36433	0.94519
1312.30742	0.94625
1310.25051	0.94747
1308.19360	0.94872
1306.13670	0.94974
1304.07979	0.95045
1302.02288	0.95115
1299.96597	0.95192
1297.90906	0.95222
1295.85216	0.95166
1293.79525	0.95053
1291.73834	0.94943
1289.68143	0.94852
1287.62452	0.94747
1285.56761	0.94616
1283.51071	0.94455
1281.45380	0.94238
1279.39689	0.93964
1277.33998	0.93660
1275.28307	0.93319
1273.22617	0.92925
1271.16926	0.92476
1269.11235	0.91963
1267.05544	0.91415
1264.99853	0.90880
1262.94162	0.90332
1260.88472	0.89703
1258.82781	0.89010
1256.77090	0.88316
1254.71399	0.87622
1252.65708	0.86919
1250.60018	0.86206
1248.54327	0.85463
1246.48636	0.84695
1244.42945	0.83921
1242.37254	0.83155
1240.31563	0.82425
1238.25873	0.81711
1236.20182	0.80989
1234.14491	0.80292
1232.08800	0.79661
1230.03109	0.79121
1227.97419	0.78686
1225.91728	0.78378
1223.86037	0.78224
1221.80346	0.78254
1219.74655	0.78480
1217.68964	0.78934
1215.63274	0.79627
1213.57583	0.80533
1211.51892	0.81617
1209.46201	0.82824
1207.40510	0.84112
1205.34820	0.85428
1203.29129	0.86706
1201.23438	0.87937
1199.17747	0.89109
1197.12056	0.90167
1195.06365	0.91069
1193.00675	0.91807
1190.94984	0.92384
1188.89293	0.92788
1186.83602	0.93004
1184.77911	0.93058
1182.72221	0.92975
1180.66530	0.92785
1178.60839	0.92535
1176.55148	0.92234
1174.49457	0.91870
1172.43766	0.91446
1170.38076	0.90980
1168.32385	0.90483
1166.26694	0.90005
1164.21003	0.89623
1162.15312	0.89382
1160.09622	0.89296
1158.03931	0.89357
1155.98240	0.89531
1153.92549	0.89787
1151.86858	0.90100
1149.81167	0.90444
1147.75477	0.90767
1145.69786	0.91024
1143.64095	0.91190
1141.58404	0.91242
1139.52713	0.91198
1137.47023	0.91101
1135.41332	0.90965
1133.35641	0.90779
1131.29950	0.90558
1129.24259	0.90314
1127.18568	0.90067
1125.12878	0.89869
1123.07187	0.89698
1121.01496	0.89540
1118.95805	0.89453
1116.90114	0.89422
1114.84424	0.89379
1112.78733	0.89336
1110.73042	0.89319
1108.67351	0.89304
1106.61660	0.89268
1104.55969	0.89204
1102.50279	0.89119
1100.44588	0.89014
1098.38897	0.88869
1096.33206	0.88682
1094.27515	0.88452
1092.21825	0.88141
1090.16134	0.87725
1088.10443	0.87230
1086.04752	0.86709
1083.99061	0.86192
1081.93370	0.85666
1079.87680	0.85132
1077.81989	0.84614
1075.76298	0.84112
1073.70607	0.83654
1071.64916	0.83262
1069.59226	0.82890
1067.53535	0.82489
1065.47844	0.82056
1063.42153	0.81629
1061.36462	0.81217
1059.30771	0.80792
1057.25081	0.80378
1055.19390	0.80001
1053.13699	0.79646
1051.08008	0.79285
1049.02317	0.78907
1046.96627	0.78541
1044.90936	0.78198
1042.85245	0.77862
1040.79554	0.77525
1038.73863	0.77191
1036.68172	0.76840
1034.62482	0.76477
1032.56791	0.76154
1030.51100	0.75892
1028.45409	0.75684
1026.39718	0.75575
1024.34028	0.75587
1022.28337	0.75639
1020.22646	0.75702
1018.16955	0.75801
1016.11264	0.75936
1014.05573	0.76112
1011.99883	0.76364
1009.94192	0.76685
1007.88501	0.77070
1005.82810	0.77531
1003.77119	0.78043
1001.71429	0.78554
999.65738	0.79004
997.60047	0.79410
995.54356	0.79843
993.48665	0.80295
991.42974	0.80755
989.37284	0.81217
987.31593	0.81666
985.25902	0.82152
983.20211	0.82721
981.14520	0.83322
979.08830	0.83918
977.03139	0.84500
974.97448	0.85052
972.91757	0.85586
970.86066	0.86111
968.80375	0.86598
966.74685	0.86998
964.68994	0.87295
962.63303	0.87470
960.57612	0.87449
958.51921	0.87181
956.46231	0.86769
954.40540	0.86416
952.34849	0.86264
950.29158	0.86372
948.23467	0.86723
946.17776	0.87218
944.12086	0.87741
942.06395	0.88179
940.00704	0.88478
937.95013	0.88695
935.89322	0.88909
933.83632	0.89133
931.77941	0.89340
929.72250	0.89542
927.66559	0.89738
925.60868	0.89883
923.55177	0.89972
921.49487	0.90014
919.43796	0.90004
917.38105	0.89914
915.32414	0.89749
913.26723	0.89573
911.21033	0.89383
909.15342	0.89163
907.09651	0.88958
905.03960	0.88779
902.98269	0.88620
900.92578	0.88515
898.86888	0.88431
896.81197	0.88333
894.75506	0.88339
892.69815	0.88534
890.64124	0.88855
888.58434	0.89248
886.52743	0.89685
884.47052	0.90135
882.41361	0.90580
880.35670	0.91001
878.29979	0.91377
876.24289	0.91743
874.18598	0.92133
872.12907	0.92522
870.07216	0.92894
868.01525	0.93203
865.95835	0.93414
863.90144	0.93574
861.84453	0.93739
859.78762	0.93900
857.73071	0.94015
855.67380	0.94102
853.61690	0.94178
851.55999	0.94228
849.50308	0.94230
847.44617	0.94163
845.38926	0.94099
843.33236	0.94122
841.27545	0.94203
839.21854	0.94276
837.16163	0.94295
835.10472	0.94253
833.04781	0.94257
830.99091	0.94370
828.93400	0.94557
826.87709	0.94777
824.82018	0.94898
822.76327	0.94853
820.70637	0.94759
818.64946	0.94719
816.59255	0.94739
814.53564	0.94806
812.47873	0.94877
810.42182	0.94882
808.36492	0.94843
806.30801	0.94788
804.25110	0.94674
802.19419	0.94456
800.13728	0.94205
798.08038	0.94044
796.02347	0.93931
793.96656	0.93788
791.90965	0.93669
789.85274	0.93657
787.79583	0.93749
785.73893	0.93879
783.68202	0.93988
781.62511	0.94062
779.56820	0.94148
777.51129	0.94288
775.45439	0.94433
773.39748	0.94504
771.34057	0.94501
769.28366	0.94511
767.22675	0.94538
765.16984	0.94543
763.11294	0.94551
761.05603	0.94589
758.99912	0.94640
756.94221	0.94638
754.88530	0.94581
752.82839	0.94544
750.77149	0.94549
748.71458	0.94530
746.65767	0.94450
744.60076	0.94391
742.54385	0.94405
740.48695	0.94423
738.43004	0.94407
736.37313	0.94364
734.31622	0.94313
732.25931	0.94259
730.20240	0.94181
728.14550	0.94117
726.08859	0.94095
724.03168	0.94028
721.97477	0.93872
719.91786	0.93668
717.86096	0.93428
715.80405	0.93179
713.74714	0.92951
711.69023	0.92722
709.63332	0.92473
707.57641	0.92239
705.51951	0.92096
703.46260	0.92044
701.40569	0.92078
699.34878	0.92173
697.29187	0.92197
695.23497	0.92144
693.17806	0.92116
691.12115	0.92064
689.06424	0.91924
687.00733	0.91792
684.95042	0.91729
682.89352	0.91687
680.83661	0.91667
678.77970	0.91689
676.72279	0.91671
674.66588	0.91575
672.60898	0.91511
670.55207	0.91504
668.49516	0.91473
666.43825	0.91484
664.38134	0.91597
662.32443	0.91683
660.26753	0.91617
658.21062	0.91432
656.15371	0.91306
654.09680	0.91335
652.03989	0.91394
649.98299	0.91290
647.92608	0.91021
645.86917	0.90786
643.81226	0.90703
641.75535	0.90662
639.69844	0.90547
637.64154	0.90325
635.58463	0.90058
633.52772	0.89884
631.47081	0.89826
629.41390	0.89796
627.35700	0.89736
625.30009	0.89636
623.24318	0.89584
621.18627	0.89612
619.12936	0.89492
617.07245	0.89086
615.01555	0.88635
612.95864	0.88250
610.90173	0.87752
608.84482	0.87112
606.78791	0.86473
604.73101	0.86006
602.67410	0.85773
600.61719	0.85724
598.56028	0.85859
596.50337	0.86152
594.44646	0.86507
592.38956	0.86926
590.33265	0.87469
588.27574	0.87992
586.21883	0.88303
584.16192	0.88446
582.10502	0.88559
580.04811	0.88698
577.99120	0.88787
575.93429	0.88750
573.87738	0.88635
571.82047	0.88533
569.76357	0.88515
567.70666	0.88506
565.64975	0.88351
563.59284	0.88152
561.53593	0.88103
559.47903	0.88115
557.42212	0.88102
555.36521	0.88126
553.30830	0.88118
551.25139	0.88100
549.19448	0.88210
547.13758	0.88416
545.08067	0.88617
543.02376	0.88666
540.96685	0.88499
538.90994	0.88344
536.85304	0.88363
534.79613	0.88498
532.73922	0.88587
530.68231	0.88508
528.62540	0.88453
526.56849	0.88585
524.51159	0.88728
522.45468	0.88735
520.39777	0.88639
518.34086	0.88523
516.28395	0.88453
514.22705	0.88423
512.17014	0.88420
510.11323	0.88400
508.05632	0.88299
505.99941	0.88216
503.94250	0.88290
501.88560	0.88277
499.82869	0.88028
497.77178	0.87895
495.71487	0.87910
493.65796	0.87830
491.60106	0.87661
489.54415	0.87599
487.48724	0.87755
485.43033	0.87911
483.37342	0.87803
481.31651	0.87686
479.25961	0.87865
477.20270	0.88162
475.14579	0.88301
473.08888	0.88135
471.03197	0.87780
468.97507	0.87531
466.91816	0.87456
464.86125	0.87490
462.80434	0.87484
460.74743	0.87485
458.69052	0.87413
456.63362	0.87183
454.57671	0.87134
452.51980	0.87031
450.46289	0.86723
448.40598	0.86768
446.34908	0.87289
444.29217	0.87732
442.23526	0.87820
440.17835	0.87675
438.12144	0.87511
436.06453	0.87482
434.00763	0.87496
431.95072	0.87538
429.89381	0.87716
427.83690	0.87716
425.77999	0.87315
423.72309	0.87020
421.66618	0.87181
419.60927	0.87552
417.55236	0.87694
415.49545	0.87687
413.43854	0.87892
411.38164	0.88087
409.32473	0.87951
407.26782	0.87789
405.21091	0.87902
403.15400	0.87988
401.09710	0.87649
399.04019	0.86690
