3996.57260	0.97799
3994.51569	0.97767
3992.45878	0.97746
3990.40188	0.97756
3988.34497	0.97814
3986.28806	0.97861
3984.23115	0.97879
3982.17424	0.97902
3980.11733	0.97929
3978.06043	0.97952
3976.00352	0.97942
3973.94661	0.97906
3971.88970	0.97879
3969.83279	0.97820
3967.77589	0.97742
3965.71898	0.97765
3963.66207	0.97855
3961.60516	0.97878
3959.54825	0.97881
3957.49134	0.97894
3955.43444	0.97881
3953.37753	0.97904
3951.32062	0.97945
3949.26371	0.97904
3947.20680	0.97814
3945.14990	0.97765
3943.09299	0.97768
3941.03608	0.97796
3938.97917	0.97843
3936.92226	0.97901
3934.86535	0.97927
3932.80845	0.97939
3930.75154	0.97953
3928.69463	0.97933
3926.63772	0.97889
3924.58081	0.97835
3922.52391	0.97794
3920.46700	0.97795
3918.41009	0.97841
3916.35318	0.97866
3914.29627	0.97810
3912.23936	0.97778
3910.18246	0.97854
3908.12555	0.97944
3906.06864	0.97933
3904.01173	0.97807
3901.95482	0.97741
3899.89792	0.97834
3897.84101	0.97892
3895.78410	0.97892
3893.72719	0.97935
3891.67028	0.97990
3889.61337	0.98001
3887.55647	0.98002
3885.49956	0.97962
3883.44265	0.97857
3881.38574	0.97782
3879.32883	0.97802
3877.27193	0.97915
3875.21502	0.98035
3873.15811	0.98034
3871.10120	0.97884
3869.04429	0.97789
3866.98738	0.97830
3864.93048	0.97870
3862.87357	0.97913
3860.81666	0.97972
3858.75975	0.98014
3856.70284	0.98075
3854.64594	0.98109
3852.58903	0.97978
3850.53212	0.97941
3848.47521	0.98017
3846.41830	0.98051
3844.36139	0.98049
3842.30449	0.98055
3840.24758	0.98069
3838.19067	0.98087
3836.13376	0.98083
3834.07685	0.98012
3832.01995	0.97917
3829.96304	0.97892
3827.90613	0.97930
3825.84922	0.97917
3823.79231	0.97843
3821.73540	0.97816
3819.67850	0.97857
3817.62159	0.97858
3815.56468	0.97837
3813.50777	0.97890
3811.45086	0.97963
3809.39396	0.97957
3807.33705	0.97869
3805.28014	0.97852
3803.22323	0.97957
3801.16632	0.98066
3799.10941	0.98078
3797.05251	0.98036
3794.99560	0.98008
3792.93869	0.97986
3790.88178	0.97982
3788.82487	0.98010
3786.76796	0.97997
3784.71106	0.97949
3782.65415	0.97960
3780.59724	0.98012
3778.54033	0.98033
3776.48342	0.97974
3774.42652	0.97924
3772.36961	0.97980
3770.31270	0.98052
3768.25579	0.98041
3766.19888	0.97964
3764.14197	0.97883
3762.08507	0.97868
3760.02816	0.97948
3757.97125	0.98077
3755.91434	0.98135
3753.85743	0.98097
3751.80053	0.97973
3749.74362	0.97852
3747.68671	0.97823
3745.62980	0.97789
3743.57289	0.97730
3741.51598	0.97746
3739.45908	0.97848
3737.40217	0.98025
3735.34526	0.98179
3733.28835	0.98173
3731.23144	0.98153
3729.17454	0.98131
3727.11763	0.98061
3725.06072	0.98004
3723.00381	0.97973
3720.94690	0.97991
3718.88999	0.98044
3716.83309	0.98045
3714.77618	0.98052
3712.71927	0.98114
3710.66236	0.98132
3708.60545	0.98139
3706.54855	0.98188
3704.49164	0.98177
3702.43473	0.98065
3700.37782	0.98013
3698.32091	0.98074
3696.26400	0.98081
3694.20710	0.98049
3692.15019	0.98047
3690.09328	0.98046
3688.03637	0.98044
3685.97946	0.98067
3683.92256	0.98109
3681.86565	0.98096
3679.80874	0.98044
3677.75183	0.98021
3675.69492	0.97973
3673.63801	0.97974
3671.58111	0.98043
3669.52420	0.98041
3667.46729	0.97934
3665.41038	0.97863
3663.35347	0.97886
3661.29657	0.97915
3659.23966	0.97889
3657.18275	0.97838
3655.12584	0.97764
3653.06893	0.97704
3651.01202	0.97684
3648.95512	0.97651
3646.89821	0.97612
3644.84130	0.97600
3642.78439	0.97533
3640.72748	0.97438
3638.67058	0.97468
3636.61367	0.97605
3634.55676	0.97642
3632.49985	0.97519
3630.44294	0.97418
3628.38603	0.97420
3626.32913	0.97381
3624.27222	0.97329
3622.21531	0.97318
3620.15840	0.97304
3618.10149	0.97246
3616.04459	0.97199
3613.98768	0.97151
3611.93077	0.97101
3609.87386	0.97132
3607.81695	0.97180
3605.76004	0.97139
3603.70314	0.97080
3601.64623	0.97062
3599.58932	0.97035
3597.53241	0.96960
3595.47550	0.96881
3593.41860	0.96890
3591.36169	0.97002
3589.30478	0.97117
3587.24787	0.97075
3585.19096	0.96884
3583.13405	0.96767
3581.07715	0.96706
3579.02024	0.96645
3576.96333	0.96619
3574.90642	0.96597
3572.84951	0.96577
3570.79261	0.96604
3568.73570	0.96626
3566.67879	0.96528
3564.62188	0.96337
3562.56497	0.96182
3560.50806	0.96142
3558.45116	0.96205
3556.39425	0.96282
3554.33734	0.96311
3552.28043	0.96224
3550.22352	0.96066
3548.16662	0.95995
3546.10971	0.96003
3544.05280	0.95969
3541.99589	0.95902
3539.93898	0.95828
3537.88207	0.95738
3535.82517	0.95680
3533.76826	0.95688
3531.71135	0.95721
3529.65444	0.95739
3527.59753	0.95726
3525.54063	0.95641
3523.48372	0.95499
3521.42681	0.95377
3519.36990	0.95284
3517.31299	0.95225
3515.25608	0.95277
3513.19918	0.95354
3511.14227	0.95318
3509.08536	0.95245
3507.02845	0.95178
3504.97154	0.95070
3502.91464	0.94992
3500.85773	0.95015
3498.80082	0.95047
3496.74391	0.95039
3494.68700	0.95008
3492.63009	0.94943
3490.57319	0.94870
3488.51628	0.94860
3486.45937	0.94903
3484.40246	0.94943
3482.34555	0.94947
3480.28865	0.94887
3478.23174	0.94824
3476.17483	0.94831
3474.11792	0.94882
3472.06101	0.94867
3470.00410	0.94772
3467.94720	0.94718
3465.89029	0.94751
3463.83338	0.94811
3461.77647	0.94847
3459.71956	0.94837
3457.66266	0.94825
3455.60575	0.94877
3453.54884	0.94958
3451.49193	0.95022
3449.43502	0.95069
3447.37811	0.95072
3445.32121	0.95059
3443.26430	0.95072
3441.20739	0.95062
3439.15048	0.95038
3437.09357	0.95062
3435.03667	0.95105
3432.97976	0.95147
3430.92285	0.95188
3428.86594	0.95181
3426.80903	0.95142
3424.75212	0.95146
3422.69522	0.95200
3420.63831	0.95264
3418.58140	0.95292
3416.52449	0.95291
3414.46758	0.95323
3412.41068	0.95360
3410.35377	0.95359
3408.29686	0.95355
3406.23995	0.95332
3404.18304	0.95327
3402.12613	0.95387
3400.06923	0.95455
3398.01232	0.95485
3395.95541	0.95516
3393.89850	0.95574
3391.84159	0.95631
3389.78469	0.95656
3387.72778	0.95659
3385.67087	0.95666
3383.61396	0.95673
3381.55705	0.95671
3379.50014	0.95682
3377.44324	0.95708
3375.38633	0.95749
3373.32942	0.95791
3371.27251	0.95814
3369.21560	0.95812
3367.15870	0.95804
3365.10179	0.95813
3363.04488	0.95828
3360.98797	0.95861
3358.93106	0.95937
3356.87415	0.96005
3354.81725	0.96037
3352.76034	0.96080
3350.70343	0.96162
3348.64652	0.96227
3346.58961	0.96214
3344.53271	0.96163
3342.47580	0.96128
3340.41889	0.96126
3338.36198	0.96157
3336.30507	0.96181
3334.24816	0.96207
3332.19126	0.96259
3330.13435	0.96277
3328.07744	0.96270
3326.02053	0.96318
3323.96362	0.96398
3321.90672	0.96449
3319.84981	0.96442
3317.79290	0.96417
3315.73599	0.96433
3313.67908	0.96468
3311.62217	0.96497
3309.56527	0.96520
3307.50836	0.96529
3305.45145	0.96540
3303.39454	0.96556
3301.33763	0.96558
3299.28073	0.96566
3297.22382	0.96592
3295.16691	0.96619
3293.11000	0.96629
3291.05309	0.96621
3288.99618	0.96612
3286.93928	0.96624
3284.88237	0.96658
3282.82546	0.96685
3280.76855	0.96691
3278.71164	0.96681
3276.65474	0.96677
3274.59783	0.96724
3272.54092	0.96777
3270.48401	0.96775
3268.42710	0.96797
3266.37019	0.96879
3264.31329	0.96943
3262.25638	0.96961
3260.19947	0.96942
3258.14256	0.96881
3256.08565	0.96793
3254.02875	0.96753
3251.97184	0.96777
3249.91493	0.96799
3247.85802	0.96820
3245.80111	0.96883
3243.74420	0.96991
3241.68730	0.97102
3239.63039	0.97122
3237.57348	0.97050
3235.51657	0.97030
3233.45966	0.97093
3231.40276	0.97129
3229.34585	0.97106
3227.28894	0.97066
3225.23203	0.97052
3223.17512	0.97089
3221.11821	0.97125
3219.06131	0.97136
3217.00440	0.97159
3214.94749	0.97175
3212.89058	0.97156
3210.83367	0.97157
3208.77677	0.97216
3206.71986	0.97244
3204.66295	0.97238
3202.60604	0.97276
3200.54913	0.97290
3198.49222	0.97273
3196.43532	0.97295
3194.37841	0.97328
3192.32150	0.97340
3190.26459	0.97358
3188.20768	0.97389
3186.15078	0.97407
3184.09387	0.97381
3182.03696	0.97348
3179.98005	0.97330
3177.92314	0.97324
3175.86623	0.97324
3173.80933	0.97325
3171.75242	0.97383
3169.69551	0.97470
3167.63860	0.97504
3165.58169	0.97531
3163.52479	0.97554
3161.46788	0.97537
3159.41097	0.97514
3157.35406	0.97449
3155.29715	0.97355
3153.24024	0.97361
3151.18334	0.97462
3149.12643	0.97559
3147.06952	0.97609
3145.01261	0.97617
3142.95570	0.97610
3140.89880	0.97581
3138.84189	0.97531
3136.78498	0.97529
3134.72807	0.97595
3132.67116	0.97664
3130.61425	0.97702
3128.55735	0.97693
3126.50044	0.97659
3124.44353	0.97644
3122.38662	0.97637
3120.32971	0.97628
3118.27281	0.97652
3116.21590	0.97708
3114.15899	0.97720
3112.10208	0.97684
3110.04517	0.97686
3107.98826	0.97725
3105.93136	0.97733
3103.87445	0.97697
3101.81754	0.97655
3099.76063	0.97657
3097.70372	0.97718
3095.64682	0.97785
3093.58991	0.97808
3091.53300	0.97809
3089.47609	0.97804
3087.41918	0.97782
3085.36227	0.97754
3083.30537	0.97740
3081.24846	0.97731
3079.19155	0.97739
3077.13464	0.97763
3075.07773	0.97790
3073.02083	0.97823
3070.96392	0.97839
3068.90701	0.97819
3066.85010	0.97779
3064.79319	0.97736
3062.73628	0.97697
3060.67938	0.97683
3058.62247	0.97736
3056.56556	0.97833
3054.50865	0.97873
3052.45174	0.97823
3050.39484	0.97760
3048.33793	0.97756
3046.28102	0.97762
3044.22411	0.97723
3042.16720	0.97693
3040.11029	0.97708
3038.05339	0.97717
3035.99648	0.97694
3033.93957	0.97698
3031.88266	0.97706
3029.82575	0.97661
3027.76885	0.97625
3025.71194	0.97620
3023.65503	0.97605
3021.59812	0.97611
3019.54121	0.97653
3017.48430	0.97677
3015.42740	0.97680
3013.37049	0.97657
3011.31358	0.97592
3009.25667	0.97535
3007.19976	0.97523
3005.14286	0.97548
3003.08595	0.97563
3001.02904	0.97534
2998.97213	0.97493
2996.91522	0.97477
2994.85831	0.97462
2992.80141	0.97436
2990.74450	0.97437
2988.68759	0.97481
2986.63068	0.97490
2984.57377	0.97418
2982.51687	0.97348
2980.45996	0.97321
2978.40305	0.97279
2976.34614	0.97217
2974.28923	0.97180
2972.23232	0.97156
2970.17542	0.97108
2968.11851	0.97037
2966.06160	0.96969
2964.00469	0.96939
2961.94778	0.96915
2959.89088	0.96864
2957.83397	0.96803
2955.77706	0.96763
2953.72015	0.96795
2951.66324	0.96841
2949.60633	0.96815
2947.54943	0.96780
2945.49252	0.96804
2943.43561	0.96817
2941.37870	0.96762
2939.32179	0.96708
2937.26489	0.96720
2935.20798	0.96767
2933.15107	0.96787
2931.09416	0.96792
2929.03725	0.96820
2926.98034	0.96836
2924.92344	0.96819
2922.86653	0.96812
2920.80962	0.96838
2918.75271	0.96885
2916.69580	0.96920
2914.63890	0.96893
2912.58199	0.96849
2910.52508	0.96839
2908.46817	0.96807
2906.41126	0.96738
2904.35435	0.96699
2902.29745	0.96720
2900.24054	0.96768
2898.18363	0.96797
2896.12672	0.96772
2894.06981	0.96730
2892.01291	0.96727
2889.95600	0.96744
2887.89909	0.96747
2885.84218	0.96741
2883.78527	0.96738
2881.72836	0.96729
2879.67146	0.96729
2877.61455	0.96749
2875.55764	0.96807
2873.50073	0.96874
2871.44382	0.96886
2869.38692	0.96876
2867.33001	0.96897
2865.27310	0.96962
2863.21619	0.97079
2861.15928	0.97194
2859.10237	0.97249
2857.04547	0.97275
2854.98856	0.97324
2852.93165	0.97379
2850.87474	0.97423
2848.81783	0.97481
2846.76093	0.97533
2844.70402	0.97565
2842.64711	0.97589
2840.59020	0.97604
2838.53329	0.97636
2836.47638	0.97665
2834.41948	0.97650
2832.36257	0.97618
2830.30566	0.97623
2828.24875	0.97684
2826.19184	0.97742
2824.13494	0.97748
2822.07803	0.97736
2820.02112	0.97751
2817.96421	0.97785
2815.90730	0.97804
2813.85039	0.97780
2811.79349	0.97740
2809.73658	0.97739
2807.67967	0.97752
2805.62276	0.97760
2803.56585	0.97774
2801.50895	0.97776
2799.45204	0.97776
2797.39513	0.97772
2795.33822	0.97750
2793.28131	0.97746
2791.22440	0.97784
2789.16750	0.97837
2787.11059	0.97872
2785.05368	0.97892
2782.99677	0.97901
2780.93986	0.97885
2778.88296	0.97875
2776.82605	0.97880
2774.76914	0.97888
2772.71223	0.97905
2770.65532	0.97898
2768.59841	0.97883
2766.54151	0.97898
2764.48460	0.97926
2762.42769	0.97948
2760.37078	0.97949
2758.31387	0.97937
2756.25697	0.97947
2754.20006	0.97974
2752.14315	0.97981
2750.08624	0.97959
2748.02933	0.97928
2745.97242	0.97909
2743.91552	0.97930
2741.85861	0.97969
2739.80170	0.97971
2737.74479	0.97962
2735.68788	0.97951
2733.63098	0.97914
2731.57407	0.97899
2729.51716	0.97929
2727.46025	0.97955
2725.40334	0.97958
2723.34643	0.97958
2721.28953	0.97935
2719.23262	0.97894
2717.17571	0.97895
2715.11880	0.97938
2713.06189	0.97972
2711.00499	0.97990
2708.94808	0.98001
2706.89117	0.97995
2704.83426	0.97979
2702.77735	0.97950
2700.72044	0.97930
2698.66354	0.97952
2696.60663	0.97991
2694.54972	0.97993
2692.49281	0.97966
2690.43590	0.97945
2688.37900	0.97938
2686.32209	0.97956
2684.26518	0.97983
2682.20827	0.98009
2680.15136	0.98059
2678.09445	0.98087
2676.03755	0.98057
2673.98064	0.98046
2671.92373	0.98068
2669.86682	0.98047
2667.80991	0.97992
2665.75301	0.97988
2663.69610	0.98020
2661.63919	0.98012
2659.58228	0.97978
2657.52537	0.97962
2655.46846	0.97974
2653.41156	0.97996
2651.35465	0.98020
2649.29774	0.98027
2647.24083	0.98012
2645.18392	0.98014
2643.12702	0.98011
2641.07011	0.97980
2639.01320	0.97962
2636.95629	0.97961
2634.89938	0.97974
2632.84247	0.98003
2630.78557	0.98008
2628.72866	0.98001
2626.67175	0.98027
2624.61484	0.98062
2622.55793	0.98071
2620.50103	0.98063
2618.44412	0.98059
2616.38721	0.98062
2614.33030	0.98078
2612.27339	0.98100
2610.21648	0.98108
2608.15958	0.98114
2606.10267	0.98110
2604.04576	0.98077
2601.98885	0.98060
2599.93194	0.98095
2597.87504	0.98146
2595.81813	0.98167
2593.76122	0.98141
2591.70431	0.98081
2589.64740	0.98041
2587.59049	0.98053
2585.53359	0.98078
2583.47668	0.98075
2581.41977	0.98097
2579.36286	0.98176
2577.30595	0.98218
2575.24905	0.98175
2573.19214	0.98140
2571.13523	0.98236
2569.07832	0.98341
2567.02141	0.98291
2564.96450	0.98248
2562.90760	0.98289
2560.85069	0.98291
2558.79378	0.98284
2556.73687	0.98313
2554.67996	0.98333
2552.62306	0.98319
2550.56615	0.98269
2548.50924	0.98225
2546.45233	0.98218
2544.39542	0.98227
2542.33851	0.98254
2540.28161	0.98291
2538.22470	0.98319
2536.16779	0.98337
2534.11088	0.98319
2532.05397	0.98259
2529.99707	0.98198
2527.94016	0.98177
2525.88325	0.98209
2523.82634	0.98239
2521.76943	0.98215
2519.71252	0.98202
2517.65562	0.98264
2515.59871	0.98321
2513.54180	0.98305
2511.48489	0.98313
2509.42798	0.98375
2507.37108	0.98362
2505.31417	0.98262
2503.25726	0.98217
2501.20035	0.98263
2499.14344	0.98318
2497.08653	0.98340
2495.02963	0.98357
2492.97272	0.98383
2490.91581	0.98382
2488.85890	0.98322
2486.80199	0.98243
2484.74509	0.98234
2482.68818	0.98257
2480.63127	0.98273
2478.57436	0.98319
2476.51745	0.98348
2474.46054	0.98323
2472.40364	0.98302
2470.34673	0.98329
2468.28982	0.98409
2466.23291	0.98478
2464.17600	0.98474
2462.11910	0.98439
2460.06219	0.98400
2458.00528	0.98361
2455.94837	0.98349
2453.89146	0.98355
2451.83455	0.98365
2449.77765	0.98383
2447.72074	0.98391
2445.66383	0.98365
2443.60692	0.98340
2441.55001	0.98332
2439.49311	0.98326
2437.43620	0.98337
2435.37929	0.98349
2433.32238	0.98329
2431.26547	0.98312
2429.20856	0.98315
2427.15166	0.98342
2425.09475	0.98368
2423.03784	0.98353
2420.98093	0.98355
2418.92402	0.98358
2416.86712	0.98311
2414.81021	0.98302
2412.75330	0.98347
2410.69639	0.98350
2408.63948	0.98334
2406.58257	0.98336
2404.52567	0.98343
2402.46876	0.98375
2400.41185	0.98405
2398.35494	0.98423
2396.29803	0.98474
2394.24113	0.98525
2392.18422	0.98532
2390.12731	0.98508
2388.07040	0.98475
2386.01349	0.98426
2383.95658	0.98345
2381.89968	0.98301
2379.84277	0.98362
2377.78586	0.98432
2375.72895	0.98421
2373.67204	0.98394
2371.61514	0.98409
2369.55823	0.98405
2367.50132	0.98366
2365.44441	0.98386
2363.38750	0.98476
2361.33059	0.98503
2359.27369	0.98438
2357.21678	0.98404
2355.15987	0.98392
2353.10296	0.98358
2351.04605	0.98331
2348.98915	0.98336
2346.93224	0.98376
2344.87533	0.98421
2342.81842	0.98412
2340.76151	0.98321
2338.70460	0.98234
2336.64770	0.98262
2334.59079	0.98374
2332.53388	0.98487
2330.47697	0.98548
2328.42006	0.98501
2326.36316	0.98328
2324.30625	0.98168
2322.24934	0.98195
2320.19243	0.98328
2318.13552	0.98375
2316.07861	0.98353
2314.02171	0.98294
2311.96480	0.98243
2309.90789	0.98305
2307.85098	0.98395
2305.79407	0.98404
2303.73717	0.98385
2301.68026	0.98360
2299.62335	0.98321
2297.56644	0.98313
2295.50953	0.98361
2293.45262	0.98374
2291.39572	0.98290
2289.33881	0.98240
2287.28190	0.98332
2285.22499	0.98445
2283.16808	0.98425
2281.11117	0.98331
2279.05427	0.98309
2276.99736	0.98336
2274.94045	0.98335
2272.88354	0.98383
2270.82663	0.98476
2268.76973	0.98445
2266.71282	0.98357
2264.65591	0.98405
2262.59900	0.98504
2260.54209	0.98493
2258.48518	0.98469
2256.42828	0.98538
2254.37137	0.98630
2252.31446	0.98659
2250.25755	0.98568
2248.20064	0.98415
2246.14374	0.98342
2244.08683	0.98342
2242.02992	0.98288
2239.97301	0.98280
2237.91610	0.98417
2235.85919	0.98501
2233.80229	0.98483
2231.74538	0.98479
2229.68847	0.98485
2227.63156	0.98520
2225.57465	0.98562
2223.51775	0.98545
2221.46084	0.98453
2219.40393	0.98370
2217.34702	0.98374
2215.29011	0.98368
2213.23320	0.98356
2211.17630	0.98360
2209.11939	0.98375
2207.06248	0.98549
2205.00557	0.98709
2202.94866	0.98655
2200.89176	0.98600
2198.83485	0.98572
2196.77794	0.98503
2194.72103	0.98493
2192.66412	0.98495
2190.60721	0.98496
2188.55031	0.98525
2186.49340	0.98533
2184.43649	0.98631
2182.37958	0.98814
2180.32267	0.98766
2178.26577	0.98477
2176.20886	0.98300
2174.15195	0.98340
2172.09504	0.98402
2170.03813	0.98301
2167.98122	0.98150
2165.92432	0.98282
2163.86741	0.98650
2161.81050	0.98882
2159.75359	0.98877
2157.69668	0.98835
2155.63978	0.98855
2153.58287	0.98903
2151.52596	0.98971
2149.46905	0.99106
2147.41214	0.99205
2145.35523	0.99080
2143.29833	0.98853
2141.24142	0.98713
2139.18451	0.98695
2137.12760	0.98817
2135.07069	0.98964
2133.01379	0.98922
2130.95688	0.98690
2128.89997	0.98496
2126.84306	0.98505
2124.78615	0.98569
2122.72924	0.98477
2120.67234	0.98379
2118.61543	0.98438
2116.55852	0.98536
2114.50161	0.98550
2112.44470	0.98536
2110.38780	0.98531
2108.33089	0.98445
2106.27398	0.98364
2104.21707	0.98390
2102.16016	0.98365
2100.10325	0.98264
2098.04635	0.98320
2095.98944	0.98548
2093.93253	0.98647
2091.87562	0.98534
2089.81871	0.98429
2087.76181	0.98478
2085.70490	0.98628
2083.64799	0.98702
2081.59108	0.98656
2079.53417	0.98576
2077.47726	0.98508
2075.42036	0.98477
2073.36345	0.98482
2071.30654	0.98537
2069.24963	0.98593
2067.19272	0.98585
2065.13582	0.98578
2063.07891	0.98616
2061.02200	0.98666
2058.96509	0.98698
2056.90818	0.98718
2054.85127	0.98682
2052.79437	0.98573
2050.73746	0.98552
2048.68055	0.98645
2046.62364	0.98684
2044.56673	0.98642
2042.50983	0.98549
2040.45292	0.98538
2038.39601	0.98714
2036.33910	0.98904
2034.28219	0.98873
2032.22528	0.98636
2030.16838	0.98507
2028.11147	0.98511
2026.05456	0.98457
2023.99765	0.98436
2021.94074	0.98552
2019.88384	0.98751
2017.82693	0.98827
2015.77002	0.98749
2013.71311	0.98857
2011.65620	0.99109
2009.59929	0.99114
2007.54239	0.98913
2005.48548	0.98800
2003.42857	0.98857
2001.37166	0.98861
1999.31475	0.98635
1997.25785	0.98403
1995.20094	0.98328
1993.14403	0.98422
1991.08712	0.98769
1989.03021	0.99194
1986.97330	0.99374
1984.91640	0.99231
1982.85949	0.98909
1980.80258	0.98709
1978.74567	0.98781
1976.68876	0.98937
1974.63186	0.99049
1972.57495	0.99171
1970.51804	0.99321
1968.46113	0.99368
1966.40422	0.99283
1964.34731	0.99134
1962.29041	0.98975
1960.23350	0.98969
1958.17659	0.98950
1956.11968	0.98775
1954.06277	0.98755
1952.00587	0.98890
1949.94896	0.98926
1947.89205	0.98907
1945.83514	0.98863
1943.77823	0.98779
1941.72132	0.98794
1939.66442	0.98899
1937.60751	0.98911
1935.55060	0.98811
1933.49369	0.98772
1931.43678	0.98790
1929.37988	0.98753
1927.32297	0.98682
1925.26606	0.98605
1923.20915	0.98548
1921.15224	0.98557
1919.09533	0.98610
1917.03843	0.98661
1914.98152	0.98725
1912.92461	0.98792
1910.86770	0.98824
1908.81079	0.98812
1906.75389	0.98796
1904.69698	0.98784
1902.64007	0.98731
1900.58316	0.98675
1898.52625	0.98687
1896.46934	0.98712
1894.41244	0.98690
1892.35553	0.98673
1890.29862	0.98710
1888.24171	0.98789
1886.18480	0.98840
1884.12790	0.98837
1882.07099	0.98839
1880.01408	0.98882
1877.95717	0.98878
1875.90026	0.98839
1873.84335	0.98855
1871.78645	0.98909
1869.72954	0.98929
1867.67263	0.98875
1865.61572	0.98834
1863.55881	0.98836
1861.50191	0.98830
1859.44500	0.98843
1857.38809	0.98883
1855.33118	0.98867
1853.27427	0.98829
1851.21736	0.98829
1849.16046	0.98826
1847.10355	0.98806
1845.04664	0.98801
1842.98973	0.98788
1840.93282	0.98756
1838.87592	0.98763
1836.81901	0.98814
1834.76210	0.98854
1832.70519	0.98844
1830.64828	0.98817
1828.59137	0.98780
1826.53447	0.98736
1824.47756	0.98706
1822.42065	0.98706
1820.36374	0.98706
1818.30683	0.98687
1816.24993	0.98697
1814.19302	0.98695
1812.13611	0.98622
1810.07920	0.98528
1808.02229	0.98471
1805.96538	0.98406
1803.90848	0.98333
1801.85157	0.98276
1799.79466	0.98270
1797.73775	0.98286
1795.68084	0.98259
1793.62394	0.98210
1791.56703	0.98131
1789.51012	0.98043
1787.45321	0.97937
1785.39630	0.97801
1783.33939	0.97664
1781.28249	0.97520
1779.22558	0.97305
1777.16867	0.97052
1775.11176	0.96755
1773.05485	0.96269
1770.99795	0.95557
1768.94104	0.94751
1766.88413	0.93771
1764.82722	0.92641
1762.77031	0.91176
1760.71340	0.89344
1758.65650	0.87718
1756.59959	0.86167
1754.54268	0.84777
1752.48577	0.83588
1750.42886	0.82221
1748.37196	0.80908
1746.31505	0.79995
1744.25814	0.79285
1742.20123	0.78687
1740.14432	0.78187
1738.08741	0.77917
1736.03051	0.77969
1733.97360	0.78046
1731.91669	0.78143
1729.85978	0.78514
1727.80287	0.79115
1725.74597	0.79866
1723.68906	0.80764
1721.63215	0.81734
1719.57524	0.82759
1717.51833	0.84103
1715.46142	0.85678
1713.40452	0.86995
1711.34761	0.88163
1709.29070	0.89315
1707.23379	0.90431
1705.17688	0.91483
1703.11998	0.92315
1701.06307	0.93025
1699.00616	0.93719
1696.94925	0.94243
1694.89234	0.94695
1692.83543	0.95058
1690.77853	0.95355
1688.72162	0.95623
1686.66471	0.95838
1684.60780	0.96011
1682.55089	0.96142
1680.49399	0.96267
1678.43708	0.96368
1676.38017	0.96427
1674.32326	0.96465
1672.26635	0.96504
1670.20944	0.96527
1668.15254	0.96521
1666.09563	0.96532
1664.03872	0.96556
1661.98181	0.96535
1659.92490	0.96491
1657.86800	0.96487
1655.81109	0.96513
1653.75418	0.96452
1651.69727	0.96310
1649.64036	0.96337
1647.58345	0.96394
1645.52655	0.96379
1643.46964	0.96364
1641.41273	0.96368
1639.35582	0.96380
1637.29891	0.96391
1635.24201	0.96393
1633.18510	0.96436
1631.12819	0.96501
1629.07128	0.96551
1627.01437	0.96600
1624.95746	0.96678
1622.90056	0.96771
1620.84365	0.96838
1618.78674	0.96910
1616.72983	0.97026
1614.67292	0.97129
1612.61602	0.97194
1610.55911	0.97245
1608.50220	0.97299
1606.44529	0.97367
1604.38838	0.97436
1602.33147	0.97481
1600.27457	0.97509
1598.21766	0.97565
1596.16075	0.97651
1594.10384	0.97718
1592.04693	0.97748
1589.99003	0.97768
1587.93312	0.97793
1585.87621	0.97828
1583.81930	0.97873
1581.76239	0.97914
1579.70548	0.97933
1577.64858	0.97930
1575.59167	0.97917
1573.53476	0.97916
1571.47785	0.97912
1569.42094	0.97909
1567.36404	0.97938
1565.30713	0.97963
1563.25022	0.97977
1561.19331	0.98017
1559.13640	0.98039
1557.07949	0.98008
1555.02259	0.98032
1552.96568	0.98059
1550.90877	0.98062
1548.85186	0.98062
1546.79495	0.98062
1544.73805	0.98060
1542.68114	0.98082
1540.62423	0.98115
1538.56732	0.98084
1536.51041	0.98060
1534.45350	0.98062
1532.39660	0.98057
1530.33969	0.98061
1528.28278	0.98083
1526.22587	0.98094
1524.16896	0.98079
1522.11206	0.98040
1520.05515	0.98031
1517.99824	0.98062
1515.94133	0.98070
1513.88442	0.98067
1511.82751	0.98068
1509.77061	0.98067
1507.71370	0.98055
1505.65679	0.98042
1503.59988	0.98065
1501.54297	0.98106
1499.48607	0.98136
1497.42916	0.98148
1495.37225	0.98118
1493.31534	0.98064
1491.25843	0.98036
1489.20152	0.98031
1487.14462	0.98008
1485.08771	0.97966
1483.03080	0.97923
1480.97389	0.97890
1478.91698	0.97860
1476.86008	0.97803
1474.80317	0.97703
1472.74626	0.97504
1470.68935	0.97247
1468.63244	0.97066
1466.57553	0.96903
1464.51863	0.96687
1462.46172	0.96503
1460.40481	0.96402
1458.34790	0.96256
1456.29099	0.95963
1454.23409	0.95761
1452.17718	0.95648
1450.12027	0.95527
1448.06336	0.95363
1446.00645	0.95152
1443.94954	0.94939
1441.89264	0.94725
1439.83573	0.94527
1437.77882	0.94344
1435.72191	0.94164
1433.66500	0.94084
1431.60810	0.94070
1429.55119	0.94066
1427.49428	0.94106
1425.43737	0.94205
1423.38046	0.94331
1421.32355	0.94461
1419.26665	0.94601
1417.20974	0.94695
1415.15283	0.94742
1413.09592	0.94813
1411.03901	0.94898
1408.98211	0.94943
1406.92520	0.94943
1404.86829	0.94917
1402.81138	0.94895
1400.75447	0.94871
1398.69756	0.94777
1396.64066	0.94563
1394.58375	0.94196
1392.52684	0.93723
1390.46993	0.93200
1388.41302	0.92498
1386.35612	0.91568
1384.29921	0.90638
1382.24230	0.89753
1380.18539	0.88824
1378.12848	0.87936
1376.07157	0.87165
1374.01467	0.86453
1371.95776	0.85934
1369.90085	0.85741
1367.84394	0.85880
1365.78703	0.86415
1363.73013	0.87382
1361.67322	0.88729
1359.61631	0.90135
1357.55940	0.91404
1355.50249	0.92493
1353.44558	0.93351
1351.38868	0.93971
1349.33177	0.94394
1347.27486	0.94680
1345.21795	0.94874
1343.16104	0.95008
1341.10414	0.95119
1339.04723	0.95192
1336.99032	0.95222
1334.93341	0.95238
1332.87650	0.95232
1330.81959	0.95192
1328.76269	0.95138
1326.70578	0.95076
1324.64887	0.95002
1322.59196	0.94940
1320.53505	0.94913
1318.47815	0.94896
1316.42124	0.94879
1314.36433	0.94888
1312.30742	0.94904
1310.25051	0.94907
1308.19360	0.94915
1306.13670	0.94922
1304.07979	0.94896
1302.02288	0.94838
1299.96597	0.94755
1297.90906	0.94633
1295.85216	0.94474
1293.79525	0.94277
1291.73834	0.94022
1289.68143	0.93713
1287.62452	0.93366
1285.56761	0.92985
1283.51071	0.92577
1281.45380	0.92133
1279.39689	0.91631
1277.33998	0.91059
1275.28307	0.90437
1273.22617	0.89772
1271.16926	0.89025
1269.11235	0.88214
1267.05544	0.87366
1264.99853	0.86465
1262.94162	0.85512
1260.88472	0.84510
1258.82781	0.83466
1256.77090	0.82411
1254.71399	0.81344
1252.65708	0.80250
1250.60018	0.79129
1248.54327	0.78004
1246.48636	0.76902
1244.42945	0.75802
1242.37254	0.74684
1240.31563	0.73599
1238.25873	0.72568
1236.20182	0.71576
1234.14491	0.70661
1232.08800	0.69872
1230.03109	0.69234
1227.97419	0.68791
1225.91728	0.68584
1223.86037	0.68651
1221.80346	0.69027
1219.74655	0.69712
1217.68964	0.70698
1215.63274	0.71984
1213.57583	0.73543
1211.51892	0.75303
1209.46201	0.77195
1207.40510	0.79188
1205.34820	0.81222
1203.29129	0.83184
1201.23438	0.84996
1199.17747	0.86639
1197.12056	0.88083
1195.06365	0.89286
1193.00675	0.90228
1190.94984	0.90905
1188.89293	0.91343
1186.83602	0.91560
1184.77911	0.91547
1182.72221	0.91367
1180.66530	0.91111
1178.60839	0.90805
1176.55148	0.90443
1174.49457	0.90036
1172.43766	0.89612
1170.38076	0.89209
1168.32385	0.88851
1166.26694	0.88559
1164.21003	0.88351
1162.15312	0.88248
1160.09622	0.88276
1158.03931	0.88404
1155.98240	0.88587
1153.92549	0.88835
1151.86858	0.89143
1149.81167	0.89450
1147.75477	0.89706
1145.69786	0.89872
1143.64095	0.89908
1141.58404	0.89822
1139.52713	0.89658
1137.47023	0.89423
1135.41332	0.89120
1133.35641	0.88770
1131.29950	0.88385
1129.24259	0.87971
1127.18568	0.87590
1125.12878	0.87290
1123.07187	0.87047
1121.01496	0.86844
1118.95805	0.86696
1116.90114	0.86612
1114.84424	0.86544
1112.78733	0.86431
1110.73042	0.86285
1108.67351	0.86141
1106.61660	0.85995
1104.55969	0.85837
1102.50279	0.85639
1100.44588	0.85361
1098.38897	0.84993
1096.33206	0.84561
1094.27515	0.84059
1092.21825	0.83455
1090.16134	0.82752
1088.10443	0.81977
1086.04752	0.81156
1083.99061	0.80327
1081.93370	0.79523
1079.87680	0.78747
1077.81989	0.77996
1075.76298	0.77260
1073.70607	0.76540
1071.64916	0.75872
1069.59226	0.75260
1067.53535	0.74678
1065.47844	0.74119
1063.42153	0.73561
1061.36462	0.72986
1059.30771	0.72385
1057.25081	0.71762
1055.19390	0.71126
1053.13699	0.70484
1051.08008	0.69873
1049.02317	0.69307
1046.96627	0.68760
1044.90936	0.68245
1042.85245	0.67781
1040.79554	0.67354
1038.73863	0.66945
1036.68172	0.66578
1034.62482	0.66306
1032.56791	0.66209
1030.51100	0.66392
1028.45409	0.66858
1026.39718	0.67555
1024.34028	0.68440
1022.28337	0.69426
1020.22646	0.70457
1018.16955	0.71539
1016.11264	0.72660
1014.05573	0.73775
1011.99883	0.74851
1009.94192	0.75892
1007.88501	0.76896
1005.82810	0.77847
1003.77119	0.78737
1001.71429	0.79592
999.65738	0.80440
997.60047	0.81245
995.54356	0.81949
993.48665	0.82559
991.42974	0.83122
989.37284	0.83627
987.31593	0.84074
985.25902	0.84505
983.20211	0.84925
981.14520	0.85339
979.08830	0.85798
977.03139	0.86337
974.97448	0.86924
972.91757	0.87519
970.86066	0.88099
968.80375	0.88635
966.74685	0.89151
964.68994	0.89654
962.63303	0.90061
960.57612	0.90336
958.51921	0.90547
956.46231	0.90732
954.40540	0.90875
952.34849	0.90999
950.29158	0.91143
948.23467	0.91299
946.17776	0.91457
944.12086	0.91626
942.06395	0.91778
940.00704	0.91862
937.95013	0.91900
935.89322	0.91945
933.83632	0.91952
931.77941	0.91881
929.72250	0.91789
927.66559	0.91714
925.60868	0.91633
923.55177	0.91509
921.49487	0.91319
919.43796	0.91114
917.38105	0.90957
915.32414	0.90820
913.26723	0.90645
911.21033	0.90434
909.15342	0.90227
907.09651	0.90069
905.03960	0.89979
902.98269	0.89964
900.92578	0.90006
898.86888	0.90093
896.81197	0.90257
894.75506	0.90507
892.69815	0.90805
890.64124	0.91094
888.58434	0.91359
886.52743	0.91629
884.47052	0.91922
882.41361	0.92217
880.35670	0.92491
878.29979	0.92820
876.24289	0.93255
874.18598	0.93675
872.12907	0.93984
870.07216	0.94261
868.01525	0.94562
865.95835	0.94827
863.90144	0.95042
861.84453	0.95217
859.78762	0.95335
857.73071	0.95389
855.67380	0.95387
853.61690	0.95365
851.55999	0.95342
849.50308	0.95294
847.44617	0.95182
845.38926	0.95042
843.33236	0.94956
841.27545	0.94959
839.21854	0.95003
837.16163	0.95057
835.10472	0.95166
833.04781	0.95276
830.99091	0.95380
828.93400	0.95569
826.87709	0.95773
824.82018	0.95896
822.76327	0.95972
820.70637	0.96064
818.64946	0.96161
816.59255	0.96235
814.53564	0.96302
812.47873	0.96380
810.42182	0.96436
808.36492	0.96444
806.30801	0.96443
804.25110	0.96455
802.19419	0.96445
800.13728	0.96409
798.08038	0.96377
796.02347	0.96360
793.96656	0.96383
791.90965	0.96457
789.85274	0.96498
787.79583	0.96487
785.73893	0.96493
783.68202	0.96542
781.62511	0.96591
779.56820	0.96558
777.51129	0.96482
775.45439	0.96477
773.39748	0.96519
771.34057	0.96526
769.28366	0.96516
767.22675	0.96536
765.16984	0.96544
763.11294	0.96489
761.05603	0.96433
758.99912	0.96400
756.94221	0.96345
754.88530	0.96292
752.82839	0.96284
750.77149	0.96317
748.71458	0.96310
746.65767	0.96215
744.60076	0.96132
742.54385	0.96138
740.48695	0.96166
738.43004	0.96100
736.37313	0.95977
734.31622	0.95913
732.25931	0.95886
730.20240	0.95819
728.14550	0.95671
726.08859	0.95514
724.03168	0.95454
721.97477	0.95426
719.91786	0.95316
717.86096	0.95149
715.80405	0.95011
713.74714	0.94944
711.69023	0.94905
709.63332	0.94811
707.57641	0.94703
705.51951	0.94686
703.46260	0.94656
701.40569	0.94483
699.34878	0.94292
697.29187	0.94214
695.23497	0.94154
693.17806	0.93987
691.12115	0.93758
689.06424	0.93571
687.00733	0.93462
684.95042	0.93409
682.89352	0.93385
680.83661	0.93399
678.77970	0.93430
676.72279	0.93410
674.66588	0.93377
672.60898	0.93397
670.55207	0.93404
668.49516	0.93302
666.43825	0.93197
664.38134	0.93181
662.32443	0.93118
660.26753	0.92997
658.21062	0.92853
656.15371	0.92692
654.09680	0.92616
652.03989	0.92576
649.98299	0.92404
647.92608	0.92131
645.86917	0.91871
643.81226	0.91669
641.75535	0.91495
639.69844	0.91289
637.64154	0.91077
635.58463	0.90918
633.52772	0.90796
631.47081	0.90660
629.41390	0.90524
627.35700	0.90393
625.30009	0.90242
623.24318	0.90138
621.18627	0.90060
619.12936	0.89825
617.07245	0.89379
615.01555	0.88838
612.95864	0.88313
610.90173	0.87830
608.84482	0.87300
606.78791	0.86709
604.73101	0.86318
602.67410	0.86309
600.61719	0.86554
598.56028	0.86952
596.50337	0.87500
594.44646	0.88115
592.38956	0.88682
590.33265	0.89117
588.27574	0.89385
586.21883	0.89542
584.16192	0.89688
582.10502	0.89902
580.04811	0.90126
577.99120	0.90156
575.93429	0.89980
573.87738	0.89829
571.82047	0.89759
569.76357	0.89667
567.70666	0.89555
565.64975	0.89365
563.59284	0.89022
561.53593	0.88748
559.47903	0.88733
557.42212	0.88851
555.36521	0.88952
553.30830	0.89041
551.25139	0.89158
549.19448	0.89293
547.13758	0.89451
545.08067	0.89610
543.02376	0.89638
540.96685	0.89529
538.90994	0.89487
536.85304	0.89596
534.79613	0.89739
532.73922	0.89770
530.68231	0.89648
528.62540	0.89516
526.56849	0.89473
524.51159	0.89475
522.45468	0.89417
520.39777	0.89263
518.34086	0.89206
516.28395	0.89301
514.22705	0.89280
512.17014	0.89102
510.11323	0.88966
508.05632	0.88868
505.99941	0.88729
503.94250	0.88620
501.88560	0.88545
499.82869	0.88453
497.77178	0.88318
495.71487	0.88213
493.65796	0.88252
491.60106	0.88221
489.54415	0.87969
487.48724	0.87888
485.43033	0.88018
483.37342	0.88029
481.31651	0.88033
479.25961	0.87977
477.20270	0.87764
475.14579	0.87712
473.08888	0.87762
471.03197	0.87575
468.97507	0.87382
466.91816	0.87321
464.86125	0.87148
462.80434	0.87022
460.74743	0.87162
458.69052	0.87227
456.63362	0.87054
454.57671	0.87018
452.51980	0.87134
450.46289	0.87259
448.40598	0.87398
446.34908	0.87521
444.29217	0.87534
442.23526	0.87449
440.17835	0.87360
438.12144	0.87144
436.06453	0.86856
434.00763	0.86998
431.95072	0.87565
429.89381	0.88011
427.83690	0.88059
425.77999	0.87780
423.72309	0.87413
421.66618	0.87238
419.60927	0.87546
417.55236	0.88208
415.49545	0.88328
413.43854	0.87955
411.38164	0.87480
409.32473	0.87491
407.26782	0.88089
405.21091	0.88420
403.15400	0.88083
401.09710	0.87619
399.04019	0.87457
