3996.57260	0.99855
3994.51569	0.99844
3992.45878	0.99847
3990.40188	0.99881
3988.34497	0.99917
3986.28806	0.99897
3984.23115	0.99823
3982.17424	0.99807
3980.11733	0.99879
3978.06043	0.99954
3976.00352	0.99962
3973.94661	0.99897
3971.88970	0.99834
3969.83279	0.99837
3967.77589	0.99900
3965.71898	0.99972
3963.66207	1.00015
3961.60516	1.00017
3959.54825	0.99959
3957.49134	0.99867
3955.43444	0.99811
3953.37753	0.99821
3951.32062	0.99834
3949.26371	0.99851
3947.20680	0.99933
3945.14990	1.00000
3943.09299	0.99980
3941.03608	0.99924
3938.97917	0.99892
3936.92226	0.99901
3934.86535	0.99919
3932.80845	0.99893
3930.75154	0.99848
3928.69463	0.99848
3926.63772	0.99841
3924.58081	0.99798
3922.52391	0.99827
3920.46700	0.99884
3918.41009	0.99873
3916.35318	0.99877
3914.29627	0.99891
3912.23936	0.99868
3910.18246	0.99839
3908.12555	0.99856
3906.06864	0.99912
3904.01173	0.99912
3901.95482	0.99914
3899.89792	0.99989
3897.84101	0.99963
3895.78410	0.99829
3893.72719	0.99732
3891.67028	0.99745
3889.61337	0.99820
3887.55647	0.99885
3885.49956	0.99926
3883.44265	0.99912
3881.38574	0.99871
3879.32883	0.99785
3877.27193	0.99704
3875.21502	0.99754
3873.15811	0.99867
3871.10120	0.99853
3869.04429	0.99775
3866.98738	0.99809
3864.93048	0.99880
3862.87357	0.99856
3860.81666	0.99794
3858.75975	0.99834
3856.70284	0.99947
3854.64594	1.00000
3852.58903	0.99938
3850.53212	0.99858
3848.47521	0.99802
3846.41830	0.99773
3844.36139	0.99766
3842.30449	0.99798
3840.24758	0.99887
3838.19067	0.99903
3836.13376	0.99789
3834.07685	0.99753
3832.01995	0.99793
3829.96304	0.99792
3827.90613	0.99780
3825.84922	0.99762
3823.79231	0.99729
3821.73540	0.99736
3819.67850	0.99749
3817.62159	0.99699
3815.56468	0.99652
3813.50777	0.99694
3811.45086	0.99787
3809.39396	0.99893
3807.33705	0.99942
3805.28014	0.99879
3803.22323	0.99822
3801.16632	0.99830
3799.10941	0.99881
3797.05251	0.99931
3794.99560	0.99914
3792.93869	0.99850
3790.88178	0.99798
3788.82487	0.99768
3786.76796	0.99744
3784.71106	0.99692
3782.65415	0.99645
3780.59724	0.99691
3778.54033	0.99739
3776.48342	0.99719
3774.42652	0.99758
3772.36961	0.99848
3770.31270	0.99915
3768.25579	0.99928
3766.19888	0.99853
3764.14197	0.99725
3762.08507	0.99669
3760.02816	0.99741
3757.97125	0.99807
3755.91434	0.99806
3753.85743	0.99866
3751.80053	0.99990
3749.74362	1.00000
3747.68671	0.99928
3745.62980	0.99886
3743.57289	0.99704
3741.51598	0.99496
3739.45908	0.99500
3737.40217	0.99650
3735.34526	0.99773
3733.28835	0.99736
3731.23144	0.99611
3729.17454	0.99539
3727.11763	0.99568
3725.06072	0.99644
3723.00381	0.99725
3720.94690	0.99804
3718.88999	0.99790
3716.83309	0.99677
3714.77618	0.99621
3712.71927	0.99671
3710.66236	0.99687
3708.60545	0.99672
3706.54855	0.99723
3704.49164	0.99803
3702.43473	0.99820
3700.37782	0.99743
3698.32091	0.99698
3696.26400	0.99713
3694.20710	0.99754
3692.15019	0.99806
3690.09328	0.99782
3688.03637	0.99676
3685.97946	0.99634
3683.92256	0.99657
3681.86565	0.99702
3679.80874	0.99742
3677.75183	0.99767
3675.69492	0.99737
3673.63801	0.99625
3671.58111	0.99549
3669.52420	0.99527
3667.46729	0.99491
3665.41038	0.99430
3663.35347	0.99414
3661.29657	0.99468
3659.23966	0.99468
3657.18275	0.99366
3655.12584	0.99310
3653.06893	0.99295
3651.01202	0.99206
3648.95512	0.99131
3646.89821	0.99169
3644.84130	0.99162
3642.78439	0.99107
3640.72748	0.99046
3638.67058	0.98975
3636.61367	0.98914
3634.55676	0.98886
3632.49985	0.98961
3630.44294	0.99150
3628.38603	0.99243
3626.32913	0.99138
3624.27222	0.99023
3622.21531	0.98964
3620.15840	0.98936
3618.10149	0.98841
3616.04459	0.98705
3613.98768	0.98565
3611.93077	0.98511
3609.87386	0.98622
3607.81695	0.98724
3605.76004	0.98717
3603.70314	0.98687
3601.64623	0.98651
3599.58932	0.98586
3597.53241	0.98553
3595.47550	0.98566
3593.41860	0.98586
3591.36169	0.98612
3589.30478	0.98590
3587.24787	0.98504
3585.19096	0.98423
3583.13405	0.98350
3581.07715	0.98291
3579.02024	0.98243
3576.96333	0.98159
3574.90642	0.98084
3572.84951	0.98108
3570.79261	0.98183
3568.73570	0.98210
3566.67879	0.98140
3564.62188	0.97972
3562.56497	0.97805
3560.50806	0.97742
3558.45116	0.97781
3556.39425	0.97852
3554.33734	0.97862
3552.28043	0.97730
3550.22352	0.97593
3548.16662	0.97569
3546.10971	0.97512
3544.05280	0.97347
3541.99589	0.97208
3539.93898	0.97160
3537.88207	0.97140
3535.82517	0.97090
3533.76826	0.97054
3531.71135	0.97063
3529.65444	0.97022
3527.59753	0.96906
3525.54063	0.96824
3523.48372	0.96806
3521.42681	0.96788
3519.36990	0.96741
3517.31299	0.96730
3515.25608	0.96754
3513.19918	0.96717
3511.14227	0.96608
3509.08536	0.96501
3507.02845	0.96472
3504.97154	0.96518
3502.91464	0.96537
3500.85773	0.96479
3498.80082	0.96414
3496.74391	0.96339
3494.68700	0.96221
3492.63009	0.96137
3490.57319	0.96146
3488.51628	0.96205
3486.45937	0.96243
3484.40246	0.96232
3482.34555	0.96179
3480.28865	0.96130
3478.23174	0.96137
3476.17483	0.96198
3474.11792	0.96236
3472.06101	0.96198
3470.00410	0.96148
3467.94720	0.96136
3465.89029	0.96140
3463.83338	0.96170
3461.77647	0.96260
3459.71956	0.96357
3457.66266	0.96391
3455.60575	0.96384
3453.54884	0.96397
3451.49193	0.96456
3449.43502	0.96531
3447.37811	0.96578
3445.32121	0.96589
3443.26430	0.96581
3441.20739	0.96596
3439.15048	0.96635
3437.09357	0.96638
3435.03667	0.96593
3432.97976	0.96569
3430.92285	0.96584
3428.86594	0.96621
3426.80903	0.96713
3424.75212	0.96823
3422.69522	0.96859
3420.63831	0.96815
3418.58140	0.96781
3416.52449	0.96816
3414.46758	0.96877
3412.41068	0.96940
3410.35377	0.96998
3408.29686	0.97005
3406.23995	0.96979
3404.18304	0.97020
3402.12613	0.97129
3400.06923	0.97191
3398.01232	0.97169
3395.95541	0.97152
3393.89850	0.97194
3391.84159	0.97228
3389.78469	0.97220
3387.72778	0.97234
3385.67087	0.97305
3383.61396	0.97414
3381.55705	0.97504
3379.50014	0.97521
3377.44324	0.97464
3375.38633	0.97391
3373.32942	0.97408
3371.27251	0.97531
3369.21560	0.97624
3367.15870	0.97631
3365.10179	0.97620
3363.04488	0.97619
3360.98797	0.97613
3358.93106	0.97586
3356.87415	0.97546
3354.81725	0.97548
3352.76034	0.97603
3350.70343	0.97674
3348.64652	0.97745
3346.58961	0.97794
3344.53271	0.97836
3342.47580	0.97880
3340.41889	0.97917
3338.36198	0.97961
3336.30507	0.97988
3334.24816	0.97971
3332.19126	0.97940
3330.13435	0.97928
3328.07744	0.97958
3326.02053	0.98009
3323.96362	0.98031
3321.90672	0.98024
3319.84981	0.98014
3317.79290	0.98012
3315.73599	0.98021
3313.67908	0.98058
3311.62217	0.98131
3309.56527	0.98163
3307.50836	0.98135
3305.45145	0.98144
3303.39454	0.98191
3301.33763	0.98202
3299.28073	0.98203
3297.22382	0.98242
3295.16691	0.98292
3293.11000	0.98295
3291.05309	0.98270
3288.99618	0.98279
3286.93928	0.98309
3284.88237	0.98337
3282.82546	0.98367
3280.76855	0.98377
3278.71164	0.98330
3276.65474	0.98262
3274.59783	0.98241
3272.54092	0.98259
3270.48401	0.98302
3268.42710	0.98334
3266.37019	0.98314
3264.31329	0.98308
3262.25638	0.98387
3260.19947	0.98465
3258.14256	0.98457
3256.08565	0.98429
3254.02875	0.98454
3251.97184	0.98513
3249.91493	0.98500
3247.85802	0.98437
3245.80111	0.98471
3243.74420	0.98566
3241.68730	0.98641
3239.63039	0.98693
3237.57348	0.98696
3235.51657	0.98661
3233.45966	0.98651
3231.40276	0.98693
3229.34585	0.98730
3227.28894	0.98706
3225.23203	0.98646
3223.17512	0.98602
3221.11821	0.98606
3219.06131	0.98634
3217.00440	0.98657
3214.94749	0.98692
3212.89058	0.98736
3210.83367	0.98754
3208.77677	0.98756
3206.71986	0.98786
3204.66295	0.98836
3202.60604	0.98883
3200.54913	0.98926
3198.49222	0.98932
3196.43532	0.98920
3194.37841	0.98898
3192.32150	0.98814
3190.26459	0.98750
3188.20768	0.98814
3186.15078	0.98917
3184.09387	0.98952
3182.03696	0.98950
3179.98005	0.98949
3177.92314	0.98931
3175.86623	0.98910
3173.80933	0.98907
3171.75242	0.98898
3169.69551	0.98892
3167.63860	0.98901
3165.58169	0.98889
3163.52479	0.98886
3161.46788	0.98903
3159.41097	0.98899
3157.35406	0.98902
3155.29715	0.98932
3153.24024	0.98964
3151.18334	0.98969
3149.12643	0.98958
3147.06952	0.98961
3145.01261	0.98956
3142.95570	0.98942
3140.89880	0.98943
3138.84189	0.98955
3136.78498	0.98997
3134.72807	0.99061
3132.67116	0.99080
3130.61425	0.99058
3128.55735	0.99055
3126.50044	0.99095
3124.44353	0.99153
3122.38662	0.99193
3120.32971	0.99179
3118.27281	0.99118
3116.21590	0.99073
3114.15899	0.99054
3112.10208	0.99058
3110.04517	0.99076
3107.98826	0.99068
3105.93136	0.99049
3103.87445	0.99023
3101.81754	0.99011
3099.76063	0.99032
3097.70372	0.99049
3095.64682	0.99071
3093.58991	0.99107
3091.53300	0.99110
3089.47609	0.99078
3087.41918	0.99083
3085.36227	0.99131
3083.30537	0.99166
3081.24846	0.99158
3079.19155	0.99080
3077.13464	0.99000
3075.07773	0.99019
3073.02083	0.99082
3070.96392	0.99102
3068.90701	0.99092
3066.85010	0.99084
3064.79319	0.99079
3062.73628	0.99099
3060.67938	0.99147
3058.62247	0.99192
3056.56556	0.99156
3054.50865	0.99048
3052.45174	0.98975
3050.39484	0.98962
3048.33793	0.98988
3046.28102	0.99045
3044.22411	0.99083
3042.16720	0.99080
3040.11029	0.99038
3038.05339	0.98970
3035.99648	0.98905
3033.93957	0.98865
3031.88266	0.98867
3029.82575	0.98893
3027.76885	0.98893
3025.71194	0.98869
3023.65503	0.98855
3021.59812	0.98844
3019.54121	0.98842
3017.48430	0.98846
3015.42740	0.98831
3013.37049	0.98822
3011.31358	0.98830
3009.25667	0.98818
3007.19976	0.98775
3005.14286	0.98743
3003.08595	0.98751
3001.02904	0.98777
2998.97213	0.98801
2996.91522	0.98795
2994.85831	0.98731
2992.80141	0.98648
2990.74450	0.98584
2988.68759	0.98542
2986.63068	0.98535
2984.57377	0.98536
2982.51687	0.98506
2980.45996	0.98455
2978.40305	0.98393
2976.34614	0.98324
2974.28923	0.98271
2972.23232	0.98227
2970.17542	0.98159
2968.11851	0.98066
2966.06160	0.97969
2964.00469	0.97909
2961.94778	0.97904
2959.89088	0.97925
2957.83397	0.97954
2955.77706	0.97934
2953.72015	0.97841
2951.66324	0.97756
2949.60633	0.97713
2947.54943	0.97649
2945.49252	0.97584
2943.43561	0.97567
2941.37870	0.97571
2939.32179	0.97609
2937.26489	0.97697
2935.20798	0.97782
2933.15107	0.97810
2931.09416	0.97798
2929.03725	0.97815
2926.98034	0.97875
2924.92344	0.97911
2922.86653	0.97887
2920.80962	0.97847
2918.75271	0.97824
2916.69580	0.97822
2914.63890	0.97824
2912.58199	0.97824
2910.52508	0.97831
2908.46817	0.97852
2906.41126	0.97857
2904.35435	0.97828
2902.29745	0.97816
2900.24054	0.97842
2898.18363	0.97831
2896.12672	0.97751
2894.06981	0.97677
2892.01291	0.97644
2889.95600	0.97650
2887.89909	0.97707
2885.84218	0.97752
2883.78527	0.97745
2881.72836	0.97736
2879.67146	0.97755
2877.61455	0.97785
2875.55764	0.97815
2873.50073	0.97843
2871.44382	0.97895
2869.38692	0.97960
2867.33001	0.98003
2865.27310	0.98069
2863.21619	0.98146
2861.15928	0.98192
2859.10237	0.98240
2857.04547	0.98310
2854.98856	0.98380
2852.93165	0.98450
2850.87474	0.98517
2848.81783	0.98565
2846.76093	0.98616
2844.70402	0.98688
2842.64711	0.98739
2840.59020	0.98755
2838.53329	0.98751
2836.47638	0.98742
2834.41948	0.98763
2832.36257	0.98803
2830.30566	0.98845
2828.24875	0.98878
2826.19184	0.98881
2824.13494	0.98870
2822.07803	0.98856
2820.02112	0.98846
2817.96421	0.98862
2815.90730	0.98891
2813.85039	0.98915
2811.79349	0.98921
2809.73658	0.98905
2807.67967	0.98904
2805.62276	0.98931
2803.56585	0.98959
2801.50895	0.98993
2799.45204	0.99019
2797.39513	0.99019
2795.33822	0.99001
2793.28131	0.98982
2791.22440	0.98991
2789.16750	0.99021
2787.11059	0.99019
2785.05368	0.98999
2782.99677	0.99000
2780.93986	0.99009
2778.88296	0.99022
2776.82605	0.99048
2774.76914	0.99053
2772.71223	0.99039
2770.65532	0.99034
2768.59841	0.99038
2766.54151	0.99057
2764.48460	0.99089
2762.42769	0.99103
2760.37078	0.99088
2758.31387	0.99067
2756.25697	0.99065
2754.20006	0.99087
2752.14315	0.99098
2750.08624	0.99070
2748.02933	0.99036
2745.97242	0.99035
2743.91552	0.99059
2741.85861	0.99065
2739.80170	0.99059
2737.74479	0.99097
2735.68788	0.99138
2733.63098	0.99111
2731.57407	0.99070
2729.51716	0.99065
2727.46025	0.99058
2725.40334	0.99038
2723.34643	0.99027
2721.28953	0.99027
2719.23262	0.99039
2717.17571	0.99062
2715.11880	0.99059
2713.06189	0.99033
2711.00499	0.99029
2708.94808	0.99048
2706.89117	0.99081
2704.83426	0.99114
2702.77735	0.99127
2700.72044	0.99113
2698.66354	0.99098
2696.60663	0.99100
2694.54972	0.99111
2692.49281	0.99131
2690.43590	0.99153
2688.37900	0.99151
2686.32209	0.99126
2684.26518	0.99101
2682.20827	0.99106
2680.15136	0.99134
2678.09445	0.99141
2676.03755	0.99132
2673.98064	0.99122
2671.92373	0.99107
2669.86682	0.99106
2667.80991	0.99117
2665.75301	0.99092
2663.69610	0.99034
2661.63919	0.99013
2659.58228	0.99029
2657.52537	0.99026
2655.46846	0.99015
2653.41156	0.99016
2651.35465	0.98999
2649.29774	0.98992
2647.24083	0.99034
2645.18392	0.99050
2643.12702	0.99009
2641.07011	0.98992
2639.01320	0.99013
2636.95629	0.99027
2634.89938	0.99047
2632.84247	0.99072
2630.78557	0.99078
2628.72866	0.99085
2626.67175	0.99122
2624.61484	0.99132
2622.55793	0.99105
2620.50103	0.99109
2618.44412	0.99121
2616.38721	0.99110
2614.33030	0.99124
2612.27339	0.99175
2610.21648	0.99191
2608.15958	0.99175
2606.10267	0.99182
2604.04576	0.99185
2601.98885	0.99172
2599.93194	0.99192
2597.87504	0.99247
2595.81813	0.99287
2593.76122	0.99265
2591.70431	0.99184
2589.64740	0.99131
2587.59049	0.99157
2585.53359	0.99210
2583.47668	0.99253
2581.41977	0.99291
2579.36286	0.99287
2577.30595	0.99215
2575.24905	0.99171
2573.19214	0.99209
2571.13523	0.99229
2569.07832	0.99179
2567.02141	0.99139
2564.96450	0.99212
2562.90760	0.99333
2560.85069	0.99359
2558.79378	0.99307
2556.73687	0.99267
2554.67996	0.99290
2552.62306	0.99331
2550.56615	0.99360
2548.50924	0.99400
2546.45233	0.99424
2544.39542	0.99422
2542.33851	0.99393
2540.28161	0.99360
2538.22470	0.99361
2536.16779	0.99368
2534.11088	0.99370
2532.05397	0.99385
2529.99707	0.99390
2527.94016	0.99411
2525.88325	0.99434
2523.82634	0.99379
2521.76943	0.99330
2519.71252	0.99344
2517.65562	0.99366
2515.59871	0.99390
2513.54180	0.99377
2511.48489	0.99318
2509.42798	0.99296
2507.37108	0.99342
2505.31417	0.99325
2503.25726	0.99249
2501.20035	0.99276
2499.14344	0.99352
2497.08653	0.99344
2495.02963	0.99269
2492.97272	0.99228
2490.91581	0.99279
2488.85890	0.99344
2486.80199	0.99330
2484.74509	0.99305
2482.68818	0.99342
2480.63127	0.99362
2478.57436	0.99333
2476.51745	0.99322
2474.46054	0.99310
2472.40364	0.99291
2470.34673	0.99323
2468.28982	0.99386
2466.23291	0.99410
2464.17600	0.99404
2462.11910	0.99391
2460.06219	0.99380
2458.00528	0.99406
2455.94837	0.99423
2453.89146	0.99373
2451.83455	0.99320
2449.77765	0.99309
2447.72074	0.99273
2445.66383	0.99196
2443.60692	0.99167
2441.55001	0.99239
2439.49311	0.99353
2437.43620	0.99409
2435.37929	0.99411
2433.32238	0.99427
2431.26547	0.99440
2429.20856	0.99409
2427.15166	0.99356
2425.09475	0.99311
2423.03784	0.99313
2420.98093	0.99373
2418.92402	0.99431
2416.86712	0.99436
2414.81021	0.99403
2412.75330	0.99374
2410.69639	0.99342
2408.63948	0.99300
2406.58257	0.99275
2404.52567	0.99248
2402.46876	0.99221
2400.41185	0.99258
2398.35494	0.99317
2396.29803	0.99304
2394.24113	0.99274
2392.18422	0.99324
2390.12731	0.99396
2388.07040	0.99366
2386.01349	0.99285
2383.95658	0.99275
2381.89968	0.99303
2379.84277	0.99274
2377.78586	0.99231
2375.72895	0.99280
2373.67204	0.99415
2371.61514	0.99526
2369.55823	0.99538
2367.50132	0.99492
2365.44441	0.99470
2363.38750	0.99483
2361.33059	0.99483
2359.27369	0.99514
2357.21678	0.99522
2355.15987	0.99437
2353.10296	0.99379
2351.04605	0.99378
2348.98915	0.99367
2346.93224	0.99348
2344.87533	0.99345
2342.81842	0.99343
2340.76151	0.99358
2338.70460	0.99379
2336.64770	0.99342
2334.59079	0.99295
2332.53388	0.99297
2330.47697	0.99285
2328.42006	0.99207
2326.36316	0.99121
2324.30625	0.99090
2322.24934	0.99092
2320.19243	0.99085
2318.13552	0.99092
2316.07861	0.99140
2314.02171	0.99205
2311.96480	0.99185
2309.90789	0.99095
2307.85098	0.99052
2305.79407	0.99082
2303.73717	0.99111
2301.68026	0.99084
2299.62335	0.99086
2297.56644	0.99164
2295.50953	0.99195
2293.45262	0.99106
2291.39572	0.99038
2289.33881	0.99060
2287.28190	0.99088
2285.22499	0.99118
2283.16808	0.99179
2281.11117	0.99279
2279.05427	0.99333
2276.99736	0.99253
2274.94045	0.99154
2272.88354	0.99170
2270.82663	0.99235
2268.76973	0.99214
2266.71282	0.99149
2264.65591	0.99167
2262.59900	0.99258
2260.54209	0.99309
2258.48518	0.99290
2256.42828	0.99277
2254.37137	0.99295
2252.31446	0.99338
2250.25755	0.99411
2248.20064	0.99449
2246.14374	0.99366
2244.08683	0.99214
2242.02992	0.99166
2239.97301	0.99315
2237.91610	0.99516
2235.85919	0.99496
2233.80229	0.99392
2231.74538	0.99417
2229.68847	0.99395
2227.63156	0.99344
2225.57465	0.99386
2223.51775	0.99433
2221.46084	0.99460
2219.40393	0.99540
2217.34702	0.99578
2215.29011	0.99442
2213.23320	0.99258
2211.17630	0.99140
2209.11939	0.99109
2207.06248	0.99174
2205.00557	0.99242
2202.94866	0.99294
2200.89176	0.99364
2198.83485	0.99436
2196.77794	0.99381
2194.72103	0.99168
2192.66412	0.99103
2190.60721	0.99331
2188.55031	0.99538
2186.49340	0.99501
2184.43649	0.99439
2182.37958	0.99530
2180.32267	0.99668
2178.26577	0.99804
2176.20886	0.99861
2174.15195	0.99718
2172.09504	0.99469
2170.03813	0.99306
2167.98122	0.99295
2165.92432	0.99323
2163.86741	0.99189
2161.81050	0.98974
2159.75359	0.99127
2157.69668	0.99589
2155.63978	0.99821
2153.58287	0.99801
2151.52596	0.99741
2149.46905	0.99704
2147.41214	0.99659
2145.35523	0.99531
2143.29833	0.99406
2141.24142	0.99375
2139.18451	0.99339
2137.12760	0.99326
2135.07069	0.99420
2133.01379	0.99499
2130.95688	0.99518
2128.89997	0.99551
2126.84306	0.99500
2124.78615	0.99380
2122.72924	0.99351
2120.67234	0.99370
2118.61543	0.99354
2116.55852	0.99311
2114.50161	0.99290
2112.44470	0.99301
2110.38780	0.99266
2108.33089	0.99192
2106.27398	0.99147
2104.21707	0.99153
2102.16016	0.99215
2100.10325	0.99267
2098.04635	0.99275
2095.98944	0.99247
2093.93253	0.99191
2091.87562	0.99131
2089.81871	0.99073
2087.76181	0.99129
2085.70490	0.99279
2083.64799	0.99297
2081.59108	0.99229
2079.53417	0.99258
2077.47726	0.99347
2075.42036	0.99359
2073.36345	0.99275
2071.30654	0.99250
2069.24963	0.99324
2067.19272	0.99363
2065.13582	0.99344
2063.07891	0.99393
2061.02200	0.99496
2058.96509	0.99445
2056.90818	0.99316
2054.85127	0.99391
2052.79437	0.99542
2050.73746	0.99520
2048.68055	0.99409
2046.62364	0.99282
2044.56673	0.99216
2042.50983	0.99369
2040.45292	0.99608
2038.39601	0.99676
2036.33910	0.99685
2034.28219	0.99849
2032.22528	1.00000
2030.16838	0.99927
2028.11147	0.99730
2026.05456	0.99622
2023.99765	0.99664
2021.94074	0.99760
2019.88384	0.99770
2017.82693	0.99692
2015.77002	0.99709
2013.71311	0.99657
2011.65620	0.99331
2009.59929	0.99130
2007.54239	0.99292
2005.48548	0.99510
2003.42857	0.99549
2001.37166	0.99477
1999.31475	0.99440
1997.25785	0.99509
1995.20094	0.99640
1993.14403	0.99686
1991.08712	0.99572
1989.03021	0.99357
1986.97330	0.99236
1984.91640	0.99283
1982.85949	0.99267
1980.80258	0.99187
1978.74567	0.99408
1976.68876	0.99817
1974.63186	0.99987
1972.57495	1.00000
1970.51804	0.99959
1968.46113	0.99880
1966.40422	0.99783
1964.34731	0.99737
1962.29041	0.99814
1960.23350	0.99759
1958.17659	0.99564
1956.11968	0.99517
1954.06277	0.99567
1952.00587	0.99549
1949.94896	0.99516
1947.89205	0.99626
1945.83514	0.99831
1943.77823	0.99911
1941.72132	0.99789
1939.66442	0.99627
1937.60751	0.99542
1935.55060	0.99512
1933.49369	0.99522
1931.43678	0.99499
1929.37988	0.99457
1927.32297	0.99487
1925.26606	0.99524
1923.20915	0.99498
1921.15224	0.99476
1919.09533	0.99464
1917.03843	0.99440
1914.98152	0.99459
1912.92461	0.99549
1910.86770	0.99681
1908.81079	0.99697
1906.75389	0.99617
1904.69698	0.99639
1902.64007	0.99738
1900.58316	0.99801
1898.52625	0.99809
1896.46934	0.99803
1894.41244	0.99849
1892.35553	0.99928
1890.29862	0.99984
1888.24171	0.99959
1886.18480	0.99825
1884.12790	0.99707
1882.07099	0.99671
1880.01408	0.99663
1877.95717	0.99659
1875.90026	0.99682
1873.84335	0.99685
1871.78645	0.99663
1869.72954	0.99705
1867.67263	0.99762
1865.61572	0.99785
1863.55881	0.99820
1861.50191	0.99849
1859.44500	0.99817
1857.38809	0.99771
1855.33118	0.99799
1853.27427	0.99889
1851.21736	0.99946
1849.16046	0.99918
1847.10355	0.99836
1845.04664	0.99765
1842.98973	0.99731
1840.93282	0.99697
1838.87592	0.99665
1836.81901	0.99683
1834.76210	0.99757
1832.70519	0.99804
1830.64828	0.99788
1828.59137	0.99686
1826.53447	0.99564
1824.47756	0.99510
1822.42065	0.99520
1820.36374	0.99533
1818.30683	0.99530
1816.24993	0.99525
1814.19302	0.99490
1812.13611	0.99436
1810.07920	0.99374
1808.02229	0.99318
1805.96538	0.99271
1803.90848	0.99228
1801.85157	0.99157
1799.79466	0.99049
1797.73775	0.98922
1795.68084	0.98800
1793.62394	0.98709
1791.56703	0.98591
1789.51012	0.98447
1787.45321	0.98302
1785.39630	0.98136
1783.33939	0.97909
1781.28249	0.97641
1779.22558	0.97303
1777.16867	0.96902
1775.11176	0.96422
1773.05485	0.95639
1770.99795	0.94464
1768.94104	0.93128
1766.88413	0.91512
1764.82722	0.89681
1762.77031	0.87461
1760.71340	0.84829
1758.65650	0.82461
1756.59959	0.80137
1754.54268	0.78116
1752.48577	0.76518
1750.42886	0.74715
1748.37196	0.72875
1746.31505	0.71570
1744.25814	0.70656
1742.20123	0.69974
1740.14432	0.69495
1738.08741	0.69390
1736.03051	0.69707
1733.97360	0.70147
1731.91669	0.70804
1729.85978	0.71868
1727.80287	0.73188
1725.74597	0.74638
1723.68906	0.76272
1721.63215	0.77969
1719.57524	0.79762
1717.51833	0.81973
1715.46142	0.84208
1713.40452	0.86010
1711.34761	0.87601
1709.29070	0.89043
1707.23379	0.90402
1705.17688	0.91707
1703.11998	0.92714
1701.06307	0.93574
1699.00616	0.94443
1696.94925	0.95058
1694.89234	0.95478
1692.83543	0.95771
1690.77853	0.96064
1688.72162	0.96401
1686.66471	0.96701
1684.60780	0.96958
1682.55089	0.97111
1680.49399	0.97233
1678.43708	0.97349
1676.38017	0.97425
1674.32326	0.97502
1672.26635	0.97612
1670.20944	0.97679
1668.15254	0.97637
1666.09563	0.97601
1664.03872	0.97577
1661.98181	0.97531
1659.92490	0.97516
1657.86800	0.97548
1655.81109	0.97612
1653.75418	0.97638
1651.69727	0.97514
1649.64036	0.97466
1647.58345	0.97475
1645.52655	0.97444
1643.46964	0.97429
1641.41273	0.97455
1639.35582	0.97508
1637.29891	0.97587
1635.24201	0.97620
1633.18510	0.97593
1631.12819	0.97632
1629.07128	0.97719
1627.01437	0.97800
1624.95746	0.97870
1622.90056	0.97953
1620.84365	0.98040
1618.78674	0.98128
1616.72983	0.98195
1614.67292	0.98233
1612.61602	0.98323
1610.55911	0.98452
1608.50220	0.98540
1606.44529	0.98590
1604.38838	0.98662
1602.33147	0.98752
1600.27457	0.98818
1598.21766	0.98842
1596.16075	0.98865
1594.10384	0.98904
1592.04693	0.98929
1589.99003	0.98955
1587.93312	0.98992
1585.87621	0.99032
1583.81930	0.99063
1581.76239	0.99071
1579.70548	0.99062
1577.64858	0.99078
1575.59167	0.99130
1573.53476	0.99173
1571.47785	0.99217
1569.42094	0.99251
1567.36404	0.99244
1565.30713	0.99219
1563.25022	0.99204
1561.19331	0.99252
1559.13640	0.99368
1557.07949	0.99351
1555.02259	0.99301
1552.96568	0.99290
1550.90877	0.99302
1548.85186	0.99335
1546.79495	0.99369
1544.73805	0.99408
1542.68114	0.99483
1540.62423	0.99548
1538.56732	0.99478
1536.51041	0.99438
1534.45350	0.99471
1532.39660	0.99476
1530.33969	0.99436
1528.28278	0.99428
1526.22587	0.99460
1524.16896	0.99522
1522.11206	0.99574
1520.05515	0.99560
1517.99824	0.99534
1515.94133	0.99497
1513.88442	0.99460
1511.82751	0.99458
1509.77061	0.99518
1507.71370	0.99641
1505.65679	0.99625
1503.59988	0.99539
1501.54297	0.99549
1499.48607	0.99619
1497.42916	0.99644
1495.37225	0.99587
1493.31534	0.99573
1491.25843	0.99593
1489.20152	0.99547
1487.14462	0.99445
1485.08771	0.99377
1483.03080	0.99329
1480.97389	0.99262
1478.91698	0.99189
1476.86008	0.99114
1474.80317	0.99003
1472.74626	0.98798
1470.68935	0.98522
1468.63244	0.98285
1466.57553	0.98066
1464.51863	0.97798
1462.46172	0.97530
1460.40481	0.97326
1458.34790	0.97077
1456.29099	0.96708
1454.23409	0.96460
1452.17718	0.96293
1450.12027	0.96104
1448.06336	0.95882
1446.00645	0.95629
1443.94954	0.95357
1441.89264	0.95087
1439.83573	0.94875
1437.77882	0.94669
1435.72191	0.94399
1433.66500	0.94251
1431.60810	0.94238
1429.55119	0.94285
1427.49428	0.94401
1425.43737	0.94586
1423.38046	0.94788
1421.32355	0.94984
1419.26665	0.95179
1417.20974	0.95309
1415.15283	0.95400
1413.09592	0.95500
1411.03901	0.95593
1408.98211	0.95667
1406.92520	0.95710
1404.86829	0.95695
1402.81138	0.95632
1400.75447	0.95532
1398.69756	0.95349
1396.64066	0.95043
1394.58375	0.94537
1392.52684	0.93858
1390.46993	0.93107
1388.41302	0.92144
1386.35612	0.90878
1384.29921	0.89577
1382.24230	0.88309
1380.18539	0.87019
1378.12848	0.85800
1376.07157	0.84671
1374.01467	0.83574
1371.95776	0.82783
1369.90085	0.82505
1367.84394	0.82706
1365.78703	0.83436
1363.73013	0.84804
1361.67322	0.86798
1359.61631	0.88893
1357.55940	0.90788
1355.50249	0.92431
1353.44558	0.93699
1351.38868	0.94591
1349.33177	0.95197
1347.27486	0.95589
1345.21795	0.95841
1343.16104	0.96023
1341.10414	0.96171
1339.04723	0.96263
1336.99032	0.96289
1334.93341	0.96296
1332.87650	0.96278
1330.81959	0.96229
1328.76269	0.96169
1326.70578	0.96084
1324.64887	0.95985
1322.59196	0.95911
1320.53505	0.95858
1318.47815	0.95827
1316.42124	0.95824
1314.36433	0.95831
1312.30742	0.95839
1310.25051	0.95848
1308.19360	0.95844
1306.13670	0.95812
1304.07979	0.95749
1302.02288	0.95670
1299.96597	0.95574
1297.90906	0.95426
1295.85216	0.95207
1293.79525	0.94906
1291.73834	0.94538
1289.68143	0.94138
1287.62452	0.93694
1285.56761	0.93188
1283.51071	0.92630
1281.45380	0.92017
1279.39689	0.91317
1277.33998	0.90508
1275.28307	0.89604
1273.22617	0.88635
1271.16926	0.87609
1269.11235	0.86516
1267.05544	0.85350
1264.99853	0.84126
1262.94162	0.82834
1260.88472	0.81439
1258.82781	0.79954
1256.77090	0.78414
1254.71399	0.76829
1252.65708	0.75206
1250.60018	0.73544
1248.54327	0.71861
1246.48636	0.70183
1244.42945	0.68503
1242.37254	0.66819
1240.31563	0.65163
1238.25873	0.63560
1236.20182	0.62048
1234.14491	0.60672
1232.08800	0.59459
1230.03109	0.58469
1227.97419	0.57781
1225.91728	0.57433
1223.86037	0.57445
1221.80346	0.57856
1219.74655	0.58685
1217.68964	0.59942
1215.63274	0.61630
1213.57583	0.63742
1211.51892	0.66271
1209.46201	0.69138
1207.40510	0.72205
1205.34820	0.75366
1203.29129	0.78497
1201.23438	0.81438
1199.17747	0.84066
1197.12056	0.86293
1195.06365	0.88064
1193.00675	0.89395
1190.94984	0.90328
1188.89293	0.90895
1186.83602	0.91143
1184.77911	0.91146
1182.72221	0.90963
1180.66530	0.90613
1178.60839	0.90125
1176.55148	0.89570
1174.49457	0.89002
1172.43766	0.88446
1170.38076	0.87935
1168.32385	0.87504
1166.26694	0.87188
1164.21003	0.87013
1162.15312	0.87004
1160.09622	0.87144
1158.03931	0.87383
1155.98240	0.87711
1153.92549	0.88115
1151.86858	0.88525
1149.81167	0.88865
1147.75477	0.89124
1145.69786	0.89294
1143.64095	0.89328
1141.58404	0.89205
1139.52713	0.88945
1137.47023	0.88583
1135.41332	0.88152
1133.35641	0.87664
1131.29950	0.87139
1129.24259	0.86614
1127.18568	0.86124
1125.12878	0.85691
1123.07187	0.85353
1121.01496	0.85138
1118.95805	0.85010
1116.90114	0.84905
1114.84424	0.84778
1112.78733	0.84628
1110.73042	0.84473
1108.67351	0.84301
1106.61660	0.84086
1104.55969	0.83811
1102.50279	0.83479
1100.44588	0.83048
1098.38897	0.82472
1096.33206	0.81806
1094.27515	0.81093
1092.21825	0.80259
1090.16134	0.79282
1088.10443	0.78234
1086.04752	0.77152
1083.99061	0.76049
1081.93370	0.74943
1079.87680	0.73835
1077.81989	0.72736
1075.76298	0.71669
1073.70607	0.70653
1071.64916	0.69719
1069.59226	0.68853
1067.53535	0.68010
1065.47844	0.67155
1063.42153	0.66297
1061.36462	0.65448
1059.30771	0.64552
1057.25081	0.63571
1055.19390	0.62576
1053.13699	0.61649
1051.08008	0.60786
1049.02317	0.59958
1046.96627	0.59170
1044.90936	0.58450
1042.85245	0.57828
1040.79554	0.57276
1038.73863	0.56756
1036.68172	0.56333
1034.62482	0.56119
1032.56791	0.56187
1030.51100	0.56629
1028.45409	0.57538
1026.39718	0.58876
1024.34028	0.60488
1022.28337	0.62232
1020.22646	0.64016
1018.16955	0.65787
1016.11264	0.67532
1014.05573	0.69239
1011.99883	0.70906
1009.94192	0.72530
1007.88501	0.74088
1005.82810	0.75546
1003.77119	0.76869
1001.71429	0.78068
999.65738	0.79180
997.60047	0.80203
995.54356	0.81104
993.48665	0.81884
991.42974	0.82574
989.37284	0.83203
987.31593	0.83805
985.25902	0.84378
983.20211	0.84919
981.14520	0.85498
979.08830	0.86168
977.03139	0.86900
974.97448	0.87656
972.91757	0.88441
970.86066	0.89253
968.80375	0.90045
966.74685	0.90766
964.68994	0.91363
962.63303	0.91783
960.57612	0.92032
958.51921	0.92188
956.46231	0.92359
954.40540	0.92553
952.34849	0.92730
950.29158	0.92911
948.23467	0.93096
946.17776	0.93255
944.12086	0.93412
942.06395	0.93562
940.00704	0.93657
937.95013	0.93677
935.89322	0.93659
933.83632	0.93644
931.77941	0.93608
929.72250	0.93472
927.66559	0.93229
925.60868	0.92969
923.55177	0.92741
921.49487	0.92502
919.43796	0.92240
917.38105	0.92018
915.32414	0.91865
913.26723	0.91700
911.21033	0.91425
909.15342	0.91082
907.09651	0.90801
905.03960	0.90647
902.98269	0.90628
900.92578	0.90728
898.86888	0.90933
896.81197	0.91265
894.75506	0.91705
892.69815	0.92172
890.64124	0.92598
888.58434	0.92983
886.52743	0.93382
884.47052	0.93821
882.41361	0.94278
880.35670	0.94704
878.29979	0.95079
876.24289	0.95465
874.18598	0.95916
872.12907	0.96348
870.07216	0.96710
868.01525	0.97076
865.95835	0.97438
863.90144	0.97728
861.84453	0.97943
859.78762	0.98100
857.73071	0.98176
855.67380	0.98181
853.61690	0.98161
851.55999	0.98118
849.50308	0.98081
847.44617	0.98038
845.38926	0.97920
843.33236	0.97793
841.27545	0.97755
839.21854	0.97737
837.16163	0.97730
835.10472	0.97829
833.04781	0.98003
830.99091	0.98228
828.93400	0.98522
826.87709	0.98858
824.82018	0.99155
822.76327	0.99281
820.70637	0.99287
818.64946	0.99332
816.59255	0.99413
814.53564	0.99483
812.47873	0.99573
810.42182	0.99667
808.36492	0.99711
806.30801	0.99720
804.25110	0.99757
802.19419	0.99828
800.13728	0.99852
798.08038	0.99830
796.02347	0.99834
793.96656	0.99875
791.90965	0.99919
789.85274	0.99911
787.79583	0.99866
785.73893	0.99864
783.68202	0.99910
781.62511	0.99961
779.56820	1.00000
777.51129	1.00001
775.45439	0.99983
773.39748	1.00000
771.34057	1.00040
769.28366	1.00036
767.22675	1.00045
765.16984	1.00057
763.11294	1.00088
761.05603	1.00185
758.99912	1.00272
756.94221	1.00284
754.88530	1.00301
752.82839	1.00377
750.77149	1.00482
748.71458	1.00560
746.65767	1.00570
744.60076	1.00521
742.54385	1.00465
740.48695	1.00453
738.43004	1.00488
736.37313	1.00507
734.31622	1.00441
732.25931	1.00310
730.20240	1.00181
728.14550	1.00115
726.08859	1.00117
724.03168	1.00127
721.97477	1.00088
719.91786	1.00000
717.86096	0.99893
715.80405	0.99764
713.74714	0.99671
711.69023	0.99677
709.63332	0.99708
707.57641	0.99696
705.51951	0.99668
703.46260	0.99601
701.40569	0.99497
699.34878	0.99428
697.29187	0.99360
695.23497	0.99227
693.17806	0.99023
691.12115	0.98790
689.06424	0.98657
687.00733	0.98635
684.95042	0.98632
682.89352	0.98656
680.83661	0.98692
678.77970	0.98719
676.72279	0.98764
674.66588	0.98853
672.60898	0.99075
670.55207	0.99357
668.49516	0.99410
666.43825	0.99190
664.38134	0.99052
662.32443	0.98965
660.26753	0.98801
658.21062	0.98610
656.15371	0.98493
654.09680	0.98423
652.03989	0.98317
649.98299	0.98183
647.92608	0.98057
645.86917	0.97878
643.81226	0.97651
641.75535	0.97434
639.69844	0.97192
637.64154	0.96944
635.58463	0.96769
633.52772	0.96609
631.47081	0.96396
629.41390	0.96234
627.35700	0.96147
625.30009	0.96043
623.24318	0.95904
621.18627	0.95747
619.12936	0.95515
617.07245	0.95129
615.01555	0.94555
612.95864	0.93733
610.90173	0.92731
608.84482	0.91761
606.78791	0.90947
604.73101	0.90469
602.67410	0.90505
600.61719	0.90960
598.56028	0.91710
596.50337	0.92622
594.44646	0.93532
592.38956	0.94450
590.33265	0.95337
588.27574	0.96072
586.21883	0.96677
584.16192	0.97123
582.10502	0.97400
580.04811	0.97596
577.99120	0.97648
575.93429	0.97552
573.87738	0.97465
571.82047	0.97361
569.76357	0.97179
567.70666	0.96952
565.64975	0.96724
563.59284	0.96610
561.53593	0.96647
559.47903	0.96732
557.42212	0.96769
555.36521	0.96839
553.30830	0.97035
551.25139	0.97327
549.19448	0.97619
547.13758	0.97752
545.08067	0.97817
543.02376	0.97917
540.96685	0.97860
538.90994	0.97750
536.85304	0.97793
534.79613	0.97918
532.73922	0.98083
530.68231	0.98250
528.62540	0.98358
526.56849	0.98352
524.51159	0.98259
522.45468	0.98177
520.39777	0.98075
518.34086	0.97939
516.28395	0.97876
514.22705	0.97952
512.17014	0.97944
510.11323	0.97780
508.05632	0.97689
505.99941	0.97711
503.94250	0.97694
501.88560	0.97568
499.82869	0.97460
497.77178	0.97394
495.71487	0.97288
493.65796	0.97266
491.60106	0.97416
489.54415	0.97471
487.48724	0.97212
485.43033	0.96954
483.37342	0.97097
481.31651	0.97406
479.25961	0.97456
477.20270	0.97266
475.14579	0.97022
473.08888	0.96847
471.03197	0.96939
468.97507	0.97068
466.91816	0.96903
464.86125	0.96801
462.80434	0.96847
460.74743	0.96750
458.69052	0.96549
456.63362	0.96320
454.57671	0.96291
452.51980	0.96496
450.46289	0.96579
448.40598	0.96486
446.34908	0.96470
444.29217	0.96503
442.23526	0.96643
440.17835	0.97158
438.12144	0.97725
436.06453	0.97978
434.00763	0.97991
431.95072	0.97890
429.89381	0.97965
427.83690	0.98327
425.77999	0.98721
423.72309	0.99257
421.66618	0.99891
419.60927	1.00000
417.55236	0.99961
415.49545	1.00297
413.43854	1.00545
411.38164	1.00593
409.32473	1.00475
407.26782	1.00107
405.21091	1.00042
403.15400	1.00402
401.09710	1.00540
399.04019	1.00000
