3996.57260	0.98776
3994.51569	0.98766
3992.45878	0.98733
3990.40188	0.98690
3988.34497	0.98678
3986.28806	0.98700
3984.23115	0.98765
3982.17424	0.98852
3980.11733	0.98880
3978.06043	0.98813
3976.00352	0.98710
3973.94661	0.98670
3971.88970	0.98703
3969.83279	0.98734
3967.77589	0.98741
3965.71898	0.98735
3963.66207	0.98720
3961.60516	0.98730
3959.54825	0.98746
3957.49134	0.98719
3955.43444	0.98695
3953.37753	0.98719
3951.32062	0.98763
3949.26371	0.98803
3947.20680	0.98800
3945.14990	0.98767
3943.09299	0.98751
3941.03608	0.98729
3938.97917	0.98708
3936.92226	0.98709
3934.86535	0.98700
3932.80845	0.98696
3930.75154	0.98753
3928.69463	0.98833
3926.63772	0.98843
3924.58081	0.98768
3922.52391	0.98702
3920.46700	0.98704
3918.41009	0.98693
3916.35318	0.98659
3914.29627	0.98671
3912.23936	0.98709
3910.18246	0.98716
3908.12555	0.98669
3906.06864	0.98687
3904.01173	0.98852
3901.95482	0.98925
3899.89792	0.98798
3897.84101	0.98725
3895.78410	0.98729
3893.72719	0.98723
3891.67028	0.98745
3889.61337	0.98788
3887.55647	0.98796
3885.49956	0.98746
3883.44265	0.98713
3881.38574	0.98734
3879.32883	0.98747
3877.27193	0.98757
3875.21502	0.98762
3873.15811	0.98730
3871.10120	0.98710
3869.04429	0.98761
3866.98738	0.98808
3864.93048	0.98806
3862.87357	0.98774
3860.81666	0.98732
3858.75975	0.98703
3856.70284	0.98685
3854.64594	0.98699
3852.58903	0.98749
3850.53212	0.98772
3848.47521	0.98791
3846.41830	0.98793
3844.36139	0.98789
3842.30449	0.98823
3840.24758	0.98868
3838.19067	0.98876
3836.13376	0.98852
3834.07685	0.98840
3832.01995	0.98808
3829.96304	0.98725
3827.90613	0.98673
3825.84922	0.98702
3823.79231	0.98780
3821.73540	0.98859
3819.67850	0.98883
3817.62159	0.98860
3815.56468	0.98856
3813.50777	0.98828
3811.45086	0.98719
3809.39396	0.98615
3807.33705	0.98613
3805.28014	0.98680
3803.22323	0.98709
3801.16632	0.98707
3799.10941	0.98718
3797.05251	0.98693
3794.99560	0.98653
3792.93869	0.98648
3790.88178	0.98670
3788.82487	0.98725
3786.76796	0.98777
3784.71106	0.98777
3782.65415	0.98782
3780.59724	0.98817
3778.54033	0.98800
3776.48342	0.98734
3774.42652	0.98695
3772.36961	0.98707
3770.31270	0.98757
3768.25579	0.98820
3766.19888	0.98839
3764.14197	0.98802
3762.08507	0.98754
3760.02816	0.98749
3757.97125	0.98820
3755.91434	0.98873
3753.85743	0.98884
3751.80053	0.98910
3749.74362	0.98840
3747.68671	0.98688
3745.62980	0.98595
3743.57289	0.98612
3741.51598	0.98748
3739.45908	0.98914
3737.40217	0.98990
3735.34526	0.98902
3733.28835	0.98826
3731.23144	0.98838
3729.17454	0.98821
3727.11763	0.98776
3725.06072	0.98766
3723.00381	0.98800
3720.94690	0.98819
3718.88999	0.98790
3716.83309	0.98757
3714.77618	0.98781
3712.71927	0.98857
3710.66236	0.98887
3708.60545	0.98820
3706.54855	0.98791
3704.49164	0.98843
3702.43473	0.98851
3700.37782	0.98780
3698.32091	0.98723
3696.26400	0.98716
3694.20710	0.98768
3692.15019	0.98869
3690.09328	0.98931
3688.03637	0.98864
3685.97946	0.98760
3683.92256	0.98710
3681.86565	0.98762
3679.80874	0.98864
3677.75183	0.98849
3675.69492	0.98679
3673.63801	0.98567
3671.58111	0.98579
3669.52420	0.98630
3667.46729	0.98706
3665.41038	0.98719
3663.35347	0.98622
3661.29657	0.98507
3659.23966	0.98507
3657.18275	0.98597
3655.12584	0.98630
3653.06893	0.98609
3651.01202	0.98568
3648.95512	0.98484
3646.89821	0.98501
3644.84130	0.98584
3642.78439	0.98599
3640.72748	0.98608
3638.67058	0.98639
3636.61367	0.98632
3634.55676	0.98600
3632.49985	0.98618
3630.44294	0.98687
3628.38603	0.98689
3626.32913	0.98649
3624.27222	0.98642
3622.21531	0.98611
3620.15840	0.98550
3618.10149	0.98597
3616.04459	0.98717
3613.98768	0.98724
3611.93077	0.98653
3609.87386	0.98604
3607.81695	0.98627
3605.76004	0.98696
3603.70314	0.98721
3601.64623	0.98702
3599.58932	0.98657
3597.53241	0.98601
3595.47550	0.98577
3593.41860	0.98591
3591.36169	0.98577
3589.30478	0.98568
3587.24787	0.98641
3585.19096	0.98681
3583.13405	0.98656
3581.07715	0.98637
3579.02024	0.98639
3576.96333	0.98691
3574.90642	0.98735
3572.84951	0.98708
3570.79261	0.98680
3568.73570	0.98659
3566.67879	0.98632
3564.62188	0.98608
3562.56497	0.98535
3560.50806	0.98486
3558.45116	0.98547
3556.39425	0.98611
3554.33734	0.98596
3552.28043	0.98591
3550.22352	0.98647
3548.16662	0.98645
3546.10971	0.98588
3544.05280	0.98593
3541.99589	0.98630
3539.93898	0.98670
3537.88207	0.98708
3535.82517	0.98707
3533.76826	0.98671
3531.71135	0.98630
3529.65444	0.98626
3527.59753	0.98642
3525.54063	0.98627
3523.48372	0.98623
3521.42681	0.98664
3519.36990	0.98672
3517.31299	0.98611
3515.25608	0.98552
3513.19918	0.98542
3511.14227	0.98571
3509.08536	0.98630
3507.02845	0.98668
3504.97154	0.98631
3502.91464	0.98555
3500.85773	0.98488
3498.80082	0.98425
3496.74391	0.98399
3494.68700	0.98454
3492.63009	0.98545
3490.57319	0.98593
3488.51628	0.98570
3486.45937	0.98541
3484.40246	0.98563
3482.34555	0.98566
3480.28865	0.98532
3478.23174	0.98542
3476.17483	0.98577
3474.11792	0.98593
3472.06101	0.98594
3470.00410	0.98563
3467.94720	0.98538
3465.89029	0.98582
3463.83338	0.98620
3461.77647	0.98603
3459.71956	0.98607
3457.66266	0.98603
3455.60575	0.98555
3453.54884	0.98525
3451.49193	0.98509
3449.43502	0.98501
3447.37811	0.98531
3445.32121	0.98580
3443.26430	0.98615
3441.20739	0.98595
3439.15048	0.98541
3437.09357	0.98552
3435.03667	0.98598
3432.97976	0.98592
3430.92285	0.98569
3428.86594	0.98570
3426.80903	0.98569
3424.75212	0.98584
3422.69522	0.98611
3420.63831	0.98593
3418.58140	0.98555
3416.52449	0.98579
3414.46758	0.98654
3412.41068	0.98694
3410.35377	0.98681
3408.29686	0.98678
3406.23995	0.98693
3404.18304	0.98681
3402.12613	0.98662
3400.06923	0.98647
3398.01232	0.98642
3395.95541	0.98687
3393.89850	0.98724
3391.84159	0.98702
3389.78469	0.98663
3387.72778	0.98646
3385.67087	0.98677
3383.61396	0.98702
3381.55705	0.98682
3379.50014	0.98682
3377.44324	0.98696
3375.38633	0.98686
3373.32942	0.98646
3371.27251	0.98599
3369.21560	0.98598
3367.15870	0.98643
3365.10179	0.98673
3363.04488	0.98687
3360.98797	0.98715
3358.93106	0.98736
3356.87415	0.98745
3354.81725	0.98750
3352.76034	0.98720
3350.70343	0.98633
3348.64652	0.98535
3346.58961	0.98515
3344.53271	0.98597
3342.47580	0.98677
3340.41889	0.98676
3338.36198	0.98660
3336.30507	0.98675
3334.24816	0.98654
3332.19126	0.98611
3330.13435	0.98610
3328.07744	0.98630
3326.02053	0.98645
3323.96362	0.98647
3321.90672	0.98666
3319.84981	0.98718
3317.79290	0.98707
3315.73599	0.98606
3313.67908	0.98556
3311.62217	0.98595
3309.56527	0.98612
3307.50836	0.98563
3305.45145	0.98512
3303.39454	0.98521
3301.33763	0.98562
3299.28073	0.98575
3297.22382	0.98581
3295.16691	0.98632
3293.11000	0.98681
3291.05309	0.98673
3288.99618	0.98673
3286.93928	0.98702
3284.88237	0.98685
3282.82546	0.98629
3280.76855	0.98628
3278.71164	0.98691
3276.65474	0.98725
3274.59783	0.98723
3272.54092	0.98695
3270.48401	0.98620
3268.42710	0.98588
3266.37019	0.98633
3264.31329	0.98661
3262.25638	0.98680
3260.19947	0.98739
3258.14256	0.98779
3256.08565	0.98724
3254.02875	0.98612
3251.97184	0.98581
3249.91493	0.98649
3247.85802	0.98703
3245.80111	0.98685
3243.74420	0.98665
3241.68730	0.98693
3239.63039	0.98725
3237.57348	0.98730
3235.51657	0.98699
3233.45966	0.98680
3231.40276	0.98681
3229.34585	0.98655
3227.28894	0.98627
3225.23203	0.98592
3223.17512	0.98570
3221.11821	0.98609
3219.06131	0.98642
3217.00440	0.98602
3214.94749	0.98526
3212.89058	0.98504
3210.83367	0.98552
3208.77677	0.98609
3206.71986	0.98655
3204.66295	0.98681
3202.60604	0.98689
3200.54913	0.98703
3198.49222	0.98734
3196.43532	0.98756
3194.37841	0.98708
3192.32150	0.98639
3190.26459	0.98642
3188.20768	0.98641
3186.15078	0.98592
3184.09387	0.98575
3182.03696	0.98599
3179.98005	0.98623
3177.92314	0.98624
3175.86623	0.98622
3173.80933	0.98651
3171.75242	0.98680
3169.69551	0.98673
3167.63860	0.98650
3165.58169	0.98636
3163.52479	0.98616
3161.46788	0.98591
3159.41097	0.98608
3157.35406	0.98652
3155.29715	0.98678
3153.24024	0.98698
3151.18334	0.98707
3149.12643	0.98643
3147.06952	0.98553
3145.01261	0.98509
3142.95570	0.98498
3140.89880	0.98524
3138.84189	0.98566
3136.78498	0.98576
3134.72807	0.98560
3132.67116	0.98537
3130.61425	0.98530
3128.55735	0.98552
3126.50044	0.98562
3124.44353	0.98577
3122.38662	0.98633
3120.32971	0.98683
3118.27281	0.98685
3116.21590	0.98655
3114.15899	0.98642
3112.10208	0.98644
3110.04517	0.98618
3107.98826	0.98603
3105.93136	0.98601
3103.87445	0.98563
3101.81754	0.98536
3099.76063	0.98561
3097.70372	0.98586
3095.64682	0.98593
3093.58991	0.98601
3091.53300	0.98604
3089.47609	0.98613
3087.41918	0.98624
3085.36227	0.98624
3083.30537	0.98636
3081.24846	0.98657
3079.19155	0.98653
3077.13464	0.98646
3075.07773	0.98632
3073.02083	0.98575
3070.96392	0.98509
3068.90701	0.98495
3066.85010	0.98521
3064.79319	0.98563
3062.73628	0.98604
3060.67938	0.98599
3058.62247	0.98548
3056.56556	0.98525
3054.50865	0.98554
3052.45174	0.98545
3050.39484	0.98498
3048.33793	0.98505
3046.28102	0.98533
3044.22411	0.98524
3042.16720	0.98515
3040.11029	0.98539
3038.05339	0.98561
3035.99648	0.98571
3033.93957	0.98573
3031.88266	0.98549
3029.82575	0.98515
3027.76885	0.98493
3025.71194	0.98481
3023.65503	0.98464
3021.59812	0.98441
3019.54121	0.98431
3017.48430	0.98420
3015.42740	0.98410
3013.37049	0.98408
3011.31358	0.98411
3009.25667	0.98425
3007.19976	0.98443
3005.14286	0.98444
3003.08595	0.98424
3001.02904	0.98378
2998.97213	0.98321
2996.91522	0.98318
2994.85831	0.98365
2992.80141	0.98399
2990.74450	0.98416
2988.68759	0.98393
2986.63068	0.98335
2984.57377	0.98333
2982.51687	0.98365
2980.45996	0.98342
2978.40305	0.98314
2976.34614	0.98320
2974.28923	0.98290
2972.23232	0.98214
2970.17542	0.98163
2968.11851	0.98137
2966.06160	0.98078
2964.00469	0.98020
2961.94778	0.98011
2959.89088	0.98022
2957.83397	0.98027
2955.77706	0.98022
2953.72015	0.98011
2951.66324	0.98011
2949.60633	0.98017
2947.54943	0.98029
2945.49252	0.98049
2943.43561	0.98031
2941.37870	0.97977
2939.32179	0.97987
2937.26489	0.98058
2935.20798	0.98106
2933.15107	0.98127
2931.09416	0.98145
2929.03725	0.98162
2926.98034	0.98202
2924.92344	0.98264
2922.86653	0.98292
2920.80962	0.98289
2918.75271	0.98296
2916.69580	0.98285
2914.63890	0.98226
2912.58199	0.98181
2910.52508	0.98211
2908.46817	0.98285
2906.41126	0.98308
2904.35435	0.98287
2902.29745	0.98282
2900.24054	0.98254
2898.18363	0.98220
2896.12672	0.98233
2894.06981	0.98253
2892.01291	0.98242
2889.95600	0.98209
2887.89909	0.98193
2885.84218	0.98194
2883.78527	0.98180
2881.72836	0.98167
2879.67146	0.98176
2877.61455	0.98186
2875.55764	0.98186
2873.50073	0.98168
2871.44382	0.98147
2869.38692	0.98171
2867.33001	0.98227
2865.27310	0.98264
2863.21619	0.98266
2861.15928	0.98237
2859.10237	0.98195
2857.04547	0.98180
2854.98856	0.98232
2852.93165	0.98315
2850.87474	0.98355
2848.81783	0.98359
2846.76093	0.98370
2844.70402	0.98405
2842.64711	0.98449
2840.59020	0.98474
2838.53329	0.98479
2836.47638	0.98462
2834.41948	0.98420
2832.36257	0.98395
2830.30566	0.98409
2828.24875	0.98448
2826.19184	0.98484
2824.13494	0.98489
2822.07803	0.98484
2820.02112	0.98478
2817.96421	0.98466
2815.90730	0.98453
2813.85039	0.98450
2811.79349	0.98464
2809.73658	0.98470
2807.67967	0.98468
2805.62276	0.98495
2803.56585	0.98522
2801.50895	0.98507
2799.45204	0.98485
2797.39513	0.98505
2795.33822	0.98522
2793.28131	0.98494
2791.22440	0.98463
2789.16750	0.98463
2787.11059	0.98473
2785.05368	0.98480
2782.99677	0.98489
2780.93986	0.98498
2778.88296	0.98497
2776.82605	0.98481
2774.76914	0.98481
2772.71223	0.98499
2770.65532	0.98490
2768.59841	0.98475
2766.54151	0.98514
2764.48460	0.98538
2762.42769	0.98492
2760.37078	0.98462
2758.31387	0.98495
2756.25697	0.98536
2754.20006	0.98515
2752.14315	0.98460
2750.08624	0.98433
2748.02933	0.98431
2745.97242	0.98442
2743.91552	0.98469
2741.85861	0.98485
2739.80170	0.98482
2737.74479	0.98484
2735.68788	0.98483
2733.63098	0.98459
2731.57407	0.98442
2729.51716	0.98463
2727.46025	0.98505
2725.40334	0.98527
2723.34643	0.98515
2721.28953	0.98495
2719.23262	0.98475
2717.17571	0.98467
2715.11880	0.98492
2713.06189	0.98508
2711.00499	0.98500
2708.94808	0.98511
2706.89117	0.98525
2704.83426	0.98514
2702.77735	0.98496
2700.72044	0.98476
2698.66354	0.98480
2696.60663	0.98515
2694.54972	0.98531
2692.49281	0.98528
2690.43590	0.98530
2688.37900	0.98519
2686.32209	0.98488
2684.26518	0.98484
2682.20827	0.98504
2680.15136	0.98491
2678.09445	0.98470
2676.03755	0.98492
2673.98064	0.98537
2671.92373	0.98563
2669.86682	0.98561
2667.80991	0.98539
2665.75301	0.98526
2663.69610	0.98526
2661.63919	0.98505
2659.58228	0.98480
2657.52537	0.98504
2655.46846	0.98535
2653.41156	0.98503
2651.35465	0.98447
2649.29774	0.98443
2647.24083	0.98486
2645.18392	0.98510
2643.12702	0.98499
2641.07011	0.98485
2639.01320	0.98472
2636.95629	0.98452
2634.89938	0.98424
2632.84247	0.98421
2630.78557	0.98465
2628.72866	0.98521
2626.67175	0.98548
2624.61484	0.98528
2622.55793	0.98495
2620.50103	0.98494
2618.44412	0.98500
2616.38721	0.98496
2614.33030	0.98505
2612.27339	0.98519
2610.21648	0.98507
2608.15958	0.98480
2606.10267	0.98467
2604.04576	0.98474
2601.98885	0.98503
2599.93194	0.98542
2597.87504	0.98581
2595.81813	0.98594
2593.76122	0.98569
2591.70431	0.98556
2589.64740	0.98548
2587.59049	0.98512
2585.53359	0.98516
2583.47668	0.98573
2581.41977	0.98589
2579.36286	0.98577
2577.30595	0.98590
2575.24905	0.98632
2573.19214	0.98685
2571.13523	0.98680
2569.07832	0.98598
2567.02141	0.98541
2564.96450	0.98551
2562.90760	0.98588
2560.85069	0.98628
2558.79378	0.98625
2556.73687	0.98598
2554.67996	0.98571
2552.62306	0.98517
2550.56615	0.98517
2548.50924	0.98586
2546.45233	0.98613
2544.39542	0.98600
2542.33851	0.98564
2540.28161	0.98496
2538.22470	0.98469
2536.16779	0.98542
2534.11088	0.98625
2532.05397	0.98618
2529.99707	0.98573
2527.94016	0.98523
2525.88325	0.98491
2523.82634	0.98539
2521.76943	0.98598
2519.71252	0.98599
2517.65562	0.98583
2515.59871	0.98542
2513.54180	0.98477
2511.48489	0.98455
2509.42798	0.98493
2507.37108	0.98557
2505.31417	0.98597
2503.25726	0.98594
2501.20035	0.98584
2499.14344	0.98596
2497.08653	0.98654
2495.02963	0.98698
2492.97272	0.98683
2490.91581	0.98658
2488.85890	0.98655
2486.80199	0.98670
2484.74509	0.98663
2482.68818	0.98599
2480.63127	0.98562
2478.57436	0.98639
2476.51745	0.98745
2474.46054	0.98755
2472.40364	0.98678
2470.34673	0.98591
2468.28982	0.98581
2466.23291	0.98612
2464.17600	0.98596
2462.11910	0.98622
2460.06219	0.98704
2458.00528	0.98718
2455.94837	0.98681
2453.89146	0.98657
2451.83455	0.98662
2449.77765	0.98692
2447.72074	0.98678
2445.66383	0.98603
2443.60692	0.98559
2441.55001	0.98554
2439.49311	0.98524
2437.43620	0.98506
2435.37929	0.98542
2433.32238	0.98579
2431.26547	0.98614
2429.20856	0.98695
2427.15166	0.98747
2425.09475	0.98710
2423.03784	0.98677
2420.98093	0.98674
2418.92402	0.98660
2416.86712	0.98616
2414.81021	0.98570
2412.75330	0.98566
2410.69639	0.98594
2408.63948	0.98630
2406.58257	0.98647
2404.52567	0.98641
2402.46876	0.98618
2400.41185	0.98597
2398.35494	0.98590
2396.29803	0.98573
2394.24113	0.98575
2392.18422	0.98589
2390.12731	0.98581
2388.07040	0.98572
2386.01349	0.98578
2383.95658	0.98576
2381.89968	0.98573
2379.84277	0.98609
2377.78586	0.98648
2375.72895	0.98659
2373.67204	0.98675
2371.61514	0.98678
2369.55823	0.98673
2367.50132	0.98632
2365.44441	0.98527
2363.38750	0.98471
2361.33059	0.98531
2359.27369	0.98625
2357.21678	0.98628
2355.15987	0.98585
2353.10296	0.98593
2351.04605	0.98608
2348.98915	0.98609
2346.93224	0.98602
2344.87533	0.98591
2342.81842	0.98567
2340.76151	0.98540
2338.70460	0.98552
2336.64770	0.98602
2334.59079	0.98711
2332.53388	0.98836
2330.47697	0.98833
2328.42006	0.98703
2326.36316	0.98593
2324.30625	0.98588
2322.24934	0.98621
2320.19243	0.98598
2318.13552	0.98542
2316.07861	0.98529
2314.02171	0.98571
2311.96480	0.98589
2309.90789	0.98572
2307.85098	0.98569
2305.79407	0.98552
2303.73717	0.98537
2301.68026	0.98542
2299.62335	0.98508
2297.56644	0.98495
2295.50953	0.98577
2293.45262	0.98664
2291.39572	0.98679
2289.33881	0.98629
2287.28190	0.98566
2285.22499	0.98561
2283.16808	0.98619
2281.11117	0.98686
2279.05427	0.98685
2276.99736	0.98656
2274.94045	0.98691
2272.88354	0.98704
2270.82663	0.98654
2268.76973	0.98608
2266.71282	0.98596
2264.65591	0.98585
2262.59900	0.98538
2260.54209	0.98551
2258.48518	0.98671
2256.42828	0.98746
2254.37137	0.98649
2252.31446	0.98479
2250.25755	0.98394
2248.20064	0.98467
2246.14374	0.98628
2244.08683	0.98714
2242.02992	0.98713
2239.97301	0.98694
2237.91610	0.98619
2235.85919	0.98549
2233.80229	0.98565
2231.74538	0.98567
2229.68847	0.98530
2227.63156	0.98483
2225.57465	0.98411
2223.51775	0.98458
2221.46084	0.98692
2219.40393	0.98883
2217.34702	0.98850
2215.29011	0.98710
2213.23320	0.98674
2211.17630	0.98717
2209.11939	0.98712
2207.06248	0.98715
2205.00557	0.98740
2202.94866	0.98693
2200.89176	0.98647
2198.83485	0.98753
2196.77794	0.98875
2194.72103	0.98823
2192.66412	0.98705
2190.60721	0.98707
2188.55031	0.98804
2186.49340	0.98769
2184.43649	0.98545
2182.37958	0.98393
2180.32267	0.98422
2178.26577	0.98467
2176.20886	0.98503
2174.15195	0.98678
2172.09504	0.98850
2170.03813	0.98758
2167.98122	0.98613
2165.92432	0.98586
2163.86741	0.98432
2161.81050	0.98264
2159.75359	0.98509
2157.69668	0.98908
2155.63978	0.98953
2153.58287	0.98856
2151.52596	0.98896
2149.46905	0.99017
2147.41214	0.99058
2145.35523	0.98945
2143.29833	0.98789
2141.24142	0.98614
2139.18451	0.98468
2137.12760	0.98522
2135.07069	0.98698
2133.01379	0.98823
2130.95688	0.98889
2128.89997	0.98894
2126.84306	0.98809
2124.78615	0.98684
2122.72924	0.98672
2120.67234	0.98842
2118.61543	0.98966
2116.55852	0.98836
2114.50161	0.98606
2112.44470	0.98495
2110.38780	0.98488
2108.33089	0.98515
2106.27398	0.98578
2104.21707	0.98592
2102.16016	0.98516
2100.10325	0.98491
2098.04635	0.98558
2095.98944	0.98633
2093.93253	0.98646
2091.87562	0.98608
2089.81871	0.98578
2087.76181	0.98558
2085.70490	0.98581
2083.64799	0.98653
2081.59108	0.98659
2079.53417	0.98618
2077.47726	0.98643
2075.42036	0.98713
2073.36345	0.98758
2071.30654	0.98771
2069.24963	0.98773
2067.19272	0.98750
2065.13582	0.98753
2063.07891	0.98825
2061.02200	0.98813
2058.96509	0.98708
2056.90818	0.98695
2054.85127	0.98691
2052.79437	0.98584
2050.73746	0.98534
2048.68055	0.98576
2046.62364	0.98628
2044.56673	0.98682
2042.50983	0.98636
2040.45292	0.98541
2038.39601	0.98572
2036.33910	0.98585
2034.28219	0.98526
2032.22528	0.98551
2030.16838	0.98634
2028.11147	0.98819
2026.05456	0.99110
2023.99765	0.99160
2021.94074	0.98853
2019.88384	0.98613
2017.82693	0.98697
2015.77002	0.98907
2013.71311	0.99076
2011.65620	0.99082
2009.59929	0.98906
2007.54239	0.98735
2005.48548	0.98671
2003.42857	0.98658
2001.37166	0.98624
1999.31475	0.98680
1997.25785	0.98759
1995.20094	0.98665
1993.14403	0.98578
1991.08712	0.98655
1989.03021	0.98797
1986.97330	0.98923
1984.91640	0.99000
1982.85949	0.99025
1980.80258	0.99010
1978.74567	0.98912
1976.68876	0.98741
1974.63186	0.98657
1972.57495	0.98793
1970.51804	0.98923
1968.46113	0.98702
1966.40422	0.98392
1964.34731	0.98341
1962.29041	0.98431
1960.23350	0.98495
1958.17659	0.98471
1956.11968	0.98464
1954.06277	0.98572
1952.00587	0.98754
1949.94896	0.98841
1947.89205	0.98821
1945.83514	0.98863
1943.77823	0.98883
1941.72132	0.98847
1939.66442	0.98861
1937.60751	0.98834
1935.55060	0.98784
1933.49369	0.98823
1931.43678	0.98897
1929.37988	0.98950
1927.32297	0.98977
1925.26606	0.98970
1923.20915	0.98922
1921.15224	0.98833
1919.09533	0.98754
1917.03843	0.98746
1914.98152	0.98784
1912.92461	0.98794
1910.86770	0.98789
1908.81079	0.98797
1906.75389	0.98779
1904.69698	0.98788
1902.64007	0.98855
1900.58316	0.98877
1898.52625	0.98854
1896.46934	0.98822
1894.41244	0.98788
1892.35553	0.98812
1890.29862	0.98897
1888.24171	0.99001
1886.18480	0.99062
1884.12790	0.98989
1882.07099	0.98835
1880.01408	0.98788
1877.95717	0.98881
1875.90026	0.98980
1873.84335	0.99008
1871.78645	0.98987
1869.72954	0.98938
1867.67263	0.98907
1865.61572	0.98930
1863.55881	0.98948
1861.50191	0.98945
1859.44500	0.98955
1857.38809	0.98955
1855.33118	0.98913
1853.27427	0.98875
1851.21736	0.98875
1849.16046	0.98900
1847.10355	0.98958
1845.04664	0.99026
1842.98973	0.99027
1840.93282	0.98970
1838.87592	0.98915
1836.81901	0.98903
1834.76210	0.98930
1832.70519	0.98962
1830.64828	0.99026
1828.59137	0.99083
1826.53447	0.99040
1824.47756	0.98930
1822.42065	0.98892
1820.36374	0.98948
1818.30683	0.98983
1816.24993	0.98949
1814.19302	0.98895
1812.13611	0.98883
1810.07920	0.98897
1808.02229	0.98891
1805.96538	0.98890
1803.90848	0.98919
1801.85157	0.98910
1799.79466	0.98850
1797.73775	0.98793
1795.68084	0.98742
1793.62394	0.98697
1791.56703	0.98643
1789.51012	0.98576
1787.45321	0.98526
1785.39630	0.98482
1783.33939	0.98400
1781.28249	0.98260
1779.22558	0.98055
1777.16867	0.97810
1775.11176	0.97524
1773.05485	0.97107
1770.99795	0.96536
1768.94104	0.95876
1766.88413	0.95067
1764.82722	0.94184
1762.77031	0.93172
1760.71340	0.92038
1758.65650	0.91099
1756.59959	0.90256
1754.54268	0.89524
1752.48577	0.88951
1750.42886	0.88349
1748.37196	0.87768
1746.31505	0.87350
1744.25814	0.86993
1742.20123	0.86620
1740.14432	0.86272
1738.08741	0.86104
1736.03051	0.86158
1733.97360	0.86356
1731.91669	0.86747
1729.85978	0.87326
1727.80287	0.88064
1725.74597	0.88907
1723.68906	0.89785
1721.63215	0.90573
1719.57524	0.91327
1717.51833	0.92182
1715.46142	0.92924
1713.40452	0.93438
1711.34761	0.93871
1709.29070	0.94239
1707.23379	0.94541
1705.17688	0.94816
1703.11998	0.95084
1701.06307	0.95356
1699.00616	0.95610
1696.94925	0.95804
1694.89234	0.95954
1692.83543	0.96096
1690.77853	0.96246
1688.72162	0.96389
1686.66471	0.96545
1684.60780	0.96709
1682.55089	0.96754
1680.49399	0.96760
1678.43708	0.96806
1676.38017	0.96856
1674.32326	0.96909
1672.26635	0.96986
1670.20944	0.97047
1668.15254	0.97067
1666.09563	0.97109
1664.03872	0.97168
1661.98181	0.97196
1659.92490	0.97194
1657.86800	0.97199
1655.81109	0.97223
1653.75418	0.97207
1651.69727	0.97117
1649.64036	0.97114
1647.58345	0.97162
1645.52655	0.97212
1643.46964	0.97264
1641.41273	0.97311
1639.35582	0.97351
1637.29891	0.97389
1635.24201	0.97417
1633.18510	0.97424
1631.12819	0.97436
1629.07128	0.97479
1627.01437	0.97539
1624.95746	0.97584
1622.90056	0.97595
1620.84365	0.97603
1618.78674	0.97636
1616.72983	0.97666
1614.67292	0.97678
1612.61602	0.97709
1610.55911	0.97740
1608.50220	0.97759
1606.44529	0.97795
1604.38838	0.97841
1602.33147	0.97881
1600.27457	0.97910
1598.21766	0.97925
1596.16075	0.97947
1594.10384	0.97976
1592.04693	0.97996
1589.99003	0.97996
1587.93312	0.97984
1585.87621	0.97991
1583.81930	0.98015
1581.76239	0.98033
1579.70548	0.98036
1577.64858	0.98034
1575.59167	0.98063
1573.53476	0.98087
1571.47785	0.98079
1569.42094	0.98092
1567.36404	0.98128
1565.30713	0.98137
1563.25022	0.98139
1561.19331	0.98135
1559.13640	0.98096
1557.07949	0.98077
1555.02259	0.98092
1552.96568	0.98101
1550.90877	0.98117
1548.85186	0.98123
1546.79495	0.98132
1544.73805	0.98188
1542.68114	0.98260
1540.62423	0.98278
1538.56732	0.98249
1536.51041	0.98211
1534.45350	0.98176
1532.39660	0.98179
1530.33969	0.98212
1528.28278	0.98220
1526.22587	0.98204
1524.16896	0.98203
1522.11206	0.98209
1520.05515	0.98195
1517.99824	0.98196
1515.94133	0.98224
1513.88442	0.98256
1511.82751	0.98296
1509.77061	0.98324
1507.71370	0.98297
1505.65679	0.98268
1503.59988	0.98302
1501.54297	0.98342
1499.48607	0.98372
1497.42916	0.98389
1495.37225	0.98377
1493.31534	0.98353
1491.25843	0.98335
1489.20152	0.98322
1487.14462	0.98317
1485.08771	0.98313
1483.03080	0.98299
1480.97389	0.98288
1478.91698	0.98296
1476.86008	0.98293
1474.80317	0.98259
1472.74626	0.98217
1470.68935	0.98171
1468.63244	0.98093
1466.57553	0.97971
1464.51863	0.97849
1462.46172	0.97784
1460.40481	0.97742
1458.34790	0.97655
1456.29099	0.97526
1454.23409	0.97456
1452.17718	0.97413
1450.12027	0.97352
1448.06336	0.97260
1446.00645	0.97149
1443.94954	0.97043
1441.89264	0.96939
1439.83573	0.96842
1437.77882	0.96738
1435.72191	0.96627
1433.66500	0.96569
1431.60810	0.96551
1429.55119	0.96577
1427.49428	0.96643
1425.43737	0.96713
1423.38046	0.96815
1421.32355	0.96947
1419.26665	0.97071
1417.20974	0.97155
1415.15283	0.97222
1413.09592	0.97317
1411.03901	0.97424
1408.98211	0.97490
1406.92520	0.97528
1404.86829	0.97577
1402.81138	0.97605
1400.75447	0.97592
1398.69756	0.97543
1396.64066	0.97426
1394.58375	0.97230
1392.52684	0.96977
1390.46993	0.96670
1388.41302	0.96253
1386.35612	0.95718
1384.29921	0.95182
1382.24230	0.94682
1380.18539	0.94202
1378.12848	0.93760
1376.07157	0.93325
1374.01467	0.92823
1371.95776	0.92318
1369.90085	0.91893
1367.84394	0.91567
1365.78703	0.91458
1363.73013	0.91661
1361.67322	0.92210
1359.61631	0.93012
1357.55940	0.93917
1355.50249	0.94832
1353.44558	0.95656
1351.38868	0.96261
1349.33177	0.96629
1347.27486	0.96873
1345.21795	0.97061
1343.16104	0.97208
1341.10414	0.97337
1339.04723	0.97441
1336.99032	0.97488
1334.93341	0.97501
1332.87650	0.97502
1330.81959	0.97485
1328.76269	0.97466
1326.70578	0.97450
1324.64887	0.97427
1322.59196	0.97418
1320.53505	0.97441
1318.47815	0.97480
1316.42124	0.97531
1314.36433	0.97595
1312.30742	0.97657
1310.25051	0.97710
1308.19360	0.97768
1306.13670	0.97837
1304.07979	0.97877
1302.02288	0.97849
1299.96597	0.97782
1297.90906	0.97713
1295.85216	0.97659
1293.79525	0.97617
1291.73834	0.97572
1289.68143	0.97512
1287.62452	0.97438
1285.56761	0.97353
1283.51071	0.97241
1281.45380	0.97096
1279.39689	0.96918
1277.33998	0.96701
1275.28307	0.96454
1273.22617	0.96184
1271.16926	0.95885
1269.11235	0.95550
1267.05544	0.95174
1264.99853	0.94739
1262.94162	0.94251
1260.88472	0.93746
1258.82781	0.93218
1256.77090	0.92641
1254.71399	0.92032
1252.65708	0.91393
1250.60018	0.90689
1248.54327	0.89934
1246.48636	0.89163
1244.42945	0.88373
1242.37254	0.87552
1240.31563	0.86715
1238.25873	0.85910
1236.20182	0.85169
1234.14491	0.84486
1232.08800	0.83868
1230.03109	0.83342
1227.97419	0.82932
1225.91728	0.82635
1223.86037	0.82423
1221.80346	0.82261
1219.74655	0.82089
1217.68964	0.81876
1215.63274	0.81664
1213.57583	0.81498
1211.51892	0.81412
1209.46201	0.81473
1207.40510	0.81752
1205.34820	0.82285
1203.29129	0.83069
1201.23438	0.84084
1199.17747	0.85265
1197.12056	0.86473
1195.06365	0.87573
1193.00675	0.88549
1190.94984	0.89422
1188.89293	0.90150
1186.83602	0.90676
1184.77911	0.91023
1182.72221	0.91251
1180.66530	0.91382
1178.60839	0.91429
1176.55148	0.91420
1174.49457	0.91388
1172.43766	0.91351
1170.38076	0.91303
1168.32385	0.91257
1166.26694	0.91254
1164.21003	0.91298
1162.15312	0.91367
1160.09622	0.91470
1158.03931	0.91617
1155.98240	0.91791
1153.92549	0.91991
1151.86858	0.92207
1149.81167	0.92442
1147.75477	0.92682
1145.69786	0.92874
1143.64095	0.93004
1141.58404	0.93073
1139.52713	0.93094
1137.47023	0.93084
1135.41332	0.93034
1133.35641	0.92937
1131.29950	0.92787
1129.24259	0.92583
1127.18568	0.92411
1125.12878	0.92346
1123.07187	0.92359
1121.01496	0.92405
1118.95805	0.92461
1116.90114	0.92523
1114.84424	0.92596
1112.78733	0.92685
1110.73042	0.92756
1108.67351	0.92758
1106.61660	0.92731
1104.55969	0.92742
1102.50279	0.92728
1100.44588	0.92572
1098.38897	0.92278
1096.33206	0.91932
1094.27515	0.91560
1092.21825	0.91154
1090.16134	0.90740
1088.10443	0.90351
1086.04752	0.89980
1083.99061	0.89625
1081.93370	0.89287
1079.87680	0.88944
1077.81989	0.88619
1075.76298	0.88288
1073.70607	0.87917
1071.64916	0.87574
1069.59226	0.87277
1067.53535	0.86984
1065.47844	0.86715
1063.42153	0.86441
1061.36462	0.86072
1059.30771	0.85618
1057.25081	0.85115
1055.19390	0.84558
1053.13699	0.83989
1051.08008	0.83440
1049.02317	0.82911
1046.96627	0.82443
1044.90936	0.82069
1042.85245	0.81746
1040.79554	0.81437
1038.73863	0.81165
1036.68172	0.80941
1034.62482	0.80743
1032.56791	0.80595
1030.51100	0.80554
1028.45409	0.80652
1026.39718	0.80921
1024.34028	0.81330
1022.28337	0.81777
1020.22646	0.82220
1018.16955	0.82696
1016.11264	0.83187
1014.05573	0.83680
1011.99883	0.84203
1009.94192	0.84725
1007.88501	0.85213
1005.82810	0.85673
1003.77119	0.86118
1001.71429	0.86567
999.65738	0.86996
997.60047	0.87348
995.54356	0.87605
993.48665	0.87805
991.42974	0.87984
989.37284	0.88153
987.31593	0.88335
985.25902	0.88529
983.20211	0.88727
981.14520	0.88948
979.08830	0.89183
977.03139	0.89426
974.97448	0.89698
972.91757	0.90017
970.86066	0.90343
968.80375	0.90630
966.74685	0.90865
964.68994	0.91025
962.63303	0.91123
960.57612	0.91207
958.51921	0.91287
956.46231	0.91356
954.40540	0.91410
952.34849	0.91452
950.29158	0.91509
948.23467	0.91591
946.17776	0.91710
944.12086	0.91862
942.06395	0.91989
940.00704	0.92088
937.95013	0.92225
935.89322	0.92373
933.83632	0.92470
931.77941	0.92510
929.72250	0.92484
927.66559	0.92418
925.60868	0.92379
923.55177	0.92358
921.49487	0.92291
919.43796	0.92211
917.38105	0.92175
915.32414	0.92135
913.26723	0.92007
911.21033	0.91767
909.15342	0.91469
907.09651	0.91179
905.03960	0.90925
902.98269	0.90694
900.92578	0.90499
898.86888	0.90386
896.81197	0.90390
894.75506	0.90538
892.69815	0.90820
890.64124	0.91158
888.58434	0.91479
886.52743	0.91738
884.47052	0.91880
882.41361	0.91890
880.35670	0.91869
878.29979	0.91878
876.24289	0.91871
874.18598	0.91871
872.12907	0.91978
870.07216	0.92200
868.01525	0.92462
865.95835	0.92765
863.90144	0.93066
861.84453	0.93232
859.78762	0.93282
857.73071	0.93361
855.67380	0.93514
853.61690	0.93659
851.55999	0.93743
849.50308	0.93760
847.44617	0.93736
845.38926	0.93735
843.33236	0.93728
841.27545	0.93667
839.21854	0.93598
837.16163	0.93574
835.10472	0.93631
833.04781	0.93760
830.99091	0.93860
828.93400	0.93926
826.87709	0.94046
824.82018	0.94189
822.76327	0.94300
820.70637	0.94411
818.64946	0.94503
816.59255	0.94537
814.53564	0.94590
812.47873	0.94678
810.42182	0.94699
808.36492	0.94675
806.30801	0.94700
804.25110	0.94768
802.19419	0.94847
800.13728	0.94915
798.08038	0.94953
796.02347	0.94979
793.96656	0.95001
791.90965	0.95020
789.85274	0.95024
787.79583	0.95006
785.73893	0.95018
783.68202	0.95101
781.62511	0.95198
779.56820	0.95260
777.51129	0.95260
775.45439	0.95214
773.39748	0.95238
771.34057	0.95330
769.28366	0.95362
767.22675	0.95339
765.16984	0.95378
763.11294	0.95473
761.05603	0.95513
758.99912	0.95483
756.94221	0.95436
754.88530	0.95389
752.82839	0.95370
750.77149	0.95402
748.71458	0.95431
746.65767	0.95428
744.60076	0.95469
742.54385	0.95554
740.48695	0.95605
738.43004	0.95617
736.37313	0.95625
734.31622	0.95644
732.25931	0.95599
730.20240	0.95478
728.14550	0.95425
726.08859	0.95468
724.03168	0.95501
721.97477	0.95459
719.91786	0.95391
717.86096	0.95422
715.80405	0.95549
713.74714	0.95615
711.69023	0.95534
709.63332	0.95412
707.57641	0.95326
705.51951	0.95219
703.46260	0.95101
701.40569	0.95026
699.34878	0.95042
697.29187	0.95107
695.23497	0.95068
693.17806	0.94979
691.12115	0.94974
689.06424	0.95006
687.00733	0.95063
684.95042	0.95141
682.89352	0.95145
680.83661	0.95096
678.77970	0.95114
676.72279	0.95169
674.66588	0.95199
672.60898	0.95218
670.55207	0.95229
668.49516	0.95154
666.43825	0.95031
664.38134	0.95065
662.32443	0.95148
660.26753	0.95114
658.21062	0.95061
656.15371	0.95048
654.09680	0.94926
652.03989	0.94767
649.98299	0.94684
647.92608	0.94614
645.86917	0.94520
643.81226	0.94456
641.75535	0.94461
639.69844	0.94513
637.64154	0.94565
635.58463	0.94559
633.52772	0.94504
631.47081	0.94431
629.41390	0.94342
627.35700	0.94224
625.30009	0.94093
623.24318	0.93996
621.18627	0.93885
619.12936	0.93663
617.07245	0.93448
615.01555	0.93407
612.95864	0.93290
610.90173	0.92929
608.84482	0.92493
606.78791	0.92013
604.73101	0.91557
602.67410	0.91291
600.61719	0.91191
598.56028	0.91259
596.50337	0.91472
594.44646	0.91694
592.38956	0.91899
590.33265	0.92123
588.27574	0.92448
586.21883	0.92856
584.16192	0.93212
582.10502	0.93481
580.04811	0.93696
577.99120	0.93945
575.93429	0.94172
573.87738	0.94218
571.82047	0.94198
569.76357	0.94181
567.70666	0.94089
565.64975	0.94027
563.59284	0.93976
561.53593	0.93831
559.47903	0.93640
557.42212	0.93462
555.36521	0.93374
553.30830	0.93448
551.25139	0.93634
549.19448	0.93791
547.13758	0.93866
545.08067	0.93893
543.02376	0.93951
540.96685	0.94118
538.90994	0.94347
536.85304	0.94506
534.79613	0.94515
532.73922	0.94463
530.68231	0.94453
528.62540	0.94489
526.56849	0.94483
524.51159	0.94469
522.45468	0.94500
520.39777	0.94454
518.34086	0.94432
516.28395	0.94539
514.22705	0.94547
512.17014	0.94379
510.11323	0.94246
508.05632	0.94330
505.99941	0.94540
503.94250	0.94564
501.88560	0.94383
499.82869	0.94196
497.77178	0.93964
495.71487	0.93716
493.65796	0.93697
491.60106	0.93882
489.54415	0.93870
487.48724	0.93644
485.43033	0.93518
483.37342	0.93483
481.31651	0.93465
479.25961	0.93481
477.20270	0.93469
475.14579	0.93458
473.08888	0.93555
471.03197	0.93671
468.97507	0.93765
466.91816	0.93831
464.86125	0.93730
462.80434	0.93493
460.74743	0.93317
458.69052	0.93267
456.63362	0.93183
454.57671	0.93093
452.51980	0.93095
450.46289	0.93091
448.40598	0.93068
446.34908	0.93040
444.29217	0.92967
442.23526	0.92923
440.17835	0.92930
438.12144	0.92992
436.06453	0.93210
434.00763	0.93408
431.95072	0.93479
429.89381	0.93558
427.83690	0.93572
425.77999	0.93547
423.72309	0.93533
421.66618	0.93554
419.60927	0.93660
417.55236	0.93440
415.49545	0.93287
413.43854	0.93592
411.38164	0.93764
409.32473	0.93544
407.26782	0.93377
405.21091	0.93197
403.15400	0.92757
401.09710	0.92422
399.04019	0.92612
