3996.57260	0.98763
3994.51569	0.98776
3992.45878	0.98738
3990.40188	0.98690
3988.34497	0.98690
3986.28806	0.98747
3984.23115	0.98837
3982.17424	0.98866
3980.11733	0.98800
3978.06043	0.98747
3976.00352	0.98748
3973.94661	0.98762
3971.88970	0.98781
3969.83279	0.98795
3967.77589	0.98797
3965.71898	0.98777
3963.66207	0.98766
3961.60516	0.98835
3959.54825	0.98906
3957.49134	0.98892
3955.43444	0.98865
3953.37753	0.98838
3951.32062	0.98792
3949.26371	0.98816
3947.20680	0.98884
3945.14990	0.98882
3943.09299	0.98865
3941.03608	0.98870
3938.97917	0.98834
3936.92226	0.98771
3934.86535	0.98736
3932.80845	0.98756
3930.75154	0.98816
3928.69463	0.98830
3926.63772	0.98783
3924.58081	0.98756
3922.52391	0.98796
3920.46700	0.98837
3918.41009	0.98814
3916.35318	0.98755
3914.29627	0.98739
3912.23936	0.98793
3910.18246	0.98844
3908.12555	0.98836
3906.06864	0.98833
3904.01173	0.98880
3901.95482	0.98892
3899.89792	0.98842
3897.84101	0.98782
3895.78410	0.98749
3893.72719	0.98771
3891.67028	0.98816
3889.61337	0.98844
3887.55647	0.98875
3885.49956	0.98872
3883.44265	0.98808
3881.38574	0.98793
3879.32883	0.98862
3877.27193	0.98879
3875.21502	0.98833
3873.15811	0.98814
3871.10120	0.98824
3869.04429	0.98833
3866.98738	0.98804
3864.93048	0.98741
3862.87357	0.98765
3860.81666	0.98870
3858.75975	0.98927
3856.70284	0.98892
3854.64594	0.98801
3852.58903	0.98766
3850.53212	0.98801
3848.47521	0.98810
3846.41830	0.98791
3844.36139	0.98769
3842.30449	0.98788
3840.24758	0.98889
3838.19067	0.98927
3836.13376	0.98813
3834.07685	0.98743
3832.01995	0.98760
3829.96304	0.98811
3827.90613	0.98844
3825.84922	0.98829
3823.79231	0.98844
3821.73540	0.98900
3819.67850	0.98866
3817.62159	0.98791
3815.56468	0.98808
3813.50777	0.98846
3811.45086	0.98860
3809.39396	0.98883
3807.33705	0.98891
3805.28014	0.98917
3803.22323	0.98961
3801.16632	0.98957
3799.10941	0.98903
3797.05251	0.98853
3794.99560	0.98841
3792.93869	0.98863
3790.88178	0.98887
3788.82487	0.98870
3786.76796	0.98839
3784.71106	0.98837
3782.65415	0.98817
3780.59724	0.98782
3778.54033	0.98782
3776.48342	0.98833
3774.42652	0.98909
3772.36961	0.98961
3770.31270	0.98964
3768.25579	0.98945
3766.19888	0.98935
3764.14197	0.98903
3762.08507	0.98841
3760.02816	0.98792
3757.97125	0.98804
3755.91434	0.98874
3753.85743	0.98968
3751.80053	0.99024
3749.74362	0.98928
3747.68671	0.98800
3745.62980	0.98769
3743.57289	0.98802
3741.51598	0.98814
3739.45908	0.98795
3737.40217	0.98799
3735.34526	0.98856
3733.28835	0.98921
3731.23144	0.98944
3729.17454	0.98952
3727.11763	0.98937
3725.06072	0.98901
3723.00381	0.98921
3720.94690	0.98988
3718.88999	0.98968
3716.83309	0.98847
3714.77618	0.98779
3712.71927	0.98811
3710.66236	0.98848
3708.60545	0.98844
3706.54855	0.98801
3704.49164	0.98755
3702.43473	0.98770
3700.37782	0.98851
3698.32091	0.98912
3696.26400	0.98886
3694.20710	0.98800
3692.15019	0.98749
3690.09328	0.98776
3688.03637	0.98864
3685.97946	0.98975
3683.92256	0.99008
3681.86565	0.98909
3679.80874	0.98803
3677.75183	0.98783
3675.69492	0.98756
3673.63801	0.98734
3671.58111	0.98756
3669.52420	0.98730
3667.46729	0.98714
3665.41038	0.98751
3663.35347	0.98742
3661.29657	0.98719
3659.23966	0.98721
3657.18275	0.98717
3655.12584	0.98781
3653.06893	0.98889
3651.01202	0.98916
3648.95512	0.98834
3646.89821	0.98797
3644.84130	0.98828
3642.78439	0.98820
3640.72748	0.98774
3638.67058	0.98734
3636.61367	0.98715
3634.55676	0.98712
3632.49985	0.98719
3630.44294	0.98754
3628.38603	0.98801
3626.32913	0.98758
3624.27222	0.98684
3622.21531	0.98659
3620.15840	0.98711
3618.10149	0.98811
3616.04459	0.98845
3613.98768	0.98794
3611.93077	0.98705
3609.87386	0.98684
3607.81695	0.98743
3605.76004	0.98707
3603.70314	0.98606
3601.64623	0.98566
3599.58932	0.98580
3597.53241	0.98620
3595.47550	0.98686
3593.41860	0.98736
3591.36169	0.98735
3589.30478	0.98704
3587.24787	0.98675
3585.19096	0.98663
3583.13405	0.98614
3581.07715	0.98536
3579.02024	0.98525
3576.96333	0.98593
3574.90642	0.98628
3572.84951	0.98639
3570.79261	0.98667
3568.73570	0.98674
3566.67879	0.98707
3564.62188	0.98754
3562.56497	0.98698
3560.50806	0.98547
3558.45116	0.98452
3556.39425	0.98490
3554.33734	0.98565
3552.28043	0.98596
3550.22352	0.98596
3548.16662	0.98607
3546.10971	0.98580
3544.05280	0.98529
3541.99589	0.98546
3539.93898	0.98557
3537.88207	0.98503
3535.82517	0.98433
3533.76826	0.98371
3531.71135	0.98350
3529.65444	0.98363
3527.59753	0.98371
3525.54063	0.98374
3523.48372	0.98390
3521.42681	0.98432
3519.36990	0.98457
3517.31299	0.98441
3515.25608	0.98420
3513.19918	0.98431
3511.14227	0.98469
3509.08536	0.98445
3507.02845	0.98359
3504.97154	0.98344
3502.91464	0.98395
3500.85773	0.98413
3498.80082	0.98394
3496.74391	0.98393
3494.68700	0.98425
3492.63009	0.98436
3490.57319	0.98407
3488.51628	0.98384
3486.45937	0.98376
3484.40246	0.98358
3482.34555	0.98345
3480.28865	0.98368
3478.23174	0.98401
3476.17483	0.98425
3474.11792	0.98431
3472.06101	0.98392
3470.00410	0.98365
3467.94720	0.98397
3465.89029	0.98410
3463.83338	0.98358
3461.77647	0.98340
3459.71956	0.98391
3457.66266	0.98432
3455.60575	0.98445
3453.54884	0.98452
3451.49193	0.98434
3449.43502	0.98392
3447.37811	0.98382
3445.32121	0.98416
3443.26430	0.98433
3441.20739	0.98445
3439.15048	0.98483
3437.09357	0.98481
3435.03667	0.98436
3432.97976	0.98418
3430.92285	0.98444
3428.86594	0.98492
3426.80903	0.98540
3424.75212	0.98572
3422.69522	0.98587
3420.63831	0.98573
3418.58140	0.98553
3416.52449	0.98543
3414.46758	0.98533
3412.41068	0.98550
3410.35377	0.98590
3408.29686	0.98596
3406.23995	0.98579
3404.18304	0.98607
3402.12613	0.98645
3400.06923	0.98629
3398.01232	0.98614
3395.95541	0.98643
3393.89850	0.98682
3391.84159	0.98693
3389.78469	0.98715
3387.72778	0.98772
3385.67087	0.98754
3383.61396	0.98640
3381.55705	0.98541
3379.50014	0.98505
3377.44324	0.98531
3375.38633	0.98573
3373.32942	0.98590
3371.27251	0.98579
3369.21560	0.98549
3367.15870	0.98547
3365.10179	0.98580
3363.04488	0.98588
3360.98797	0.98580
3358.93106	0.98625
3356.87415	0.98709
3354.81725	0.98749
3352.76034	0.98742
3350.70343	0.98734
3348.64652	0.98689
3346.58961	0.98617
3344.53271	0.98601
3342.47580	0.98610
3340.41889	0.98608
3338.36198	0.98627
3336.30507	0.98677
3334.24816	0.98721
3332.19126	0.98727
3330.13435	0.98695
3328.07744	0.98680
3326.02053	0.98721
3323.96362	0.98765
3321.90672	0.98788
3319.84981	0.98800
3317.79290	0.98782
3315.73599	0.98746
3313.67908	0.98725
3311.62217	0.98708
3309.56527	0.98688
3307.50836	0.98667
3305.45145	0.98616
3303.39454	0.98573
3301.33763	0.98597
3299.28073	0.98657
3297.22382	0.98707
3295.16691	0.98735
3293.11000	0.98731
3291.05309	0.98704
3288.99618	0.98682
3286.93928	0.98674
3284.88237	0.98686
3282.82546	0.98687
3280.76855	0.98660
3278.71164	0.98630
3276.65474	0.98604
3274.59783	0.98608
3272.54092	0.98698
3270.48401	0.98780
3268.42710	0.98753
3266.37019	0.98725
3264.31329	0.98762
3262.25638	0.98791
3260.19947	0.98791
3258.14256	0.98774
3256.08565	0.98717
3254.02875	0.98677
3251.97184	0.98701
3249.91493	0.98726
3247.85802	0.98719
3245.80111	0.98687
3243.74420	0.98690
3241.68730	0.98760
3239.63039	0.98811
3237.57348	0.98796
3235.51657	0.98744
3233.45966	0.98705
3231.40276	0.98701
3229.34585	0.98704
3227.28894	0.98717
3225.23203	0.98740
3223.17512	0.98736
3221.11821	0.98731
3219.06131	0.98758
3217.00440	0.98773
3214.94749	0.98760
3212.89058	0.98766
3210.83367	0.98778
3208.77677	0.98793
3206.71986	0.98855
3204.66295	0.98895
3202.60604	0.98867
3200.54913	0.98842
3198.49222	0.98825
3196.43532	0.98783
3194.37841	0.98761
3192.32150	0.98805
3190.26459	0.98873
3188.20768	0.98870
3186.15078	0.98788
3184.09387	0.98730
3182.03696	0.98746
3179.98005	0.98788
3177.92314	0.98808
3175.86623	0.98786
3173.80933	0.98757
3171.75242	0.98775
3169.69551	0.98800
3167.63860	0.98764
3165.58169	0.98732
3163.52479	0.98767
3161.46788	0.98818
3159.41097	0.98830
3157.35406	0.98808
3155.29715	0.98796
3153.24024	0.98778
3151.18334	0.98732
3149.12643	0.98721
3147.06952	0.98755
3145.01261	0.98760
3142.95570	0.98742
3140.89880	0.98754
3138.84189	0.98766
3136.78498	0.98754
3134.72807	0.98780
3132.67116	0.98840
3130.61425	0.98852
3128.55735	0.98783
3126.50044	0.98731
3124.44353	0.98761
3122.38662	0.98803
3120.32971	0.98818
3118.27281	0.98822
3116.21590	0.98835
3114.15899	0.98851
3112.10208	0.98831
3110.04517	0.98792
3107.98826	0.98770
3105.93136	0.98784
3103.87445	0.98809
3101.81754	0.98768
3099.76063	0.98692
3097.70372	0.98680
3095.64682	0.98723
3093.58991	0.98767
3091.53300	0.98795
3089.47609	0.98809
3087.41918	0.98806
3085.36227	0.98780
3083.30537	0.98751
3081.24846	0.98729
3079.19155	0.98708
3077.13464	0.98700
3075.07773	0.98712
3073.02083	0.98718
3070.96392	0.98709
3068.90701	0.98713
3066.85010	0.98728
3064.79319	0.98741
3062.73628	0.98767
3060.67938	0.98771
3058.62247	0.98718
3056.56556	0.98671
3054.50865	0.98683
3052.45174	0.98708
3050.39484	0.98706
3048.33793	0.98704
3046.28102	0.98698
3044.22411	0.98682
3042.16720	0.98702
3040.11029	0.98737
3038.05339	0.98732
3035.99648	0.98694
3033.93957	0.98662
3031.88266	0.98638
3029.82575	0.98589
3027.76885	0.98547
3025.71194	0.98541
3023.65503	0.98531
3021.59812	0.98519
3019.54121	0.98517
3017.48430	0.98509
3015.42740	0.98516
3013.37049	0.98545
3011.31358	0.98572
3009.25667	0.98585
3007.19976	0.98586
3005.14286	0.98569
3003.08595	0.98550
3001.02904	0.98561
2998.97213	0.98565
2996.91522	0.98533
2994.85831	0.98506
2992.80141	0.98506
2990.74450	0.98504
2988.68759	0.98478
2986.63068	0.98447
2984.57377	0.98449
2982.51687	0.98469
2980.45996	0.98475
2978.40305	0.98475
2976.34614	0.98473
2974.28923	0.98432
2972.23232	0.98336
2970.17542	0.98257
2968.11851	0.98232
2966.06160	0.98195
2964.00469	0.98131
2961.94778	0.98073
2959.89088	0.98039
2957.83397	0.98042
2955.77706	0.98058
2953.72015	0.98060
2951.66324	0.98062
2949.60633	0.98053
2947.54943	0.98040
2945.49252	0.98047
2943.43561	0.98063
2941.37870	0.98092
2939.32179	0.98156
2937.26489	0.98227
2935.20798	0.98255
2933.15107	0.98253
2931.09416	0.98241
2929.03725	0.98229
2926.98034	0.98263
2924.92344	0.98324
2922.86653	0.98364
2920.80962	0.98384
2918.75271	0.98371
2916.69580	0.98339
2914.63890	0.98342
2912.58199	0.98349
2910.52508	0.98309
2908.46817	0.98274
2906.41126	0.98286
2904.35435	0.98311
2902.29745	0.98301
2900.24054	0.98269
2898.18363	0.98258
2896.12672	0.98251
2894.06981	0.98231
2892.01291	0.98234
2889.95600	0.98277
2887.89909	0.98323
2885.84218	0.98329
2883.78527	0.98302
2881.72836	0.98290
2879.67146	0.98314
2877.61455	0.98356
2875.55764	0.98387
2873.50073	0.98373
2871.44382	0.98314
2869.38692	0.98264
2867.33001	0.98296
2865.27310	0.98382
2863.21619	0.98431
2861.15928	0.98430
2859.10237	0.98431
2857.04547	0.98465
2854.98856	0.98523
2852.93165	0.98550
2850.87474	0.98542
2848.81783	0.98559
2846.76093	0.98592
2844.70402	0.98612
2842.64711	0.98610
2840.59020	0.98584
2838.53329	0.98566
2836.47638	0.98593
2834.41948	0.98640
2832.36257	0.98657
2830.30566	0.98672
2828.24875	0.98697
2826.19184	0.98686
2824.13494	0.98659
2822.07803	0.98668
2820.02112	0.98700
2817.96421	0.98703
2815.90730	0.98684
2813.85039	0.98678
2811.79349	0.98673
2809.73658	0.98665
2807.67967	0.98652
2805.62276	0.98636
2803.56585	0.98661
2801.50895	0.98712
2799.45204	0.98731
2797.39513	0.98713
2795.33822	0.98696
2793.28131	0.98679
2791.22440	0.98663
2789.16750	0.98696
2787.11059	0.98757
2785.05368	0.98767
2782.99677	0.98741
2780.93986	0.98730
2778.88296	0.98725
2776.82605	0.98719
2774.76914	0.98712
2772.71223	0.98717
2770.65532	0.98740
2768.59841	0.98747
2766.54151	0.98734
2764.48460	0.98731
2762.42769	0.98755
2760.37078	0.98799
2758.31387	0.98825
2756.25697	0.98827
2754.20006	0.98829
2752.14315	0.98821
2750.08624	0.98787
2748.02933	0.98753
2745.97242	0.98737
2743.91552	0.98740
2741.85861	0.98760
2739.80170	0.98754
2737.74479	0.98723
2735.68788	0.98726
2733.63098	0.98756
2731.57407	0.98768
2729.51716	0.98761
2727.46025	0.98764
2725.40334	0.98784
2723.34643	0.98788
2721.28953	0.98787
2719.23262	0.98790
2717.17571	0.98767
2715.11880	0.98720
2713.06189	0.98690
2711.00499	0.98717
2708.94808	0.98775
2706.89117	0.98802
2704.83426	0.98795
2702.77735	0.98784
2700.72044	0.98778
2698.66354	0.98772
2696.60663	0.98768
2694.54972	0.98784
2692.49281	0.98810
2690.43590	0.98823
2688.37900	0.98808
2686.32209	0.98787
2684.26518	0.98801
2682.20827	0.98805
2680.15136	0.98768
2678.09445	0.98738
2676.03755	0.98736
2673.98064	0.98735
2671.92373	0.98729
2669.86682	0.98723
2667.80991	0.98703
2665.75301	0.98685
2663.69610	0.98704
2661.63919	0.98733
2659.58228	0.98748
2657.52537	0.98762
2655.46846	0.98756
2653.41156	0.98715
2651.35465	0.98683
2649.29774	0.98688
2647.24083	0.98722
2645.18392	0.98761
2643.12702	0.98769
2641.07011	0.98728
2639.01320	0.98684
2636.95629	0.98693
2634.89938	0.98734
2632.84247	0.98756
2630.78557	0.98776
2628.72866	0.98813
2626.67175	0.98836
2624.61484	0.98842
2622.55793	0.98851
2620.50103	0.98863
2618.44412	0.98862
2616.38721	0.98821
2614.33030	0.98789
2612.27339	0.98843
2610.21648	0.98918
2608.15958	0.98910
2606.10267	0.98871
2604.04576	0.98871
2601.98885	0.98861
2599.93194	0.98854
2597.87504	0.98876
2595.81813	0.98871
2593.76122	0.98842
2591.70431	0.98839
2589.64740	0.98864
2587.59049	0.98864
2585.53359	0.98847
2583.47668	0.98843
2581.41977	0.98816
2579.36286	0.98785
2577.30595	0.98781
2575.24905	0.98761
2573.19214	0.98778
2571.13523	0.98875
2569.07832	0.98915
2567.02141	0.98850
2564.96450	0.98778
2562.90760	0.98777
2560.85069	0.98838
2558.79378	0.98914
2556.73687	0.98983
2554.67996	0.99018
2552.62306	0.98995
2550.56615	0.98934
2548.50924	0.98885
2546.45233	0.98871
2544.39542	0.98881
2542.33851	0.98913
2540.28161	0.98918
2538.22470	0.98868
2536.16779	0.98820
2534.11088	0.98819
2532.05397	0.98848
2529.99707	0.98888
2527.94016	0.98931
2525.88325	0.98922
2523.82634	0.98837
2521.76943	0.98806
2519.71252	0.98908
2517.65562	0.99003
2515.59871	0.98975
2513.54180	0.98868
2511.48489	0.98782
2509.42798	0.98783
2507.37108	0.98847
2505.31417	0.98891
2503.25726	0.98894
2501.20035	0.98912
2499.14344	0.98935
2497.08653	0.98926
2495.02963	0.98901
2492.97272	0.98885
2490.91581	0.98873
2488.85890	0.98871
2486.80199	0.98899
2484.74509	0.98939
2482.68818	0.98954
2480.63127	0.98923
2478.57436	0.98864
2476.51745	0.98823
2474.46054	0.98805
2472.40364	0.98797
2470.34673	0.98832
2468.28982	0.98931
2466.23291	0.99004
2464.17600	0.98987
2462.11910	0.98955
2460.06219	0.98940
2458.00528	0.98902
2455.94837	0.98874
2453.89146	0.98902
2451.83455	0.98936
2449.77765	0.98933
2447.72074	0.98946
2445.66383	0.98987
2443.60692	0.98985
2441.55001	0.98907
2439.49311	0.98805
2437.43620	0.98811
2435.37929	0.98902
2433.32238	0.98959
2431.26547	0.98998
2429.20856	0.99021
2427.15166	0.98976
2425.09475	0.98918
2423.03784	0.98911
2420.98093	0.98913
2418.92402	0.98913
2416.86712	0.98942
2414.81021	0.98964
2412.75330	0.98933
2410.69639	0.98865
2408.63948	0.98815
2406.58257	0.98842
2404.52567	0.98931
2402.46876	0.98988
2400.41185	0.98968
2398.35494	0.98942
2396.29803	0.98941
2394.24113	0.98901
2392.18422	0.98842
2390.12731	0.98838
2388.07040	0.98855
2386.01349	0.98845
2383.95658	0.98843
2381.89968	0.98903
2379.84277	0.98995
2377.78586	0.99020
2375.72895	0.98940
2373.67204	0.98832
2371.61514	0.98771
2369.55823	0.98798
2367.50132	0.98870
2365.44441	0.98910
2363.38750	0.99008
2361.33059	0.99142
2359.27369	0.99078
2357.21678	0.98848
2355.15987	0.98724
2353.10296	0.98748
2351.04605	0.98793
2348.98915	0.98832
2346.93224	0.98846
2344.87533	0.98810
2342.81842	0.98831
2340.76151	0.98907
2338.70460	0.98913
2336.64770	0.98837
2334.59079	0.98739
2332.53388	0.98735
2330.47697	0.98794
2328.42006	0.98823
2326.36316	0.98876
2324.30625	0.98932
2322.24934	0.98931
2320.19243	0.98902
2318.13552	0.98873
2316.07861	0.98888
2314.02171	0.98951
2311.96480	0.98989
2309.90789	0.98978
2307.85098	0.98934
2305.79407	0.98884
2303.73717	0.98909
2301.68026	0.98997
2299.62335	0.99008
2297.56644	0.98954
2295.50953	0.98919
2293.45262	0.98870
2291.39572	0.98831
2289.33881	0.98869
2287.28190	0.98936
2285.22499	0.98929
2283.16808	0.98884
2281.11117	0.98884
2279.05427	0.98916
2276.99736	0.98951
2274.94045	0.98939
2272.88354	0.98847
2270.82663	0.98789
2268.76973	0.98832
2266.71282	0.98912
2264.65591	0.98990
2262.59900	0.98997
2260.54209	0.98907
2258.48518	0.98851
2256.42828	0.98836
2254.37137	0.98782
2252.31446	0.98808
2250.25755	0.98919
2248.20064	0.98952
2246.14374	0.98920
2244.08683	0.98869
2242.02992	0.98781
2239.97301	0.98771
2237.91610	0.98972
2235.85919	0.99131
2233.80229	0.98985
2231.74538	0.98787
2229.68847	0.98804
2227.63156	0.98935
2225.57465	0.99031
2223.51775	0.99032
2221.46084	0.98980
2219.40393	0.98947
2217.34702	0.98947
2215.29011	0.98994
2213.23320	0.99010
2211.17630	0.99011
2209.11939	0.99051
2207.06248	0.99032
2205.00557	0.98962
2202.94866	0.98918
2200.89176	0.98894
2198.83485	0.98819
2196.77794	0.98715
2194.72103	0.98685
2192.66412	0.98772
2190.60721	0.99005
2188.55031	0.99169
2186.49340	0.99020
2184.43649	0.98826
2182.37958	0.98842
2180.32267	0.98974
2178.26577	0.99087
2176.20886	0.99108
2174.15195	0.99100
2172.09504	0.99050
2170.03813	0.98862
2167.98122	0.98646
2165.92432	0.98611
2163.86741	0.98781
2161.81050	0.99043
2159.75359	0.99152
2157.69668	0.99015
2155.63978	0.98922
2153.58287	0.98951
2151.52596	0.99024
2149.46905	0.99065
2147.41214	0.99128
2145.35523	0.99254
2143.29833	0.99222
2141.24142	0.98962
2139.18451	0.98762
2137.12760	0.98853
2135.07069	0.99066
2133.01379	0.99141
2130.95688	0.99101
2128.89997	0.99058
2126.84306	0.98980
2124.78615	0.98868
2122.72924	0.98821
2120.67234	0.98845
2118.61543	0.98875
2116.55852	0.98845
2114.50161	0.98792
2112.44470	0.98855
2110.38780	0.98985
2108.33089	0.98969
2106.27398	0.98769
2104.21707	0.98603
2102.16016	0.98647
2100.10325	0.98804
2098.04635	0.98941
2095.98944	0.98998
2093.93253	0.98989
2091.87562	0.99010
2089.81871	0.99059
2087.76181	0.99064
2085.70490	0.99042
2083.64799	0.99064
2081.59108	0.99123
2079.53417	0.99132
2077.47726	0.99032
2075.42036	0.98892
2073.36345	0.98853
2071.30654	0.98956
2069.24963	0.99055
2067.19272	0.99086
2065.13582	0.99144
2063.07891	0.99172
2061.02200	0.99091
2058.96509	0.99039
2056.90818	0.99026
2054.85127	0.98898
2052.79437	0.98823
2050.73746	0.98938
2048.68055	0.99000
2046.62364	0.98961
2044.56673	0.99032
2042.50983	0.99160
2040.45292	0.99111
2038.39601	0.98977
2036.33910	0.98925
2034.28219	0.98891
2032.22528	0.98881
2030.16838	0.98963
2028.11147	0.99029
2026.05456	0.98901
2023.99765	0.98804
2021.94074	0.99032
2019.88384	0.99280
2017.82693	0.99275
2015.77002	0.99185
2013.71311	0.99108
2011.65620	0.98977
2009.59929	0.98856
2007.54239	0.98940
2005.48548	0.99137
2003.42857	0.99195
2001.37166	0.99160
1999.31475	0.99117
1997.25785	0.99077
1995.20094	0.99123
1993.14403	0.99239
1991.08712	0.99213
1989.03021	0.99050
1986.97330	0.98985
1984.91640	0.99026
1982.85949	0.99070
1980.80258	0.99076
1978.74567	0.99048
1976.68876	0.98977
1974.63186	0.98860
1972.57495	0.98791
1970.51804	0.98860
1968.46113	0.98998
1966.40422	0.99040
1964.34731	0.98992
1962.29041	0.98945
1960.23350	0.98947
1958.17659	0.99094
1956.11968	0.99328
1954.06277	0.99384
1952.00587	0.99269
1949.94896	0.99161
1947.89205	0.99010
1945.83514	0.98864
1943.77823	0.98893
1941.72132	0.99037
1939.66442	0.99121
1937.60751	0.99172
1935.55060	0.99218
1933.49369	0.99215
1931.43678	0.99172
1929.37988	0.99114
1927.32297	0.99105
1925.26606	0.99174
1923.20915	0.99204
1921.15224	0.99111
1919.09533	0.99020
1917.03843	0.99063
1914.98152	0.99144
1912.92461	0.99173
1910.86770	0.99226
1908.81079	0.99251
1906.75389	0.99187
1904.69698	0.99122
1902.64007	0.99113
1900.58316	0.99152
1898.52625	0.99163
1896.46934	0.99119
1894.41244	0.99108
1892.35553	0.99156
1890.29862	0.99193
1888.24171	0.99198
1886.18480	0.99166
1884.12790	0.99112
1882.07099	0.99133
1880.01408	0.99228
1877.95717	0.99259
1875.90026	0.99216
1873.84335	0.99171
1871.78645	0.99147
1869.72954	0.99166
1867.67263	0.99177
1865.61572	0.99117
1863.55881	0.99023
1861.50191	0.98983
1859.44500	0.99036
1857.38809	0.99136
1855.33118	0.99183
1853.27427	0.99129
1851.21736	0.99047
1849.16046	0.99013
1847.10355	0.99024
1845.04664	0.99046
1842.98973	0.99063
1840.93282	0.99078
1838.87592	0.99095
1836.81901	0.99105
1834.76210	0.99100
1832.70519	0.99090
1830.64828	0.99089
1828.59137	0.99046
1826.53447	0.98980
1824.47756	0.98958
1822.42065	0.99000
1820.36374	0.99045
1818.30683	0.99016
1816.24993	0.98954
1814.19302	0.98918
1812.13611	0.98900
1810.07920	0.98857
1808.02229	0.98805
1805.96538	0.98766
1803.90848	0.98718
1801.85157	0.98654
1799.79466	0.98636
1797.73775	0.98645
1795.68084	0.98587
1793.62394	0.98476
1791.56703	0.98385
1789.51012	0.98305
1787.45321	0.98180
1785.39630	0.98038
1783.33939	0.97875
1781.28249	0.97637
1779.22558	0.97289
1777.16867	0.96892
1775.11176	0.96446
1773.05485	0.95794
1770.99795	0.94855
1768.94104	0.93731
1766.88413	0.92391
1764.82722	0.90922
1762.77031	0.89220
1760.71340	0.87282
1758.65650	0.85627
1756.59959	0.84257
1754.54268	0.83214
1752.48577	0.82467
1750.42886	0.81772
1748.37196	0.81140
1746.31505	0.80651
1744.25814	0.80303
1742.20123	0.80135
1740.14432	0.80181
1738.08741	0.80458
1736.03051	0.81021
1733.97360	0.82126
1731.91669	0.83552
1729.85978	0.84961
1727.80287	0.86476
1725.74597	0.87954
1723.68906	0.89366
1721.63215	0.90579
1719.57524	0.91578
1717.51833	0.92621
1715.46142	0.93593
1713.40452	0.94255
1711.34761	0.94738
1709.29070	0.95117
1707.23379	0.95444
1705.17688	0.95761
1703.11998	0.96034
1701.06307	0.96278
1699.00616	0.96512
1696.94925	0.96691
1694.89234	0.96848
1692.83543	0.96991
1690.77853	0.97113
1688.72162	0.97236
1686.66471	0.97333
1684.60780	0.97401
1682.55089	0.97485
1680.49399	0.97597
1678.43708	0.97683
1676.38017	0.97714
1674.32326	0.97736
1672.26635	0.97782
1670.20944	0.97852
1668.15254	0.97906
1666.09563	0.97902
1664.03872	0.97888
1661.98181	0.97898
1659.92490	0.97892
1657.86800	0.97879
1655.81109	0.97900
1653.75418	0.97957
1651.69727	0.97936
1649.64036	0.97867
1647.58345	0.97825
1645.52655	0.97825
1643.46964	0.97845
1641.41273	0.97850
1639.35582	0.97846
1637.29891	0.97835
1635.24201	0.97846
1633.18510	0.97897
1631.12819	0.97945
1629.07128	0.97961
1627.01437	0.97950
1624.95746	0.97979
1622.90056	0.98059
1620.84365	0.98111
1618.78674	0.98119
1616.72983	0.98142
1614.67292	0.98208
1612.61602	0.98270
1610.55911	0.98318
1608.50220	0.98353
1606.44529	0.98375
1604.38838	0.98399
1602.33147	0.98428
1600.27457	0.98460
1598.21766	0.98469
1596.16075	0.98461
1594.10384	0.98484
1592.04693	0.98529
1589.99003	0.98547
1587.93312	0.98532
1585.87621	0.98524
1583.81930	0.98550
1581.76239	0.98584
1579.70548	0.98602
1577.64858	0.98629
1575.59167	0.98655
1573.53476	0.98624
1571.47785	0.98574
1569.42094	0.98568
1567.36404	0.98582
1565.30713	0.98579
1563.25022	0.98581
1561.19331	0.98587
1559.13640	0.98588
1557.07949	0.98599
1555.02259	0.98612
1552.96568	0.98627
1550.90877	0.98630
1548.85186	0.98608
1546.79495	0.98594
1544.73805	0.98603
1542.68114	0.98610
1540.62423	0.98604
1538.56732	0.98614
1536.51041	0.98642
1534.45350	0.98688
1532.39660	0.98729
1530.33969	0.98688
1528.28278	0.98602
1526.22587	0.98564
1524.16896	0.98594
1522.11206	0.98636
1520.05515	0.98669
1517.99824	0.98685
1515.94133	0.98677
1513.88442	0.98651
1511.82751	0.98641
1509.77061	0.98645
1507.71370	0.98600
1505.65679	0.98551
1503.59988	0.98583
1501.54297	0.98626
1499.48607	0.98645
1497.42916	0.98635
1495.37225	0.98619
1493.31534	0.98605
1491.25843	0.98597
1489.20152	0.98610
1487.14462	0.98624
1485.08771	0.98609
1483.03080	0.98568
1480.97389	0.98506
1478.91698	0.98469
1476.86008	0.98456
1474.80317	0.98408
1472.74626	0.98304
1470.68935	0.98181
1468.63244	0.98068
1466.57553	0.97933
1464.51863	0.97766
1462.46172	0.97627
1460.40481	0.97531
1458.34790	0.97412
1456.29099	0.97255
1454.23409	0.97154
1452.17718	0.97084
1450.12027	0.96997
1448.06336	0.96872
1446.00645	0.96730
1443.94954	0.96599
1441.89264	0.96464
1439.83573	0.96329
1437.77882	0.96195
1435.72191	0.96071
1433.66500	0.96014
1431.60810	0.96011
1429.55119	0.96053
1427.49428	0.96142
1425.43737	0.96248
1423.38046	0.96348
1421.32355	0.96444
1419.26665	0.96555
1417.20974	0.96710
1415.15283	0.96866
1413.09592	0.96979
1411.03901	0.97055
1408.98211	0.97107
1406.92520	0.97135
1404.86829	0.97159
1402.81138	0.97177
1400.75447	0.97155
1398.69756	0.97047
1396.64066	0.96824
1394.58375	0.96468
1392.52684	0.96011
1390.46993	0.95498
1388.41302	0.94859
1386.35612	0.94063
1384.29921	0.93265
1382.24230	0.92505
1380.18539	0.91759
1378.12848	0.91069
1376.07157	0.90425
1374.01467	0.89766
1371.95776	0.89179
1369.90085	0.88798
1367.84394	0.88684
1365.78703	0.88898
1363.73013	0.89535
1361.67322	0.90660
1359.61631	0.92017
1357.55940	0.93360
1355.50249	0.94568
1353.44558	0.95512
1351.38868	0.96174
1349.33177	0.96589
1347.27486	0.96832
1345.21795	0.97008
1343.16104	0.97141
1341.10414	0.97216
1339.04723	0.97253
1336.99032	0.97274
1334.93341	0.97252
1332.87650	0.97189
1330.81959	0.97128
1328.76269	0.97077
1326.70578	0.97006
1324.64887	0.96920
1322.59196	0.96861
1320.53505	0.96834
1318.47815	0.96854
1316.42124	0.96934
1314.36433	0.97036
1312.30742	0.97127
1310.25051	0.97196
1308.19360	0.97236
1306.13670	0.97244
1304.07979	0.97217
1302.02288	0.97163
1299.96597	0.97087
1297.90906	0.97003
1295.85216	0.96901
1293.79525	0.96769
1291.73834	0.96630
1289.68143	0.96476
1287.62452	0.96287
1285.56761	0.96071
1283.51071	0.95835
1281.45380	0.95541
1279.39689	0.95181
1277.33998	0.94791
1275.28307	0.94350
1273.22617	0.93818
1271.16926	0.93187
1269.11235	0.92479
1267.05544	0.91751
1264.99853	0.91006
1262.94162	0.90180
1260.88472	0.89264
1258.82781	0.88276
1256.77090	0.87195
1254.71399	0.86041
1252.65708	0.84830
1250.60018	0.83553
1248.54327	0.82232
1246.48636	0.80877
1244.42945	0.79468
1242.37254	0.78051
1240.31563	0.76704
1238.25873	0.75446
1236.20182	0.74293
1234.14491	0.73297
1232.08800	0.72520
1230.03109	0.72006
1227.97419	0.71755
1225.91728	0.71716
1223.86037	0.71806
1221.80346	0.71942
1219.74655	0.72093
1217.68964	0.72294
1215.63274	0.72621
1213.57583	0.73178
1211.51892	0.74087
1209.46201	0.75456
1207.40510	0.77300
1205.34820	0.79520
1203.29129	0.81920
1201.23438	0.84266
1199.17747	0.86357
1197.12056	0.88099
1195.06365	0.89474
1193.00675	0.90511
1190.94984	0.91273
1188.89293	0.91801
1186.83602	0.92121
1184.77911	0.92283
1182.72221	0.92319
1180.66530	0.92213
1178.60839	0.91992
1176.55148	0.91726
1174.49457	0.91441
1172.43766	0.91168
1170.38076	0.90963
1168.32385	0.90842
1166.26694	0.90786
1164.21003	0.90786
1162.15312	0.90850
1160.09622	0.90999
1158.03931	0.91217
1155.98240	0.91463
1153.92549	0.91732
1151.86858	0.92018
1149.81167	0.92293
1147.75477	0.92523
1145.69786	0.92686
1143.64095	0.92735
1141.58404	0.92656
1139.52713	0.92500
1137.47023	0.92291
1135.41332	0.92023
1133.35641	0.91711
1131.29950	0.91368
1129.24259	0.91002
1127.18568	0.90667
1125.12878	0.90459
1123.07187	0.90398
1121.01496	0.90411
1118.95805	0.90443
1116.90114	0.90513
1114.84424	0.90593
1112.78733	0.90624
1110.73042	0.90618
1108.67351	0.90577
1106.61660	0.90478
1104.55969	0.90320
1102.50279	0.90074
1100.44588	0.89695
1098.38897	0.89174
1096.33206	0.88537
1094.27515	0.87808
1092.21825	0.87005
1090.16134	0.86209
1088.10443	0.85492
1086.04752	0.84848
1083.99061	0.84272
1081.93370	0.83761
1079.87680	0.83254
1077.81989	0.82718
1075.76298	0.82208
1073.70607	0.81751
1071.64916	0.81311
1069.59226	0.80886
1067.53535	0.80480
1065.47844	0.80051
1063.42153	0.79534
1061.36462	0.78885
1059.30771	0.78132
1057.25081	0.77322
1055.19390	0.76487
1053.13699	0.75656
1051.08008	0.74866
1049.02317	0.74186
1046.96627	0.73681
1044.90936	0.73348
1042.85245	0.73145
1040.79554	0.73002
1038.73863	0.72857
1036.68172	0.72766
1034.62482	0.72880
1032.56791	0.73309
1030.51100	0.74092
1028.45409	0.75214
1026.39718	0.76557
1024.34028	0.77982
1022.28337	0.79452
1020.22646	0.80907
1018.16955	0.82228
1016.11264	0.83413
1014.05573	0.84495
1011.99883	0.85455
1009.94192	0.86332
1007.88501	0.87158
1005.82810	0.87883
1003.77119	0.88474
1001.71429	0.88974
999.65738	0.89433
997.60047	0.89842
995.54356	0.90169
993.48665	0.90414
991.42974	0.90604
989.37284	0.90759
987.31593	0.90921
985.25902	0.91141
983.20211	0.91403
981.14520	0.91665
979.08830	0.91938
977.03139	0.92272
974.97448	0.92670
972.91757	0.93062
970.86066	0.93405
968.80375	0.93694
966.74685	0.93925
964.68994	0.94085
962.63303	0.94168
960.57612	0.94224
958.51921	0.94263
956.46231	0.94250
954.40540	0.94232
952.34849	0.94267
950.29158	0.94334
948.23467	0.94419
946.17776	0.94531
944.12086	0.94646
942.06395	0.94747
940.00704	0.94853
937.95013	0.94936
935.89322	0.94952
933.83632	0.94903
931.77941	0.94798
929.72250	0.94673
927.66559	0.94560
925.60868	0.94434
923.55177	0.94253
921.49487	0.94056
919.43796	0.93912
917.38105	0.93778
915.32414	0.93573
913.26723	0.93308
911.21033	0.93016
909.15342	0.92710
907.09651	0.92412
905.03960	0.92144
902.98269	0.91967
900.92578	0.91945
898.86888	0.92095
896.81197	0.92414
894.75506	0.92860
892.69815	0.93339
890.64124	0.93774
888.58434	0.94102
886.52743	0.94303
884.47052	0.94436
882.41361	0.94538
880.35670	0.94603
878.29979	0.94637
876.24289	0.94661
874.18598	0.94763
872.12907	0.95010
870.07216	0.95336
868.01525	0.95666
865.95835	0.95983
863.90144	0.96264
861.84453	0.96466
859.78762	0.96571
857.73071	0.96622
855.67380	0.96679
853.61690	0.96751
851.55999	0.96780
849.50308	0.96734
847.44617	0.96651
845.38926	0.96565
843.33236	0.96500
841.27545	0.96474
839.21854	0.96482
837.16163	0.96524
835.10472	0.96566
833.04781	0.96615
830.99091	0.96764
828.93400	0.96960
826.87709	0.97083
824.82018	0.97151
822.76327	0.97189
820.70637	0.97214
818.64946	0.97282
816.59255	0.97408
814.53564	0.97511
812.47873	0.97548
810.42182	0.97592
808.36492	0.97676
806.30801	0.97738
804.25110	0.97745
802.19419	0.97767
800.13728	0.97793
798.08038	0.97754
796.02347	0.97715
793.96656	0.97723
791.90965	0.97738
789.85274	0.97766
787.79583	0.97824
785.73893	0.97862
783.68202	0.97809
781.62511	0.97727
779.56820	0.97732
777.51129	0.97780
775.45439	0.97778
773.39748	0.97765
771.34057	0.97761
769.28366	0.97768
767.22675	0.97856
765.16984	0.97972
763.11294	0.97992
761.05603	0.97948
758.99912	0.97908
756.94221	0.97895
754.88530	0.97923
752.82839	0.97950
750.77149	0.97927
748.71458	0.97882
746.65767	0.97878
744.60076	0.97927
742.54385	0.97969
740.48695	0.97976
738.43004	0.97954
736.37313	0.97927
734.31622	0.97935
732.25931	0.97922
730.20240	0.97831
728.14550	0.97717
726.08859	0.97624
724.03168	0.97544
721.97477	0.97470
719.91786	0.97441
717.86096	0.97473
715.80405	0.97473
713.74714	0.97394
711.69023	0.97315
709.63332	0.97257
707.57641	0.97159
705.51951	0.97057
703.46260	0.96985
701.40569	0.96911
699.34878	0.96872
697.29187	0.96886
695.23497	0.96866
693.17806	0.96797
691.12115	0.96748
689.06424	0.96728
687.00733	0.96732
684.95042	0.96777
682.89352	0.96815
680.83661	0.96784
678.77970	0.96741
676.72279	0.96762
674.66588	0.96812
672.60898	0.96876
670.55207	0.96934
668.49516	0.96897
666.43825	0.96795
664.38134	0.96731
662.32443	0.96663
660.26753	0.96561
658.21062	0.96450
656.15371	0.96385
654.09680	0.96330
652.03989	0.96227
649.98299	0.96077
647.92608	0.95893
645.86917	0.95713
643.81226	0.95559
641.75535	0.95524
639.69844	0.95639
637.64154	0.95743
635.58463	0.95730
633.52772	0.95620
631.47081	0.95469
629.41390	0.95330
627.35700	0.95202
625.30009	0.95060
623.24318	0.94864
621.18627	0.94652
619.12936	0.94503
617.07245	0.94281
615.01555	0.93910
612.95864	0.93545
610.90173	0.93153
608.84482	0.92601
606.78791	0.91967
604.73101	0.91462
602.67410	0.91292
600.61719	0.91494
598.56028	0.91923
596.50337	0.92474
594.44646	0.93036
592.38956	0.93506
590.33265	0.93952
588.27574	0.94441
586.21883	0.94897
584.16192	0.95309
582.10502	0.95674
580.04811	0.95920
577.99120	0.96047
575.93429	0.96072
573.87738	0.96103
571.82047	0.96085
569.76357	0.95839
567.70666	0.95596
565.64975	0.95498
563.59284	0.95316
561.53593	0.95077
559.47903	0.95004
557.42212	0.95081
555.36521	0.95137
553.30830	0.95159
551.25139	0.95223
549.19448	0.95324
547.13758	0.95512
545.08067	0.95722
543.02376	0.95775
540.96685	0.95804
538.90994	0.95977
536.85304	0.96194
534.79613	0.96356
532.73922	0.96349
530.68231	0.96093
528.62540	0.95877
526.56849	0.96001
524.51159	0.96156
522.45468	0.96075
520.39777	0.95956
518.34086	0.95848
516.28395	0.95801
514.22705	0.95887
512.17014	0.95964
510.11323	0.95948
508.05632	0.95934
505.99941	0.95905
503.94250	0.95757
501.88560	0.95597
499.82869	0.95470
497.77178	0.95287
495.71487	0.95106
493.65796	0.95021
491.60106	0.94888
489.54415	0.94617
487.48724	0.94466
485.43033	0.94501
483.37342	0.94499
481.31651	0.94392
479.25961	0.94294
477.20270	0.94287
475.14579	0.94415
473.08888	0.94641
471.03197	0.94760
468.97507	0.94782
466.91816	0.95008
464.86125	0.95163
462.80434	0.94852
460.74743	0.94488
458.69052	0.94412
456.63362	0.94263
454.57671	0.93900
452.51980	0.93878
450.46289	0.94313
448.40598	0.94555
446.34908	0.94286
444.29217	0.94007
442.23526	0.94170
440.17835	0.94328
438.12144	0.94113
436.06453	0.94007
434.00763	0.94409
431.95072	0.94757
429.89381	0.94653
427.83690	0.94482
425.77999	0.94466
423.72309	0.94605
421.66618	0.94836
419.60927	0.94791
417.55236	0.94537
415.49545	0.94696
413.43854	0.94955
411.38164	0.94901
409.32473	0.94586
407.26782	0.94198
405.21091	0.94026
403.15400	0.94017
401.09710	0.93792
399.04019	0.93642
