3996.57260	0.98908
3994.51569	0.98886
3992.45878	0.98819
3990.40188	0.98789
3988.34497	0.98849
3986.28806	0.98923
3984.23115	0.98970
3982.17424	0.99017
3980.11733	0.99020
3978.06043	0.98943
3976.00352	0.98833
3973.94661	0.98760
3971.88970	0.98800
3969.83279	0.98908
3967.77589	0.98952
3965.71898	0.98934
3963.66207	0.98916
3961.60516	0.98913
3959.54825	0.98919
3957.49134	0.98914
3955.43444	0.98909
3953.37753	0.98880
3951.32062	0.98817
3949.26371	0.98820
3947.20680	0.98883
3945.14990	0.98921
3943.09299	0.98920
3941.03608	0.98883
3938.97917	0.98883
3936.92226	0.98912
3934.86535	0.98883
3932.80845	0.98843
3930.75154	0.98875
3928.69463	0.98922
3926.63772	0.98936
3924.58081	0.98944
3922.52391	0.98947
3920.46700	0.98974
3918.41009	0.99005
3916.35318	0.98959
3914.29627	0.98902
3912.23936	0.98930
3910.18246	0.98969
3908.12555	0.98950
3906.06864	0.98887
3904.01173	0.98820
3901.95482	0.98809
3899.89792	0.98825
3897.84101	0.98841
3895.78410	0.98862
3893.72719	0.98887
3891.67028	0.98942
3889.61337	0.98973
3887.55647	0.98933
3885.49956	0.98892
3883.44265	0.98888
3881.38574	0.98909
3879.32883	0.98981
3877.27193	0.99022
3875.21502	0.98957
3873.15811	0.98829
3871.10120	0.98767
3869.04429	0.98855
3866.98738	0.98987
3864.93048	0.99055
3862.87357	0.99035
3860.81666	0.98966
3858.75975	0.98909
3856.70284	0.98916
3854.64594	0.99004
3852.58903	0.99041
3850.53212	0.98974
3848.47521	0.98956
3846.41830	0.98983
3844.36139	0.98984
3842.30449	0.98931
3840.24758	0.98875
3838.19067	0.98869
3836.13376	0.98887
3834.07685	0.98871
3832.01995	0.98857
3829.96304	0.98891
3827.90613	0.98923
3825.84922	0.98913
3823.79231	0.98890
3821.73540	0.98907
3819.67850	0.98952
3817.62159	0.98949
3815.56468	0.98942
3813.50777	0.98939
3811.45086	0.98924
3809.39396	0.98932
3807.33705	0.98928
3805.28014	0.98885
3803.22323	0.98863
3801.16632	0.98854
3799.10941	0.98818
3797.05251	0.98826
3794.99560	0.98883
3792.93869	0.98923
3790.88178	0.98943
3788.82487	0.98917
3786.76796	0.98849
3784.71106	0.98828
3782.65415	0.98876
3780.59724	0.98936
3778.54033	0.98967
3776.48342	0.98971
3774.42652	0.98963
3772.36961	0.98958
3770.31270	0.99022
3768.25579	0.99106
3766.19888	0.99092
3764.14197	0.99047
3762.08507	0.99023
3760.02816	0.98985
3757.97125	0.98970
3755.91434	0.98975
3753.85743	0.98963
3751.80053	0.98960
3749.74362	0.98972
3747.68671	0.99014
3745.62980	0.99101
3743.57289	0.99111
3741.51598	0.99002
3739.45908	0.98912
3737.40217	0.98888
3735.34526	0.98938
3733.28835	0.98978
3731.23144	0.98958
3729.17454	0.98960
3727.11763	0.98970
3725.06072	0.98969
3723.00381	0.99004
3720.94690	0.99037
3718.88999	0.99037
3716.83309	0.99036
3714.77618	0.99000
3712.71927	0.98880
3710.66236	0.98797
3708.60545	0.98847
3706.54855	0.98904
3704.49164	0.98973
3702.43473	0.99038
3700.37782	0.98985
3698.32091	0.98914
3696.26400	0.98933
3694.20710	0.98964
3692.15019	0.98941
3690.09328	0.98940
3688.03637	0.99002
3685.97946	0.99017
3683.92256	0.99019
3681.86565	0.99040
3679.80874	0.99038
3677.75183	0.99004
3675.69492	0.98945
3673.63801	0.98921
3671.58111	0.98979
3669.52420	0.99013
3667.46729	0.98974
3665.41038	0.98945
3663.35347	0.98915
3661.29657	0.98899
3659.23966	0.98856
3657.18275	0.98743
3655.12584	0.98670
3653.06893	0.98666
3651.01202	0.98698
3648.95512	0.98716
3646.89821	0.98698
3644.84130	0.98717
3642.78439	0.98738
3640.72748	0.98707
3638.67058	0.98633
3636.61367	0.98592
3634.55676	0.98620
3632.49985	0.98611
3630.44294	0.98470
3628.38603	0.98357
3626.32913	0.98415
3624.27222	0.98475
3622.21531	0.98490
3620.15840	0.98466
3618.10149	0.98422
3616.04459	0.98387
3613.98768	0.98354
3611.93077	0.98329
3609.87386	0.98261
3607.81695	0.98145
3605.76004	0.98112
3603.70314	0.98152
3601.64623	0.98180
3599.58932	0.98197
3597.53241	0.98183
3595.47550	0.98127
3593.41860	0.98052
3591.36169	0.97985
3589.30478	0.97938
3587.24787	0.97901
3585.19096	0.97905
3583.13405	0.97918
3581.07715	0.97876
3579.02024	0.97811
3576.96333	0.97767
3574.90642	0.97732
3572.84951	0.97684
3570.79261	0.97613
3568.73570	0.97536
3566.67879	0.97500
3564.62188	0.97497
3562.56497	0.97415
3560.50806	0.97280
3558.45116	0.97209
3556.39425	0.97190
3554.33734	0.97169
3552.28043	0.97150
3550.22352	0.97116
3548.16662	0.97082
3546.10971	0.97089
3544.05280	0.97069
3541.99589	0.96963
3539.93898	0.96841
3537.88207	0.96728
3535.82517	0.96612
3533.76826	0.96501
3531.71135	0.96390
3529.65444	0.96320
3527.59753	0.96323
3525.54063	0.96329
3523.48372	0.96292
3521.42681	0.96220
3519.36990	0.96167
3517.31299	0.96172
3515.25608	0.96141
3513.19918	0.96015
3511.14227	0.95890
3509.08536	0.95830
3507.02845	0.95816
3504.97154	0.95795
3502.91464	0.95752
3500.85773	0.95744
3498.80082	0.95757
3496.74391	0.95735
3494.68700	0.95687
3492.63009	0.95634
3490.57319	0.95590
3488.51628	0.95552
3486.45937	0.95506
3484.40246	0.95459
3482.34555	0.95423
3480.28865	0.95414
3478.23174	0.95420
3476.17483	0.95420
3474.11792	0.95401
3472.06101	0.95363
3470.00410	0.95340
3467.94720	0.95293
3465.89029	0.95235
3463.83338	0.95271
3461.77647	0.95356
3459.71956	0.95373
3457.66266	0.95318
3455.60575	0.95278
3453.54884	0.95279
3451.49193	0.95296
3449.43502	0.95309
3447.37811	0.95300
3445.32121	0.95273
3443.26430	0.95257
3441.20739	0.95290
3439.15048	0.95330
3437.09357	0.95334
3435.03667	0.95329
3432.97976	0.95313
3430.92285	0.95333
3428.86594	0.95423
3426.80903	0.95485
3424.75212	0.95432
3422.69522	0.95333
3420.63831	0.95323
3418.58140	0.95405
3416.52449	0.95510
3414.46758	0.95593
3412.41068	0.95616
3410.35377	0.95581
3408.29686	0.95525
3406.23995	0.95503
3404.18304	0.95549
3402.12613	0.95620
3400.06923	0.95624
3398.01232	0.95609
3395.95541	0.95664
3393.89850	0.95695
3391.84159	0.95670
3389.78469	0.95690
3387.72778	0.95769
3385.67087	0.95842
3383.61396	0.95855
3381.55705	0.95813
3379.50014	0.95783
3377.44324	0.95824
3375.38633	0.95891
3373.32942	0.95881
3371.27251	0.95809
3369.21560	0.95787
3367.15870	0.95837
3365.10179	0.95889
3363.04488	0.95936
3360.98797	0.96004
3358.93106	0.96071
3356.87415	0.96112
3354.81725	0.96146
3352.76034	0.96185
3350.70343	0.96210
3348.64652	0.96218
3346.58961	0.96234
3344.53271	0.96275
3342.47580	0.96314
3340.41889	0.96339
3338.36198	0.96371
3336.30507	0.96393
3334.24816	0.96372
3332.19126	0.96356
3330.13435	0.96397
3328.07744	0.96453
3326.02053	0.96492
3323.96362	0.96501
3321.90672	0.96500
3319.84981	0.96528
3317.79290	0.96552
3315.73599	0.96568
3313.67908	0.96618
3311.62217	0.96666
3309.56527	0.96686
3307.50836	0.96695
3305.45145	0.96691
3303.39454	0.96709
3301.33763	0.96764
3299.28073	0.96800
3297.22382	0.96789
3295.16691	0.96810
3293.11000	0.96886
3291.05309	0.96935
3288.99618	0.96955
3286.93928	0.96963
3284.88237	0.96922
3282.82546	0.96882
3280.76855	0.96925
3278.71164	0.96988
3276.65474	0.96993
3274.59783	0.97002
3272.54092	0.97078
3270.48401	0.97171
3268.42710	0.97215
3266.37019	0.97200
3264.31329	0.97164
3262.25638	0.97159
3260.19947	0.97161
3258.14256	0.97162
3256.08565	0.97193
3254.02875	0.97226
3251.97184	0.97271
3249.91493	0.97304
3247.85802	0.97278
3245.80111	0.97271
3243.74420	0.97309
3241.68730	0.97330
3239.63039	0.97357
3237.57348	0.97426
3235.51657	0.97490
3233.45966	0.97507
3231.40276	0.97489
3229.34585	0.97474
3227.28894	0.97494
3225.23203	0.97536
3223.17512	0.97564
3221.11821	0.97598
3219.06131	0.97658
3217.00440	0.97667
3214.94749	0.97618
3212.89058	0.97617
3210.83367	0.97672
3208.77677	0.97711
3206.71986	0.97729
3204.66295	0.97771
3202.60604	0.97814
3200.54913	0.97804
3198.49222	0.97776
3196.43532	0.97772
3194.37841	0.97762
3192.32150	0.97732
3190.26459	0.97724
3188.20768	0.97759
3186.15078	0.97805
3184.09387	0.97849
3182.03696	0.97892
3179.98005	0.97928
3177.92314	0.97950
3175.86623	0.97962
3173.80933	0.98000
3171.75242	0.98028
3169.69551	0.97990
3167.63860	0.97954
3165.58169	0.97963
3163.52479	0.97968
3161.46788	0.97954
3159.41097	0.97972
3157.35406	0.98024
3155.29715	0.98076
3153.24024	0.98150
3151.18334	0.98213
3149.12643	0.98194
3147.06952	0.98111
3145.01261	0.98053
3142.95570	0.98070
3140.89880	0.98102
3138.84189	0.98104
3136.78498	0.98099
3134.72807	0.98103
3132.67116	0.98151
3130.61425	0.98225
3128.55735	0.98233
3126.50044	0.98208
3124.44353	0.98241
3122.38662	0.98274
3120.32971	0.98261
3118.27281	0.98256
3116.21590	0.98257
3114.15899	0.98245
3112.10208	0.98244
3110.04517	0.98246
3107.98826	0.98275
3105.93136	0.98317
3103.87445	0.98292
3101.81754	0.98233
3099.76063	0.98238
3097.70372	0.98275
3095.64682	0.98287
3093.58991	0.98301
3091.53300	0.98303
3089.47609	0.98291
3087.41918	0.98339
3085.36227	0.98402
3083.30537	0.98381
3081.24846	0.98323
3079.19155	0.98300
3077.13464	0.98332
3075.07773	0.98376
3073.02083	0.98376
3070.96392	0.98344
3068.90701	0.98324
3066.85010	0.98339
3064.79319	0.98348
3062.73628	0.98304
3060.67938	0.98280
3058.62247	0.98305
3056.56556	0.98307
3054.50865	0.98296
3052.45174	0.98317
3050.39484	0.98345
3048.33793	0.98381
3046.28102	0.98413
3044.22411	0.98435
3042.16720	0.98475
3040.11029	0.98517
3038.05339	0.98525
3035.99648	0.98508
3033.93957	0.98470
3031.88266	0.98413
3029.82575	0.98389
3027.76885	0.98397
3025.71194	0.98378
3023.65503	0.98348
3021.59812	0.98353
3019.54121	0.98393
3017.48430	0.98405
3015.42740	0.98355
3013.37049	0.98323
3011.31358	0.98358
3009.25667	0.98400
3007.19976	0.98394
3005.14286	0.98360
3003.08595	0.98340
3001.02904	0.98335
2998.97213	0.98336
2996.91522	0.98351
2994.85831	0.98337
2992.80141	0.98269
2990.74450	0.98231
2988.68759	0.98237
2986.63068	0.98210
2984.57377	0.98151
2982.51687	0.98114
2980.45996	0.98091
2978.40305	0.98071
2976.34614	0.98074
2974.28923	0.98067
2972.23232	0.98024
2970.17542	0.97952
2968.11851	0.97887
2966.06160	0.97863
2964.00469	0.97836
2961.94778	0.97757
2959.89088	0.97686
2957.83397	0.97659
2955.77706	0.97643
2953.72015	0.97619
2951.66324	0.97566
2949.60633	0.97490
2947.54943	0.97432
2945.49252	0.97399
2943.43561	0.97378
2941.37870	0.97394
2939.32179	0.97445
2937.26489	0.97432
2935.20798	0.97349
2933.15107	0.97302
2931.09416	0.97314
2929.03725	0.97330
2926.98034	0.97345
2924.92344	0.97386
2922.86653	0.97410
2920.80962	0.97374
2918.75271	0.97322
2916.69580	0.97328
2914.63890	0.97404
2912.58199	0.97459
2910.52508	0.97433
2908.46817	0.97376
2906.41126	0.97335
2904.35435	0.97302
2902.29745	0.97277
2900.24054	0.97259
2898.18363	0.97240
2896.12672	0.97223
2894.06981	0.97210
2892.01291	0.97189
2889.95600	0.97180
2887.89909	0.97209
2885.84218	0.97244
2883.78527	0.97243
2881.72836	0.97233
2879.67146	0.97267
2877.61455	0.97308
2875.55764	0.97312
2873.50073	0.97323
2871.44382	0.97378
2869.38692	0.97455
2867.33001	0.97515
2865.27310	0.97555
2863.21619	0.97580
2861.15928	0.97612
2859.10237	0.97674
2857.04547	0.97723
2854.98856	0.97743
2852.93165	0.97778
2850.87474	0.97857
2848.81783	0.97937
2846.76093	0.97980
2844.70402	0.98020
2842.64711	0.98074
2840.59020	0.98118
2838.53329	0.98158
2836.47638	0.98204
2834.41948	0.98233
2832.36257	0.98247
2830.30566	0.98275
2828.24875	0.98327
2826.19184	0.98360
2824.13494	0.98343
2822.07803	0.98326
2820.02112	0.98325
2817.96421	0.98315
2815.90730	0.98305
2813.85039	0.98323
2811.79349	0.98385
2809.73658	0.98431
2807.67967	0.98414
2805.62276	0.98385
2803.56585	0.98370
2801.50895	0.98365
2799.45204	0.98366
2797.39513	0.98386
2795.33822	0.98446
2793.28131	0.98516
2791.22440	0.98539
2789.16750	0.98492
2787.11059	0.98447
2785.05368	0.98467
2782.99677	0.98519
2780.93986	0.98523
2778.88296	0.98476
2776.82605	0.98463
2774.76914	0.98494
2772.71223	0.98506
2770.65532	0.98510
2768.59841	0.98517
2766.54151	0.98512
2764.48460	0.98498
2762.42769	0.98485
2760.37078	0.98472
2758.31387	0.98462
2756.25697	0.98485
2754.20006	0.98521
2752.14315	0.98519
2750.08624	0.98510
2748.02933	0.98533
2745.97242	0.98561
2743.91552	0.98576
2741.85861	0.98589
2739.80170	0.98598
2737.74479	0.98596
2735.68788	0.98574
2733.63098	0.98529
2731.57407	0.98515
2729.51716	0.98539
2727.46025	0.98546
2725.40334	0.98532
2723.34643	0.98520
2721.28953	0.98526
2719.23262	0.98541
2717.17571	0.98535
2715.11880	0.98527
2713.06189	0.98535
2711.00499	0.98558
2708.94808	0.98572
2706.89117	0.98548
2704.83426	0.98543
2702.77735	0.98593
2700.72044	0.98631
2698.66354	0.98626
2696.60663	0.98596
2694.54972	0.98549
2692.49281	0.98528
2690.43590	0.98541
2688.37900	0.98544
2686.32209	0.98548
2684.26518	0.98567
2682.20827	0.98579
2680.15136	0.98590
2678.09445	0.98605
2676.03755	0.98597
2673.98064	0.98568
2671.92373	0.98566
2669.86682	0.98606
2667.80991	0.98638
2665.75301	0.98639
2663.69610	0.98613
2661.63919	0.98568
2659.58228	0.98526
2657.52537	0.98493
2655.46846	0.98514
2653.41156	0.98600
2651.35465	0.98652
2649.29774	0.98628
2647.24083	0.98597
2645.18392	0.98583
2643.12702	0.98584
2641.07011	0.98610
2639.01320	0.98619
2636.95629	0.98601
2634.89938	0.98600
2632.84247	0.98627
2630.78557	0.98649
2628.72866	0.98647
2626.67175	0.98666
2624.61484	0.98714
2622.55793	0.98721
2620.50103	0.98662
2618.44412	0.98620
2616.38721	0.98634
2614.33030	0.98648
2612.27339	0.98636
2610.21648	0.98664
2608.15958	0.98736
2606.10267	0.98780
2604.04576	0.98789
2601.98885	0.98778
2599.93194	0.98759
2597.87504	0.98754
2595.81813	0.98753
2593.76122	0.98757
2591.70431	0.98770
2589.64740	0.98763
2587.59049	0.98754
2585.53359	0.98812
2583.47668	0.98877
2581.41977	0.98860
2579.36286	0.98810
2577.30595	0.98786
2575.24905	0.98773
2573.19214	0.98764
2571.13523	0.98785
2569.07832	0.98795
2567.02141	0.98751
2564.96450	0.98718
2562.90760	0.98753
2560.85069	0.98852
2558.79378	0.98931
2556.73687	0.98901
2554.67996	0.98874
2552.62306	0.98906
2550.56615	0.98894
2548.50924	0.98865
2546.45233	0.98878
2544.39542	0.98909
2542.33851	0.98897
2540.28161	0.98863
2538.22470	0.98845
2536.16779	0.98830
2534.11088	0.98860
2532.05397	0.98903
2529.99707	0.98897
2527.94016	0.98867
2525.88325	0.98823
2523.82634	0.98783
2521.76943	0.98791
2519.71252	0.98848
2517.65562	0.98898
2515.59871	0.98912
2513.54180	0.98919
2511.48489	0.98933
2509.42798	0.98958
2507.37108	0.98966
2505.31417	0.98904
2503.25726	0.98829
2501.20035	0.98815
2499.14344	0.98819
2497.08653	0.98813
2495.02963	0.98800
2492.97272	0.98800
2490.91581	0.98851
2488.85890	0.98886
2486.80199	0.98882
2484.74509	0.98889
2482.68818	0.98873
2480.63127	0.98847
2478.57436	0.98848
2476.51745	0.98839
2474.46054	0.98817
2472.40364	0.98821
2470.34673	0.98815
2468.28982	0.98782
2466.23291	0.98785
2464.17600	0.98818
2462.11910	0.98875
2460.06219	0.98959
2458.00528	0.99015
2455.94837	0.99012
2453.89146	0.98986
2451.83455	0.98975
2449.77765	0.98970
2447.72074	0.98969
2445.66383	0.98975
2443.60692	0.98986
2441.55001	0.99001
2439.49311	0.99008
2437.43620	0.98994
2435.37929	0.98949
2433.32238	0.98886
2431.26547	0.98857
2429.20856	0.98836
2427.15166	0.98773
2425.09475	0.98726
2423.03784	0.98737
2420.98093	0.98784
2418.92402	0.98816
2416.86712	0.98820
2414.81021	0.98831
2412.75330	0.98841
2410.69639	0.98881
2408.63948	0.98981
2406.58257	0.99032
2404.52567	0.98985
2402.46876	0.98947
2400.41185	0.98960
2398.35494	0.98988
2396.29803	0.99025
2394.24113	0.99052
2392.18422	0.99018
2390.12731	0.98926
2388.07040	0.98850
2386.01349	0.98841
2383.95658	0.98882
2381.89968	0.98926
2379.84277	0.98919
2377.78586	0.98893
2375.72895	0.98932
2373.67204	0.98992
2371.61514	0.98987
2369.55823	0.98932
2367.50132	0.98876
2365.44441	0.98875
2363.38750	0.98922
2361.33059	0.98955
2359.27369	0.99005
2357.21678	0.99018
2355.15987	0.98958
2353.10296	0.98938
2351.04605	0.98934
2348.98915	0.98866
2346.93224	0.98797
2344.87533	0.98831
2342.81842	0.98933
2340.76151	0.98941
2338.70460	0.98851
2336.64770	0.98813
2334.59079	0.98866
2332.53388	0.98938
2330.47697	0.98991
2328.42006	0.98959
2326.36316	0.98835
2324.30625	0.98721
2322.24934	0.98711
2320.19243	0.98829
2318.13552	0.98987
2316.07861	0.99048
2314.02171	0.98985
2311.96480	0.98914
2309.90789	0.98925
2307.85098	0.98946
2305.79407	0.98906
2303.73717	0.98871
2301.68026	0.98859
2299.62335	0.98811
2297.56644	0.98754
2295.50953	0.98781
2293.45262	0.98881
2291.39572	0.98937
2289.33881	0.98940
2287.28190	0.98935
2285.22499	0.98913
2283.16808	0.98887
2281.11117	0.98884
2279.05427	0.98893
2276.99736	0.98871
2274.94045	0.98837
2272.88354	0.98870
2270.82663	0.98939
2268.76973	0.98962
2266.71282	0.98964
2264.65591	0.98968
2262.59900	0.98939
2260.54209	0.98888
2258.48518	0.98853
2256.42828	0.98861
2254.37137	0.98924
2252.31446	0.98969
2250.25755	0.98949
2248.20064	0.98937
2246.14374	0.98922
2244.08683	0.98802
2242.02992	0.98732
2239.97301	0.98881
2237.91610	0.99055
2235.85919	0.99098
2233.80229	0.99089
2231.74538	0.99108
2229.68847	0.99137
2227.63156	0.99082
2225.57465	0.98983
2223.51775	0.99007
2221.46084	0.99127
2219.40393	0.99201
2217.34702	0.99227
2215.29011	0.99140
2213.23320	0.98900
2211.17630	0.98762
2209.11939	0.98878
2207.06248	0.99047
2205.00557	0.99062
2202.94866	0.98971
2200.89176	0.98897
2198.83485	0.98850
2196.77794	0.98963
2194.72103	0.99239
2192.66412	0.99246
2190.60721	0.98970
2188.55031	0.98840
2186.49340	0.98906
2184.43649	0.98963
2182.37958	0.98899
2180.32267	0.98820
2178.26577	0.98911
2176.20886	0.99123
2174.15195	0.99286
2172.09504	0.99353
2170.03813	0.99310
2167.98122	0.99073
2165.92432	0.98737
2163.86741	0.98669
2161.81050	0.98954
2159.75359	0.99211
2157.69668	0.99203
2155.63978	0.99094
2153.58287	0.99139
2151.52596	0.99282
2149.46905	0.99307
2147.41214	0.99246
2145.35523	0.99155
2143.29833	0.99132
2141.24142	0.99201
2139.18451	0.99239
2137.12760	0.99244
2135.07069	0.99244
2133.01379	0.99230
2130.95688	0.99122
2128.89997	0.98937
2126.84306	0.98842
2124.78615	0.98907
2122.72924	0.99019
2120.67234	0.99042
2118.61543	0.99030
2116.55852	0.99044
2114.50161	0.99051
2112.44470	0.99025
2110.38780	0.98916
2108.33089	0.98771
2106.27398	0.98698
2104.21707	0.98698
2102.16016	0.98718
2100.10325	0.98741
2098.04635	0.98798
2095.98944	0.98860
2093.93253	0.98888
2091.87562	0.98891
2089.81871	0.98919
2087.76181	0.99003
2085.70490	0.99040
2083.64799	0.99012
2081.59108	0.99011
2079.53417	0.99085
2077.47726	0.99160
2075.42036	0.99081
2073.36345	0.98940
2071.30654	0.98885
2069.24963	0.98873
2067.19272	0.98847
2065.13582	0.98801
2063.07891	0.98786
2061.02200	0.98846
2058.96509	0.98911
2056.90818	0.98876
2054.85127	0.98815
2052.79437	0.98829
2050.73746	0.98871
2048.68055	0.98956
2046.62364	0.99069
2044.56673	0.99134
2042.50983	0.99158
2040.45292	0.99152
2038.39601	0.99175
2036.33910	0.99204
2034.28219	0.99202
2032.22528	0.99228
2030.16838	0.99245
2028.11147	0.99342
2026.05456	0.99557
2023.99765	0.99435
2021.94074	0.99032
2019.88384	0.99057
2017.82693	0.99386
2015.77002	0.99455
2013.71311	0.99372
2011.65620	0.99307
2009.59929	0.99271
2007.54239	0.99412
2005.48548	0.99595
2003.42857	0.99584
2001.37166	0.99405
1999.31475	0.99186
1997.25785	0.99043
1995.20094	0.98977
1993.14403	0.99010
1991.08712	0.99071
1989.03021	0.98986
1986.97330	0.98940
1984.91640	0.99090
1982.85949	0.99283
1980.80258	0.99405
1978.74567	0.99412
1976.68876	0.99313
1974.63186	0.99250
1972.57495	0.99273
1970.51804	0.99257
1968.46113	0.99107
1966.40422	0.98951
1964.34731	0.99029
1962.29041	0.99197
1960.23350	0.99203
1958.17659	0.99121
1956.11968	0.99069
1954.06277	0.99065
1952.00587	0.99157
1949.94896	0.99295
1947.89205	0.99318
1945.83514	0.99222
1943.77823	0.99143
1941.72132	0.99112
1939.66442	0.99049
1937.60751	0.98965
1935.55060	0.98953
1933.49369	0.98986
1931.43678	0.99026
1929.37988	0.99150
1927.32297	0.99275
1925.26606	0.99256
1923.20915	0.99130
1921.15224	0.99010
1919.09533	0.98980
1917.03843	0.99004
1914.98152	0.99011
1912.92461	0.99055
1910.86770	0.99197
1908.81079	0.99308
1906.75389	0.99219
1904.69698	0.99038
1902.64007	0.98980
1900.58316	0.99064
1898.52625	0.99179
1896.46934	0.99217
1894.41244	0.99180
1892.35553	0.99184
1890.29862	0.99220
1888.24171	0.99182
1886.18480	0.99125
1884.12790	0.99116
1882.07099	0.99112
1880.01408	0.99101
1877.95717	0.99100
1875.90026	0.99133
1873.84335	0.99194
1871.78645	0.99202
1869.72954	0.99134
1867.67263	0.99071
1865.61572	0.99060
1863.55881	0.99084
1861.50191	0.99123
1859.44500	0.99110
1857.38809	0.99073
1855.33118	0.99087
1853.27427	0.99140
1851.21736	0.99183
1849.16046	0.99208
1847.10355	0.99228
1845.04664	0.99225
1842.98973	0.99175
1840.93282	0.99105
1838.87592	0.99065
1836.81901	0.99034
1834.76210	0.98994
1832.70519	0.98981
1830.64828	0.98992
1828.59137	0.98997
1826.53447	0.98981
1824.47756	0.98941
1822.42065	0.98916
1820.36374	0.98927
1818.30683	0.98966
1816.24993	0.99014
1814.19302	0.99022
1812.13611	0.99015
1810.07920	0.98989
1808.02229	0.98939
1805.96538	0.98889
1803.90848	0.98829
1801.85157	0.98765
1799.79466	0.98767
1797.73775	0.98804
1795.68084	0.98799
1793.62394	0.98763
1791.56703	0.98708
1789.51012	0.98637
1787.45321	0.98578
1785.39630	0.98550
1783.33939	0.98493
1781.28249	0.98361
1779.22558	0.98174
1777.16867	0.97999
1775.11176	0.97827
1773.05485	0.97545
1770.99795	0.97141
1768.94104	0.96660
1766.88413	0.96068
1764.82722	0.95377
1762.77031	0.94489
1760.71340	0.93386
1758.65650	0.92302
1756.59959	0.91173
1754.54268	0.90095
1752.48577	0.89153
1750.42886	0.88217
1748.37196	0.87374
1746.31505	0.86691
1744.25814	0.86123
1742.20123	0.85677
1740.14432	0.85338
1738.08741	0.85100
1736.03051	0.84971
1733.97360	0.84980
1731.91669	0.85113
1729.85978	0.85291
1727.80287	0.85575
1725.74597	0.85985
1723.68906	0.86517
1721.63215	0.87093
1719.57524	0.87736
1717.51833	0.88644
1715.46142	0.89680
1713.40452	0.90578
1711.34761	0.91394
1709.29070	0.92165
1707.23379	0.92912
1705.17688	0.93648
1703.11998	0.94241
1701.06307	0.94796
1699.00616	0.95402
1696.94925	0.95809
1694.89234	0.96124
1692.83543	0.96381
1690.77853	0.96581
1688.72162	0.96754
1686.66471	0.96870
1684.60780	0.96980
1682.55089	0.97105
1680.49399	0.97209
1678.43708	0.97303
1676.38017	0.97378
1674.32326	0.97397
1672.26635	0.97362
1670.20944	0.97313
1668.15254	0.97323
1666.09563	0.97366
1664.03872	0.97372
1661.98181	0.97334
1659.92490	0.97274
1657.86800	0.97217
1655.81109	0.97138
1653.75418	0.96970
1651.69727	0.96822
1649.64036	0.96812
1647.58345	0.96831
1645.52655	0.96871
1643.46964	0.96939
1641.41273	0.97001
1639.35582	0.97049
1637.29891	0.97103
1635.24201	0.97193
1633.18510	0.97258
1631.12819	0.97282
1629.07128	0.97319
1627.01437	0.97389
1624.95746	0.97455
1622.90056	0.97493
1620.84365	0.97509
1618.78674	0.97515
1616.72983	0.97554
1614.67292	0.97648
1612.61602	0.97725
1610.55911	0.97750
1608.50220	0.97763
1606.44529	0.97812
1604.38838	0.97854
1602.33147	0.97857
1600.27457	0.97889
1598.21766	0.97946
1596.16075	0.97960
1594.10384	0.97949
1592.04693	0.97945
1589.99003	0.97947
1587.93312	0.97959
1585.87621	0.97964
1583.81930	0.97947
1581.76239	0.97934
1579.70548	0.97942
1577.64858	0.97974
1575.59167	0.98021
1573.53476	0.98057
1571.47785	0.98084
1569.42094	0.98112
1567.36404	0.98120
1565.30713	0.98093
1563.25022	0.98066
1561.19331	0.98047
1559.13640	0.98045
1557.07949	0.98121
1555.02259	0.98209
1552.96568	0.98266
1550.90877	0.98293
1548.85186	0.98290
1546.79495	0.98258
1544.73805	0.98246
1542.68114	0.98284
1540.62423	0.98319
1538.56732	0.98318
1536.51041	0.98314
1534.45350	0.98308
1532.39660	0.98329
1530.33969	0.98378
1528.28278	0.98430
1526.22587	0.98497
1524.16896	0.98535
1522.11206	0.98498
1520.05515	0.98429
1517.99824	0.98379
1515.94133	0.98348
1513.88442	0.98372
1511.82751	0.98429
1509.77061	0.98446
1507.71370	0.98384
1505.65679	0.98315
1503.59988	0.98330
1501.54297	0.98373
1499.48607	0.98398
1497.42916	0.98392
1495.37225	0.98372
1493.31534	0.98360
1491.25843	0.98336
1489.20152	0.98263
1487.14462	0.98201
1485.08771	0.98182
1483.03080	0.98153
1480.97389	0.98095
1478.91698	0.98016
1476.86008	0.97919
1474.80317	0.97821
1472.74626	0.97699
1470.68935	0.97534
1468.63244	0.97395
1466.57553	0.97248
1464.51863	0.97056
1462.46172	0.96907
1460.40481	0.96833
1458.34790	0.96740
1456.29099	0.96540
1454.23409	0.96358
1452.17718	0.96242
1450.12027	0.96121
1448.06336	0.95968
1446.00645	0.95817
1443.94954	0.95680
1441.89264	0.95540
1439.83573	0.95417
1437.77882	0.95296
1435.72191	0.95143
1433.66500	0.95028
1431.60810	0.94986
1429.55119	0.94995
1427.49428	0.95030
1425.43737	0.95076
1423.38046	0.95137
1421.32355	0.95190
1419.26665	0.95221
1417.20974	0.95269
1415.15283	0.95330
1413.09592	0.95349
1411.03901	0.95337
1408.98211	0.95343
1406.92520	0.95357
1404.86829	0.95358
1402.81138	0.95345
1400.75447	0.95301
1398.69756	0.95202
1396.64066	0.95030
1394.58375	0.94772
1392.52684	0.94473
1390.46993	0.94141
1388.41302	0.93691
1386.35612	0.93107
1384.29921	0.92503
1382.24230	0.91882
1380.18539	0.91229
1378.12848	0.90609
1376.07157	0.90075
1374.01467	0.89630
1371.95776	0.89348
1369.90085	0.89297
1367.84394	0.89493
1365.78703	0.89932
1363.73013	0.90620
1361.67322	0.91510
1359.61631	0.92379
1357.55940	0.93118
1355.50249	0.93719
1353.44558	0.94185
1351.38868	0.94554
1349.33177	0.94857
1347.27486	0.95084
1345.21795	0.95216
1343.16104	0.95283
1341.10414	0.95338
1339.04723	0.95388
1336.99032	0.95398
1334.93341	0.95378
1332.87650	0.95353
1330.81959	0.95307
1328.76269	0.95229
1326.70578	0.95142
1324.64887	0.95078
1322.59196	0.95040
1320.53505	0.95018
1318.47815	0.95020
1316.42124	0.95037
1314.36433	0.95048
1312.30742	0.95036
1310.25051	0.95006
1308.19360	0.95000
1306.13670	0.95016
1304.07979	0.94999
1302.02288	0.94966
1299.96597	0.94946
1297.90906	0.94907
1295.85216	0.94822
1293.79525	0.94676
1291.73834	0.94472
1289.68143	0.94236
1287.62452	0.93973
1285.56761	0.93664
1283.51071	0.93302
1281.45380	0.92899
1279.39689	0.92468
1277.33998	0.92008
1275.28307	0.91507
1273.22617	0.90935
1271.16926	0.90292
1269.11235	0.89622
1267.05544	0.88945
1264.99853	0.88245
1262.94162	0.87505
1260.88472	0.86719
1258.82781	0.85902
1256.77090	0.85078
1254.71399	0.84248
1252.65708	0.83415
1250.60018	0.82594
1248.54327	0.81796
1246.48636	0.81035
1244.42945	0.80299
1242.37254	0.79577
1240.31563	0.78921
1238.25873	0.78369
1236.20182	0.77888
1234.14491	0.77481
1232.08800	0.77219
1230.03109	0.77143
1227.97419	0.77262
1225.91728	0.77619
1223.86037	0.78242
1221.80346	0.79126
1219.74655	0.80258
1217.68964	0.81570
1215.63274	0.82937
1213.57583	0.84319
1211.51892	0.85718
1209.46201	0.87052
1207.40510	0.88241
1205.34820	0.89272
1203.29129	0.90196
1201.23438	0.91060
1199.17747	0.91831
1197.12056	0.92467
1195.06365	0.92993
1193.00675	0.93431
1190.94984	0.93756
1188.89293	0.93953
1186.83602	0.94041
1184.77911	0.94014
1182.72221	0.93868
1180.66530	0.93623
1178.60839	0.93303
1176.55148	0.92925
1174.49457	0.92520
1172.43766	0.92112
1170.38076	0.91695
1168.32385	0.91274
1166.26694	0.90882
1164.21003	0.90550
1162.15312	0.90290
1160.09622	0.90130
1158.03931	0.90125
1155.98240	0.90264
1153.92549	0.90493
1151.86858	0.90765
1149.81167	0.91024
1147.75477	0.91233
1145.69786	0.91361
1143.64095	0.91383
1141.58404	0.91304
1139.52713	0.91151
1137.47023	0.90935
1135.41332	0.90655
1133.35641	0.90322
1131.29950	0.89923
1129.24259	0.89483
1127.18568	0.89074
1125.12878	0.88731
1123.07187	0.88452
1121.01496	0.88207
1118.95805	0.87960
1116.90114	0.87720
1114.84424	0.87515
1112.78733	0.87347
1110.73042	0.87190
1108.67351	0.86995
1106.61660	0.86739
1104.55969	0.86439
1102.50279	0.86133
1100.44588	0.85817
1098.38897	0.85448
1096.33206	0.85044
1094.27515	0.84622
1092.21825	0.84131
1090.16134	0.83551
1088.10443	0.82910
1086.04752	0.82237
1083.99061	0.81538
1081.93370	0.80796
1079.87680	0.80037
1077.81989	0.79322
1075.76298	0.78667
1073.70607	0.78068
1071.64916	0.77519
1069.59226	0.77009
1067.53535	0.76521
1065.47844	0.76056
1063.42153	0.75627
1061.36462	0.75206
1059.30771	0.74783
1057.25081	0.74376
1055.19390	0.73973
1053.13699	0.73581
1051.08008	0.73212
1049.02317	0.72847
1046.96627	0.72491
1044.90936	0.72158
1042.85245	0.71850
1040.79554	0.71559
1038.73863	0.71259
1036.68172	0.70985
1034.62482	0.70838
1032.56791	0.70875
1030.51100	0.71096
1028.45409	0.71519
1026.39718	0.72151
1024.34028	0.72945
1022.28337	0.73852
1020.22646	0.74820
1018.16955	0.75844
1016.11264	0.76925
1014.05573	0.77998
1011.99883	0.79003
1009.94192	0.79925
1007.88501	0.80751
1005.82810	0.81476
1003.77119	0.82149
1001.71429	0.82799
999.65738	0.83420
997.60047	0.84010
995.54356	0.84552
993.48665	0.85054
991.42974	0.85578
989.37284	0.86135
987.31593	0.86645
985.25902	0.87075
983.20211	0.87531
981.14520	0.88055
979.08830	0.88561
977.03139	0.89046
974.97448	0.89533
972.91757	0.89991
970.86066	0.90425
968.80375	0.90841
966.74685	0.91226
964.68994	0.91618
962.63303	0.92005
960.57612	0.92299
958.51921	0.92517
956.46231	0.92723
954.40540	0.92890
952.34849	0.93033
950.29158	0.93185
948.23467	0.93322
946.17776	0.93433
944.12086	0.93521
942.06395	0.93582
940.00704	0.93643
937.95013	0.93705
935.89322	0.93725
933.83632	0.93742
931.77941	0.93789
929.72250	0.93809
927.66559	0.93790
925.60868	0.93744
923.55177	0.93676
921.49487	0.93613
919.43796	0.93513
917.38105	0.93344
915.32414	0.93145
913.26723	0.92953
911.21033	0.92780
909.15342	0.92625
907.09651	0.92531
905.03960	0.92549
902.98269	0.92621
900.92578	0.92682
898.86888	0.92751
896.81197	0.92855
894.75506	0.92970
892.69815	0.93103
890.64124	0.93295
888.58434	0.93501
886.52743	0.93696
884.47052	0.93950
882.41361	0.94271
880.35670	0.94607
878.29979	0.94913
876.24289	0.95143
874.18598	0.95323
872.12907	0.95495
870.07216	0.95659
868.01525	0.95851
865.95835	0.96045
863.90144	0.96173
861.84453	0.96258
859.78762	0.96316
857.73071	0.96344
855.67380	0.96339
853.61690	0.96288
851.55999	0.96245
849.50308	0.96206
847.44617	0.96114
845.38926	0.96052
843.33236	0.96078
841.27545	0.96107
839.21854	0.96132
837.16163	0.96196
835.10472	0.96263
833.04781	0.96301
830.99091	0.96346
828.93400	0.96447
826.87709	0.96556
824.82018	0.96606
822.76327	0.96627
820.70637	0.96633
818.64946	0.96635
816.59255	0.96690
814.53564	0.96727
812.47873	0.96703
810.42182	0.96736
808.36492	0.96773
806.30801	0.96686
804.25110	0.96615
802.19419	0.96655
800.13728	0.96700
798.08038	0.96721
796.02347	0.96736
793.96656	0.96712
791.90965	0.96660
789.85274	0.96611
787.79583	0.96592
785.73893	0.96624
783.68202	0.96649
781.62511	0.96627
779.56820	0.96602
777.51129	0.96598
775.45439	0.96554
773.39748	0.96522
771.34057	0.96587
769.28366	0.96642
767.22675	0.96646
765.16984	0.96637
763.11294	0.96572
761.05603	0.96461
758.99912	0.96411
756.94221	0.96463
754.88530	0.96533
752.82839	0.96543
750.77149	0.96490
748.71458	0.96418
746.65767	0.96363
744.60076	0.96325
742.54385	0.96255
740.48695	0.96143
738.43004	0.96117
736.37313	0.96126
734.31622	0.96030
732.25931	0.95950
730.20240	0.95941
728.14550	0.95918
726.08859	0.95888
724.03168	0.95812
721.97477	0.95682
719.91786	0.95587
717.86096	0.95524
715.80405	0.95439
713.74714	0.95328
711.69023	0.95212
709.63332	0.95103
707.57641	0.95029
705.51951	0.95009
703.46260	0.95013
701.40569	0.95008
699.34878	0.94960
697.29187	0.94821
695.23497	0.94637
693.17806	0.94521
691.12115	0.94437
689.06424	0.94309
687.00733	0.94216
684.95042	0.94172
682.89352	0.94051
680.83661	0.93873
678.77970	0.93739
676.72279	0.93612
674.66588	0.93531
672.60898	0.93557
670.55207	0.93538
668.49516	0.93393
666.43825	0.93320
664.38134	0.93288
662.32443	0.93224
660.26753	0.93192
658.21062	0.93159
656.15371	0.93067
654.09680	0.92918
652.03989	0.92740
649.98299	0.92573
647.92608	0.92469
645.86917	0.92370
643.81226	0.92193
641.75535	0.91984
639.69844	0.91807
637.64154	0.91677
635.58463	0.91512
633.52772	0.91363
631.47081	0.91339
629.41390	0.91317
627.35700	0.91185
625.30009	0.90984
623.24318	0.90819
621.18627	0.90735
619.12936	0.90645
617.07245	0.90483
615.01555	0.90255
612.95864	0.89945
610.90173	0.89571
608.84482	0.89184
606.78791	0.88785
604.73101	0.88478
602.67410	0.88418
600.61719	0.88546
598.56028	0.88757
596.50337	0.89124
594.44646	0.89616
592.38956	0.89976
590.33265	0.90102
588.27574	0.90146
586.21883	0.90184
584.16192	0.90206
582.10502	0.90310
580.04811	0.90485
577.99120	0.90518
575.93429	0.90386
573.87738	0.90220
571.82047	0.90067
569.76357	0.89954
567.70666	0.89902
565.64975	0.89913
563.59284	0.89982
561.53593	0.90028
559.47903	0.90054
557.42212	0.90103
555.36521	0.90023
553.30830	0.89898
551.25139	0.89992
549.19448	0.90166
547.13758	0.90196
545.08067	0.90174
543.02376	0.90168
540.96685	0.90161
538.90994	0.90193
536.85304	0.90207
534.79613	0.90141
532.73922	0.90133
530.68231	0.90232
528.62540	0.90214
526.56849	0.90064
524.51159	0.90025
522.45468	0.90053
520.39777	0.89988
518.34086	0.89833
516.28395	0.89681
514.22705	0.89650
512.17014	0.89703
510.11323	0.89622
508.05632	0.89366
505.99941	0.89161
503.94250	0.89092
501.88560	0.89055
499.82869	0.89014
497.77178	0.88919
495.71487	0.88778
493.65796	0.88778
491.60106	0.88792
489.54415	0.88697
487.48724	0.88802
485.43033	0.89033
483.37342	0.88968
481.31651	0.88703
479.25961	0.88630
477.20270	0.88763
475.14579	0.88835
473.08888	0.88815
471.03197	0.88835
468.97507	0.88717
466.91816	0.88604
464.86125	0.88730
462.80434	0.88720
460.74743	0.88542
458.69052	0.88505
456.63362	0.88578
454.57671	0.88626
452.51980	0.88462
450.46289	0.88099
448.40598	0.88002
446.34908	0.88205
444.29217	0.88296
442.23526	0.88312
440.17835	0.88184
438.12144	0.87990
436.06453	0.88221
434.00763	0.88641
431.95072	0.89022
429.89381	0.89355
427.83690	0.89201
425.77999	0.88946
423.72309	0.89229
421.66618	0.89585
419.60927	0.89646
417.55236	0.89470
415.49545	0.88987
413.43854	0.88707
411.38164	0.88866
409.32473	0.88883
407.26782	0.88864
405.21091	0.89194
403.15400	0.89456
401.09710	0.89498
399.04019	0.89799
