3996.57260	0.98908
3994.51569	0.98840
3992.45878	0.98791
3990.40188	0.98817
3988.34497	0.98869
3986.28806	0.98882
3984.23115	0.98848
3982.17424	0.98800
3980.11733	0.98741
3978.06043	0.98697
3976.00352	0.98731
3973.94661	0.98817
3971.88970	0.98841
3969.83279	0.98761
3967.77589	0.98707
3965.71898	0.98745
3963.66207	0.98757
3961.60516	0.98728
3959.54825	0.98740
3957.49134	0.98772
3955.43444	0.98820
3953.37753	0.98891
3951.32062	0.98916
3949.26371	0.98861
3947.20680	0.98790
3945.14990	0.98795
3943.09299	0.98841
3941.03608	0.98818
3938.97917	0.98720
3936.92226	0.98647
3934.86535	0.98652
3932.80845	0.98663
3930.75154	0.98643
3928.69463	0.98645
3926.63772	0.98661
3924.58081	0.98660
3922.52391	0.98694
3920.46700	0.98733
3918.41009	0.98699
3916.35318	0.98674
3914.29627	0.98709
3912.23936	0.98734
3910.18246	0.98759
3908.12555	0.98813
3906.06864	0.98898
3904.01173	0.98968
3901.95482	0.98931
3899.89792	0.98837
3897.84101	0.98785
3895.78410	0.98773
3893.72719	0.98786
3891.67028	0.98814
3889.61337	0.98801
3887.55647	0.98749
3885.49956	0.98725
3883.44265	0.98761
3881.38574	0.98805
3879.32883	0.98794
3877.27193	0.98748
3875.21502	0.98740
3873.15811	0.98788
3871.10120	0.98811
3869.04429	0.98787
3866.98738	0.98783
3864.93048	0.98796
3862.87357	0.98791
3860.81666	0.98769
3858.75975	0.98765
3856.70284	0.98782
3854.64594	0.98789
3852.58903	0.98727
3850.53212	0.98703
3848.47521	0.98768
3846.41830	0.98834
3844.36139	0.98876
3842.30449	0.98871
3840.24758	0.98810
3838.19067	0.98773
3836.13376	0.98733
3834.07685	0.98717
3832.01995	0.98808
3829.96304	0.98912
3827.90613	0.98928
3825.84922	0.98868
3823.79231	0.98807
3821.73540	0.98757
3819.67850	0.98722
3817.62159	0.98760
3815.56468	0.98801
3813.50777	0.98791
3811.45086	0.98773
3809.39396	0.98750
3807.33705	0.98743
3805.28014	0.98764
3803.22323	0.98767
3801.16632	0.98794
3799.10941	0.98867
3797.05251	0.98896
3794.99560	0.98877
3792.93869	0.98831
3790.88178	0.98769
3788.82487	0.98755
3786.76796	0.98798
3784.71106	0.98826
3782.65415	0.98852
3780.59724	0.98889
3778.54033	0.98872
3776.48342	0.98840
3774.42652	0.98842
3772.36961	0.98872
3770.31270	0.98887
3768.25579	0.98816
3766.19888	0.98757
3764.14197	0.98791
3762.08507	0.98807
3760.02816	0.98786
3757.97125	0.98853
3755.91434	0.98958
3753.85743	0.98928
3751.80053	0.98781
3749.74362	0.98714
3747.68671	0.98812
3745.62980	0.98921
3743.57289	0.98893
3741.51598	0.98850
3739.45908	0.98864
3737.40217	0.98834
3735.34526	0.98759
3733.28835	0.98735
3731.23144	0.98752
3729.17454	0.98751
3727.11763	0.98729
3725.06072	0.98767
3723.00381	0.98881
3720.94690	0.98899
3718.88999	0.98805
3716.83309	0.98780
3714.77618	0.98898
3712.71927	0.99068
3710.66236	0.99081
3708.60545	0.98932
3706.54855	0.98830
3704.49164	0.98790
3702.43473	0.98775
3700.37782	0.98805
3698.32091	0.98881
3696.26400	0.98969
3694.20710	0.98981
3692.15019	0.98908
3690.09328	0.98885
3688.03637	0.98939
3685.97946	0.98934
3683.92256	0.98874
3681.86565	0.98815
3679.80874	0.98775
3677.75183	0.98750
3675.69492	0.98703
3673.63801	0.98645
3671.58111	0.98636
3669.52420	0.98633
3667.46729	0.98599
3665.41038	0.98572
3663.35347	0.98560
3661.29657	0.98551
3659.23966	0.98549
3657.18275	0.98561
3655.12584	0.98618
3653.06893	0.98695
3651.01202	0.98734
3648.95512	0.98683
3646.89821	0.98503
3644.84130	0.98329
3642.78439	0.98267
3640.72748	0.98312
3638.67058	0.98397
3636.61367	0.98441
3634.55676	0.98420
3632.49985	0.98342
3630.44294	0.98228
3628.38603	0.98149
3626.32913	0.98161
3624.27222	0.98173
3622.21531	0.98159
3620.15840	0.98138
3618.10149	0.98046
3616.04459	0.97903
3613.98768	0.97824
3611.93077	0.97825
3609.87386	0.97810
3607.81695	0.97763
3605.76004	0.97733
3603.70314	0.97710
3601.64623	0.97664
3599.58932	0.97579
3597.53241	0.97496
3595.47550	0.97437
3593.41860	0.97401
3591.36169	0.97379
3589.30478	0.97310
3587.24787	0.97224
3585.19096	0.97212
3583.13405	0.97196
3581.07715	0.97129
3579.02024	0.97053
3576.96333	0.96974
3574.90642	0.96914
3572.84951	0.96847
3570.79261	0.96762
3568.73570	0.96703
3566.67879	0.96652
3564.62188	0.96578
3562.56497	0.96471
3560.50806	0.96362
3558.45116	0.96313
3556.39425	0.96303
3554.33734	0.96256
3552.28043	0.96118
3550.22352	0.95934
3548.16662	0.95819
3546.10971	0.95752
3544.05280	0.95640
3541.99589	0.95543
3539.93898	0.95529
3537.88207	0.95523
3535.82517	0.95402
3533.76826	0.95228
3531.71135	0.95129
3529.65444	0.95080
3527.59753	0.95029
3525.54063	0.94999
3523.48372	0.94977
3521.42681	0.94867
3519.36990	0.94664
3517.31299	0.94520
3515.25608	0.94480
3513.19918	0.94445
3511.14227	0.94407
3509.08536	0.94358
3507.02845	0.94262
3504.97154	0.94162
3502.91464	0.94084
3500.85773	0.94021
3498.80082	0.94009
3496.74391	0.94015
3494.68700	0.93939
3492.63009	0.93849
3490.57319	0.93835
3488.51628	0.93825
3486.45937	0.93793
3484.40246	0.93793
3482.34555	0.93797
3480.28865	0.93790
3478.23174	0.93787
3476.17483	0.93713
3474.11792	0.93601
3472.06101	0.93565
3470.00410	0.93595
3467.94720	0.93631
3465.89029	0.93622
3463.83338	0.93572
3461.77647	0.93565
3459.71956	0.93627
3457.66266	0.93660
3455.60575	0.93620
3453.54884	0.93594
3451.49193	0.93624
3449.43502	0.93663
3447.37811	0.93660
3445.32121	0.93664
3443.26430	0.93730
3441.20739	0.93808
3439.15048	0.93850
3437.09357	0.93862
3435.03667	0.93890
3432.97976	0.93961
3430.92285	0.94005
3428.86594	0.93973
3426.80903	0.93918
3424.75212	0.93914
3422.69522	0.94000
3420.63831	0.94126
3418.58140	0.94219
3416.52449	0.94242
3414.46758	0.94236
3412.41068	0.94264
3410.35377	0.94303
3408.29686	0.94348
3406.23995	0.94389
3404.18304	0.94383
3402.12613	0.94396
3400.06923	0.94492
3398.01232	0.94586
3395.95541	0.94585
3393.89850	0.94531
3391.84159	0.94515
3389.78469	0.94553
3387.72778	0.94579
3385.67087	0.94616
3383.61396	0.94707
3381.55705	0.94793
3379.50014	0.94867
3377.44324	0.94937
3375.38633	0.94978
3373.32942	0.95008
3371.27251	0.95040
3369.21560	0.95072
3367.15870	0.95088
3365.10179	0.95069
3363.04488	0.95061
3360.98797	0.95125
3358.93106	0.95173
3356.87415	0.95139
3354.81725	0.95152
3352.76034	0.95267
3350.70343	0.95387
3348.64652	0.95456
3346.58961	0.95490
3344.53271	0.95520
3342.47580	0.95514
3340.41889	0.95451
3338.36198	0.95413
3336.30507	0.95476
3334.24816	0.95576
3332.19126	0.95634
3330.13435	0.95659
3328.07744	0.95675
3326.02053	0.95678
3323.96362	0.95682
3321.90672	0.95756
3319.84981	0.95872
3317.79290	0.95956
3315.73599	0.96055
3313.67908	0.96170
3311.62217	0.96216
3309.56527	0.96204
3307.50836	0.96169
3305.45145	0.96143
3303.39454	0.96182
3301.33763	0.96256
3299.28073	0.96314
3297.22382	0.96361
3295.16691	0.96372
3293.11000	0.96323
3291.05309	0.96287
3288.99618	0.96332
3286.93928	0.96400
3284.88237	0.96456
3282.82546	0.96516
3280.76855	0.96541
3278.71164	0.96537
3276.65474	0.96550
3274.59783	0.96567
3272.54092	0.96596
3270.48401	0.96642
3268.42710	0.96674
3266.37019	0.96712
3264.31329	0.96786
3262.25638	0.96828
3260.19947	0.96779
3258.14256	0.96724
3256.08565	0.96771
3254.02875	0.96883
3251.97184	0.96977
3249.91493	0.97016
3247.85802	0.96989
3245.80111	0.96931
3243.74420	0.96927
3241.68730	0.97006
3239.63039	0.97098
3237.57348	0.97130
3235.51657	0.97119
3233.45966	0.97123
3231.40276	0.97138
3229.34585	0.97145
3227.28894	0.97170
3225.23203	0.97245
3223.17512	0.97328
3221.11821	0.97338
3219.06131	0.97312
3217.00440	0.97348
3214.94749	0.97414
3212.89058	0.97429
3210.83367	0.97420
3208.77677	0.97441
3206.71986	0.97500
3204.66295	0.97537
3202.60604	0.97525
3200.54913	0.97510
3198.49222	0.97528
3196.43532	0.97588
3194.37841	0.97633
3192.32150	0.97617
3190.26459	0.97601
3188.20768	0.97638
3186.15078	0.97710
3184.09387	0.97764
3182.03696	0.97743
3179.98005	0.97675
3177.92314	0.97666
3175.86623	0.97732
3173.80933	0.97796
3171.75242	0.97815
3169.69551	0.97814
3167.63860	0.97835
3165.58169	0.97881
3163.52479	0.97905
3161.46788	0.97884
3159.41097	0.97880
3157.35406	0.97925
3155.29715	0.97951
3153.24024	0.97919
3151.18334	0.97884
3149.12643	0.97882
3147.06952	0.97902
3145.01261	0.97937
3142.95570	0.97977
3140.89880	0.98016
3138.84189	0.98032
3136.78498	0.98017
3134.72807	0.98017
3132.67116	0.98041
3130.61425	0.98088
3128.55735	0.98142
3126.50044	0.98150
3124.44353	0.98115
3122.38662	0.98081
3120.32971	0.98080
3118.27281	0.98114
3116.21590	0.98154
3114.15899	0.98171
3112.10208	0.98151
3110.04517	0.98132
3107.98826	0.98162
3105.93136	0.98182
3103.87445	0.98156
3101.81754	0.98166
3099.76063	0.98190
3097.70372	0.98164
3095.64682	0.98157
3093.58991	0.98195
3091.53300	0.98243
3089.47609	0.98282
3087.41918	0.98252
3085.36227	0.98164
3083.30537	0.98119
3081.24846	0.98143
3079.19155	0.98190
3077.13464	0.98234
3075.07773	0.98265
3073.02083	0.98263
3070.96392	0.98243
3068.90701	0.98228
3066.85010	0.98219
3064.79319	0.98233
3062.73628	0.98262
3060.67938	0.98260
3058.62247	0.98246
3056.56556	0.98256
3054.50865	0.98268
3052.45174	0.98283
3050.39484	0.98306
3048.33793	0.98308
3046.28102	0.98265
3044.22411	0.98207
3042.16720	0.98200
3040.11029	0.98230
3038.05339	0.98237
3035.99648	0.98213
3033.93957	0.98194
3031.88266	0.98178
3029.82575	0.98147
3027.76885	0.98128
3025.71194	0.98138
3023.65503	0.98150
3021.59812	0.98157
3019.54121	0.98169
3017.48430	0.98196
3015.42740	0.98225
3013.37049	0.98218
3011.31358	0.98175
3009.25667	0.98121
3007.19976	0.98081
3005.14286	0.98059
3003.08595	0.98039
3001.02904	0.98019
2998.97213	0.98018
2996.91522	0.98036
2994.85831	0.98041
2992.80141	0.98023
2990.74450	0.98013
2988.68759	0.98008
2986.63068	0.97984
2984.57377	0.97941
2982.51687	0.97880
2980.45996	0.97790
2978.40305	0.97717
2976.34614	0.97681
2974.28923	0.97630
2972.23232	0.97534
2970.17542	0.97413
2968.11851	0.97316
2966.06160	0.97245
2964.00469	0.97199
2961.94778	0.97184
2959.89088	0.97159
2957.83397	0.97092
2955.77706	0.97016
2953.72015	0.96972
2951.66324	0.96936
2949.60633	0.96887
2947.54943	0.96841
2945.49252	0.96809
2943.43561	0.96786
2941.37870	0.96743
2939.32179	0.96683
2937.26489	0.96664
2935.20798	0.96665
2933.15107	0.96647
2931.09416	0.96662
2929.03725	0.96716
2926.98034	0.96727
2924.92344	0.96710
2922.86653	0.96698
2920.80962	0.96675
2918.75271	0.96678
2916.69580	0.96694
2914.63890	0.96674
2912.58199	0.96641
2910.52508	0.96617
2908.46817	0.96612
2906.41126	0.96632
2904.35435	0.96636
2902.29745	0.96629
2900.24054	0.96629
2898.18363	0.96601
2896.12672	0.96536
2894.06981	0.96499
2892.01291	0.96525
2889.95600	0.96545
2887.89909	0.96535
2885.84218	0.96538
2883.78527	0.96548
2881.72836	0.96523
2879.67146	0.96513
2877.61455	0.96603
2875.55764	0.96726
2873.50073	0.96771
2871.44382	0.96759
2869.38692	0.96789
2867.33001	0.96884
2865.27310	0.97000
2863.21619	0.97131
2861.15928	0.97246
2859.10237	0.97307
2857.04547	0.97349
2854.98856	0.97402
2852.93165	0.97475
2850.87474	0.97558
2848.81783	0.97635
2846.76093	0.97694
2844.70402	0.97731
2842.64711	0.97779
2840.59020	0.97867
2838.53329	0.97964
2836.47638	0.98006
2834.41948	0.97994
2832.36257	0.97995
2830.30566	0.98032
2828.24875	0.98071
2826.19184	0.98069
2824.13494	0.98038
2822.07803	0.98032
2820.02112	0.98064
2817.96421	0.98118
2815.90730	0.98166
2813.85039	0.98184
2811.79349	0.98173
2809.73658	0.98164
2807.67967	0.98193
2805.62276	0.98222
2803.56585	0.98191
2801.50895	0.98151
2799.45204	0.98179
2797.39513	0.98244
2795.33822	0.98281
2793.28131	0.98280
2791.22440	0.98266
2789.16750	0.98271
2787.11059	0.98290
2785.05368	0.98306
2782.99677	0.98327
2780.93986	0.98346
2778.88296	0.98350
2776.82605	0.98339
2774.76914	0.98321
2772.71223	0.98314
2770.65532	0.98334
2768.59841	0.98370
2766.54151	0.98400
2764.48460	0.98414
2762.42769	0.98411
2760.37078	0.98387
2758.31387	0.98376
2756.25697	0.98396
2754.20006	0.98405
2752.14315	0.98387
2750.08624	0.98374
2748.02933	0.98379
2745.97242	0.98384
2743.91552	0.98385
2741.85861	0.98392
2739.80170	0.98407
2737.74479	0.98412
2735.68788	0.98396
2733.63098	0.98378
2731.57407	0.98367
2729.51716	0.98358
2727.46025	0.98356
2725.40334	0.98364
2723.34643	0.98378
2721.28953	0.98393
2719.23262	0.98425
2717.17571	0.98463
2715.11880	0.98453
2713.06189	0.98403
2711.00499	0.98394
2708.94808	0.98433
2706.89117	0.98467
2704.83426	0.98464
2702.77735	0.98440
2700.72044	0.98439
2698.66354	0.98443
2696.60663	0.98424
2694.54972	0.98417
2692.49281	0.98434
2690.43590	0.98464
2688.37900	0.98501
2686.32209	0.98536
2684.26518	0.98547
2682.20827	0.98518
2680.15136	0.98469
2678.09445	0.98468
2676.03755	0.98516
2673.98064	0.98526
2671.92373	0.98492
2669.86682	0.98466
2667.80991	0.98456
2665.75301	0.98465
2663.69610	0.98474
2661.63919	0.98454
2659.58228	0.98434
2657.52537	0.98442
2655.46846	0.98445
2653.41156	0.98441
2651.35465	0.98452
2649.29774	0.98483
2647.24083	0.98518
2645.18392	0.98539
2643.12702	0.98553
2641.07011	0.98554
2639.01320	0.98546
2636.95629	0.98558
2634.89938	0.98576
2632.84247	0.98544
2630.78557	0.98489
2628.72866	0.98489
2626.67175	0.98514
2624.61484	0.98505
2622.55793	0.98513
2620.50103	0.98553
2618.44412	0.98542
2616.38721	0.98502
2614.33030	0.98491
2612.27339	0.98502
2610.21648	0.98540
2608.15958	0.98619
2606.10267	0.98713
2604.04576	0.98752
2601.98885	0.98718
2599.93194	0.98683
2597.87504	0.98671
2595.81813	0.98669
2593.76122	0.98680
2591.70431	0.98650
2589.64740	0.98564
2587.59049	0.98497
2585.53359	0.98511
2583.47668	0.98594
2581.41977	0.98669
2579.36286	0.98673
2577.30595	0.98659
2575.24905	0.98682
2573.19214	0.98715
2571.13523	0.98738
2569.07832	0.98741
2567.02141	0.98731
2564.96450	0.98725
2562.90760	0.98744
2560.85069	0.98804
2558.79378	0.98858
2556.73687	0.98846
2554.67996	0.98799
2552.62306	0.98792
2550.56615	0.98802
2548.50924	0.98759
2546.45233	0.98723
2544.39542	0.98753
2542.33851	0.98803
2540.28161	0.98826
2538.22470	0.98801
2536.16779	0.98756
2534.11088	0.98788
2532.05397	0.98900
2529.99707	0.98907
2527.94016	0.98769
2525.88325	0.98673
2523.82634	0.98700
2521.76943	0.98768
2519.71252	0.98813
2517.65562	0.98825
2515.59871	0.98814
2513.54180	0.98799
2511.48489	0.98802
2509.42798	0.98839
2507.37108	0.98871
2505.31417	0.98852
2503.25726	0.98784
2501.20035	0.98738
2499.14344	0.98768
2497.08653	0.98825
2495.02963	0.98829
2492.97272	0.98809
2490.91581	0.98835
2488.85890	0.98863
2486.80199	0.98861
2484.74509	0.98857
2482.68818	0.98828
2480.63127	0.98779
2478.57436	0.98759
2476.51745	0.98793
2474.46054	0.98826
2472.40364	0.98808
2470.34673	0.98795
2468.28982	0.98813
2466.23291	0.98855
2464.17600	0.98878
2462.11910	0.98848
2460.06219	0.98790
2458.00528	0.98753
2455.94837	0.98817
2453.89146	0.98899
2451.83455	0.98848
2449.77765	0.98771
2447.72074	0.98803
2445.66383	0.98846
2443.60692	0.98833
2441.55001	0.98861
2439.49311	0.98907
2437.43620	0.98894
2435.37929	0.98883
2433.32238	0.98871
2431.26547	0.98836
2429.20856	0.98877
2427.15166	0.98976
2425.09475	0.98985
2423.03784	0.98912
2420.98093	0.98874
2418.92402	0.98874
2416.86712	0.98872
2414.81021	0.98901
2412.75330	0.98948
2410.69639	0.98930
2408.63948	0.98898
2406.58257	0.98937
2404.52567	0.98927
2402.46876	0.98822
2400.41185	0.98778
2398.35494	0.98828
2396.29803	0.98888
2394.24113	0.98945
2392.18422	0.98988
2390.12731	0.98974
2388.07040	0.98906
2386.01349	0.98844
2383.95658	0.98837
2381.89968	0.98865
2379.84277	0.98896
2377.78586	0.98926
2375.72895	0.98947
2373.67204	0.98946
2371.61514	0.98938
2369.55823	0.98976
2367.50132	0.99024
2365.44441	0.99026
2363.38750	0.99078
2361.33059	0.99180
2359.27369	0.99169
2357.21678	0.99020
2355.15987	0.98870
2353.10296	0.98833
2351.04605	0.98840
2348.98915	0.98826
2346.93224	0.98828
2344.87533	0.98839
2342.81842	0.98814
2340.76151	0.98795
2338.70460	0.98889
2336.64770	0.99019
2334.59079	0.99026
2332.53388	0.98968
2330.47697	0.98927
2328.42006	0.98894
2326.36316	0.98818
2324.30625	0.98726
2322.24934	0.98721
2320.19243	0.98747
2318.13552	0.98743
2316.07861	0.98762
2314.02171	0.98791
2311.96480	0.98805
2309.90789	0.98813
2307.85098	0.98837
2305.79407	0.98871
2303.73717	0.98895
2301.68026	0.98909
2299.62335	0.98925
2297.56644	0.98912
2295.50953	0.98861
2293.45262	0.98835
2291.39572	0.98857
2289.33881	0.98860
2287.28190	0.98832
2285.22499	0.98877
2283.16808	0.98957
2281.11117	0.98931
2279.05427	0.98817
2276.99736	0.98698
2274.94045	0.98669
2272.88354	0.98793
2270.82663	0.98916
2268.76973	0.98879
2266.71282	0.98815
2264.65591	0.98875
2262.59900	0.98929
2260.54209	0.98917
2258.48518	0.98944
2256.42828	0.98997
2254.37137	0.99033
2252.31446	0.99039
2250.25755	0.99048
2248.20064	0.99050
2246.14374	0.98956
2244.08683	0.98860
2242.02992	0.98841
2239.97301	0.98812
2237.91610	0.98825
2235.85919	0.98949
2233.80229	0.99025
2231.74538	0.99049
2229.68847	0.99189
2227.63156	0.99327
2225.57465	0.99308
2223.51775	0.99233
2221.46084	0.99201
2219.40393	0.99103
2217.34702	0.98939
2215.29011	0.98995
2213.23320	0.99141
2211.17630	0.99001
2209.11939	0.98795
2207.06248	0.98833
2205.00557	0.99066
2202.94866	0.99315
2200.89176	0.99388
2198.83485	0.99269
2196.77794	0.99141
2194.72103	0.99088
2192.66412	0.99050
2190.60721	0.98978
2188.55031	0.98882
2186.49340	0.98840
2184.43649	0.98869
2182.37958	0.98889
2180.32267	0.98807
2178.26577	0.98699
2176.20886	0.98819
2174.15195	0.99030
2172.09504	0.99042
2170.03813	0.99005
2167.98122	0.99069
2165.92432	0.99087
2163.86741	0.99044
2161.81050	0.99046
2159.75359	0.98974
2157.69668	0.98879
2155.63978	0.99036
2153.58287	0.99251
2151.52596	0.99243
2149.46905	0.99129
2147.41214	0.99067
2145.35523	0.99040
2143.29833	0.99066
2141.24142	0.99185
2139.18451	0.99266
2137.12760	0.99215
2135.07069	0.99139
2133.01379	0.99079
2130.95688	0.99046
2128.89997	0.99072
2126.84306	0.99088
2124.78615	0.99076
2122.72924	0.99076
2120.67234	0.99080
2118.61543	0.99036
2116.55852	0.98962
2114.50161	0.98931
2112.44470	0.98901
2110.38780	0.98850
2108.33089	0.98876
2106.27398	0.98971
2104.21707	0.98990
2102.16016	0.98871
2100.10325	0.98757
2098.04635	0.98836
2095.98944	0.99049
2093.93253	0.99219
2091.87562	0.99209
2089.81871	0.98997
2087.76181	0.98886
2085.70490	0.98987
2083.64799	0.99034
2081.59108	0.98951
2079.53417	0.98862
2077.47726	0.98819
2075.42036	0.98871
2073.36345	0.99075
2071.30654	0.99244
2069.24963	0.99193
2067.19272	0.99109
2065.13582	0.99101
2063.07891	0.99098
2061.02200	0.99135
2058.96509	0.99110
2056.90818	0.98998
2054.85127	0.98963
2052.79437	0.98960
2050.73746	0.98934
2048.68055	0.98895
2046.62364	0.98807
2044.56673	0.98776
2042.50983	0.98858
2040.45292	0.99028
2038.39601	0.99233
2036.33910	0.99405
2034.28219	0.99584
2032.22528	0.99626
2030.16838	0.99446
2028.11147	0.99263
2026.05456	0.99204
2023.99765	0.99293
2021.94074	0.99496
2019.88384	0.99619
2017.82693	0.99465
2015.77002	0.99135
2013.71311	0.98970
2011.65620	0.99003
2009.59929	0.99061
2007.54239	0.99200
2005.48548	0.99291
2003.42857	0.99146
2001.37166	0.98951
1999.31475	0.98926
1997.25785	0.99152
1995.20094	0.99373
1993.14403	0.99283
1991.08712	0.99134
1989.03021	0.99210
1986.97330	0.99268
1984.91640	0.99212
1982.85949	0.99233
1980.80258	0.99242
1978.74567	0.99108
1976.68876	0.98946
1974.63186	0.98929
1972.57495	0.99068
1970.51804	0.99229
1968.46113	0.99305
1966.40422	0.99284
1964.34731	0.99185
1962.29041	0.99001
1960.23350	0.98899
1958.17659	0.98958
1956.11968	0.99022
1954.06277	0.99125
1952.00587	0.99285
1949.94896	0.99328
1947.89205	0.99286
1945.83514	0.99315
1943.77823	0.99429
1941.72132	0.99515
1939.66442	0.99490
1937.60751	0.99362
1935.55060	0.99198
1933.49369	0.99109
1931.43678	0.99052
1929.37988	0.99031
1927.32297	0.99108
1925.26606	0.99176
1923.20915	0.99167
1921.15224	0.99132
1919.09533	0.99102
1917.03843	0.99111
1914.98152	0.99180
1912.92461	0.99246
1910.86770	0.99252
1908.81079	0.99196
1906.75389	0.99135
1904.69698	0.99094
1902.64007	0.99046
1900.58316	0.99010
1898.52625	0.99051
1896.46934	0.99103
1894.41244	0.99076
1892.35553	0.99065
1890.29862	0.99133
1888.24171	0.99208
1886.18480	0.99191
1884.12790	0.99118
1882.07099	0.99072
1880.01408	0.99053
1877.95717	0.99042
1875.90026	0.99050
1873.84335	0.99084
1871.78645	0.99134
1869.72954	0.99169
1867.67263	0.99153
1865.61572	0.99141
1863.55881	0.99143
1861.50191	0.99122
1859.44500	0.99087
1857.38809	0.99056
1855.33118	0.99042
1853.27427	0.99056
1851.21736	0.99079
1849.16046	0.99099
1847.10355	0.99097
1845.04664	0.99109
1842.98973	0.99158
1840.93282	0.99125
1838.87592	0.99025
1836.81901	0.98960
1834.76210	0.98972
1832.70519	0.98994
1830.64828	0.98969
1828.59137	0.98938
1826.53447	0.98966
1824.47756	0.98996
1822.42065	0.98940
1820.36374	0.98830
1818.30683	0.98772
1816.24993	0.98774
1814.19302	0.98780
1812.13611	0.98795
1810.07920	0.98780
1808.02229	0.98702
1805.96538	0.98597
1803.90848	0.98512
1801.85157	0.98448
1799.79466	0.98430
1797.73775	0.98435
1795.68084	0.98387
1793.62394	0.98285
1791.56703	0.98184
1789.51012	0.98090
1787.45321	0.97925
1785.39630	0.97724
1783.33939	0.97577
1781.28249	0.97454
1779.22558	0.97238
1777.16867	0.96925
1775.11176	0.96561
1773.05485	0.96083
1770.99795	0.95399
1768.94104	0.94512
1766.88413	0.93406
1764.82722	0.92154
1762.77031	0.90566
1760.71340	0.88554
1758.65650	0.86613
1756.59959	0.84705
1754.54268	0.82977
1752.48577	0.81487
1750.42886	0.79944
1748.37196	0.78560
1746.31505	0.77560
1744.25814	0.76807
1742.20123	0.76234
1740.14432	0.75825
1738.08741	0.75643
1736.03051	0.75713
1733.97360	0.75916
1731.91669	0.76225
1729.85978	0.76720
1727.80287	0.77434
1725.74597	0.78319
1723.68906	0.79398
1721.63215	0.80557
1719.57524	0.81787
1717.51833	0.83401
1715.46142	0.85173
1713.40452	0.86665
1711.34761	0.88001
1709.29070	0.89243
1707.23379	0.90454
1705.17688	0.91624
1703.11998	0.92517
1701.06307	0.93271
1699.00616	0.94000
1696.94925	0.94532
1694.89234	0.95018
1692.83543	0.95391
1690.77853	0.95640
1688.72162	0.95869
1686.66471	0.96069
1684.60780	0.96236
1682.55089	0.96350
1680.49399	0.96451
1678.43708	0.96578
1676.38017	0.96694
1674.32326	0.96739
1672.26635	0.96752
1670.20944	0.96810
1668.15254	0.96877
1666.09563	0.96860
1664.03872	0.96766
1661.98181	0.96695
1659.92490	0.96706
1657.86800	0.96720
1655.81109	0.96677
1653.75418	0.96562
1651.69727	0.96439
1649.64036	0.96364
1647.58345	0.96312
1645.52655	0.96388
1643.46964	0.96490
1641.41273	0.96526
1639.35582	0.96576
1637.29891	0.96624
1635.24201	0.96615
1633.18510	0.96628
1631.12819	0.96672
1629.07128	0.96710
1627.01437	0.96763
1624.95746	0.96829
1622.90056	0.96887
1620.84365	0.96970
1618.78674	0.97059
1616.72983	0.97136
1614.67292	0.97216
1612.61602	0.97282
1610.55911	0.97327
1608.50220	0.97362
1606.44529	0.97409
1604.38838	0.97491
1602.33147	0.97593
1600.27457	0.97689
1598.21766	0.97739
1596.16075	0.97755
1594.10384	0.97781
1592.04693	0.97807
1589.99003	0.97824
1587.93312	0.97849
1585.87621	0.97862
1583.81930	0.97852
1581.76239	0.97859
1579.70548	0.97902
1577.64858	0.97952
1575.59167	0.97972
1573.53476	0.97975
1571.47785	0.97999
1569.42094	0.98022
1567.36404	0.98010
1565.30713	0.97989
1563.25022	0.97992
1561.19331	0.98021
1559.13640	0.98042
1557.07949	0.98053
1555.02259	0.98098
1552.96568	0.98147
1550.90877	0.98174
1548.85186	0.98174
1546.79495	0.98154
1544.73805	0.98112
1542.68114	0.98059
1540.62423	0.98060
1538.56732	0.98129
1536.51041	0.98179
1534.45350	0.98220
1532.39660	0.98242
1530.33969	0.98221
1528.28278	0.98212
1526.22587	0.98229
1524.16896	0.98227
1522.11206	0.98222
1520.05515	0.98242
1517.99824	0.98230
1515.94133	0.98206
1513.88442	0.98223
1511.82751	0.98223
1509.77061	0.98192
1507.71370	0.98167
1505.65679	0.98143
1503.59988	0.98145
1501.54297	0.98175
1499.48607	0.98190
1497.42916	0.98162
1495.37225	0.98140
1493.31534	0.98130
1491.25843	0.98077
1489.20152	0.97981
1487.14462	0.97919
1485.08771	0.97886
1483.03080	0.97827
1480.97389	0.97730
1478.91698	0.97610
1476.86008	0.97459
1474.80317	0.97303
1472.74626	0.97107
1470.68935	0.96876
1468.63244	0.96693
1466.57553	0.96487
1464.51863	0.96192
1462.46172	0.95911
1460.40481	0.95715
1458.34790	0.95500
1456.29099	0.95198
1454.23409	0.94984
1452.17718	0.94842
1450.12027	0.94678
1448.06336	0.94467
1446.00645	0.94222
1443.94954	0.93989
1441.89264	0.93770
1439.83573	0.93562
1437.77882	0.93348
1435.72191	0.93109
1433.66500	0.92954
1431.60810	0.92921
1429.55119	0.92962
1427.49428	0.93039
1425.43737	0.93137
1423.38046	0.93237
1421.32355	0.93341
1419.26665	0.93457
1417.20974	0.93532
1415.15283	0.93563
1413.09592	0.93585
1411.03901	0.93610
1408.98211	0.93632
1406.92520	0.93640
1404.86829	0.93632
1402.81138	0.93597
1400.75447	0.93528
1398.69756	0.93385
1396.64066	0.93122
1394.58375	0.92729
1392.52684	0.92238
1390.46993	0.91662
1388.41302	0.90878
1386.35612	0.89862
1384.29921	0.88813
1382.24230	0.87752
1380.18539	0.86649
1378.12848	0.85621
1376.07157	0.84764
1374.01467	0.84084
1371.95776	0.83705
1369.90085	0.83741
1367.84394	0.84174
1365.78703	0.84958
1363.73013	0.86111
1361.67322	0.87594
1359.61631	0.89063
1357.55940	0.90321
1355.50249	0.91365
1353.44558	0.92166
1351.38868	0.92720
1349.33177	0.93109
1347.27486	0.93392
1345.21795	0.93576
1343.16104	0.93693
1341.10414	0.93767
1339.04723	0.93782
1336.99032	0.93748
1334.93341	0.93694
1332.87650	0.93646
1330.81959	0.93601
1328.76269	0.93526
1326.70578	0.93427
1324.64887	0.93318
1322.59196	0.93201
1320.53505	0.93104
1318.47815	0.93040
1316.42124	0.93011
1314.36433	0.93031
1312.30742	0.93068
1310.25051	0.93069
1308.19360	0.93031
1306.13670	0.92991
1304.07979	0.92968
1302.02288	0.92945
1299.96597	0.92879
1297.90906	0.92754
1295.85216	0.92567
1293.79525	0.92315
1291.73834	0.92000
1289.68143	0.91621
1287.62452	0.91197
1285.56761	0.90737
1283.51071	0.90206
1281.45380	0.89581
1279.39689	0.88871
1277.33998	0.88102
1275.28307	0.87275
1273.22617	0.86369
1271.16926	0.85397
1269.11235	0.84370
1267.05544	0.83268
1264.99853	0.82094
1262.94162	0.80853
1260.88472	0.79559
1258.82781	0.78240
1256.77090	0.76899
1254.71399	0.75534
1252.65708	0.74162
1250.60018	0.72805
1248.54327	0.71484
1246.48636	0.70205
1244.42945	0.68968
1242.37254	0.67785
1240.31563	0.66661
1238.25873	0.65625
1236.20182	0.64719
1234.14491	0.63979
1232.08800	0.63490
1230.03109	0.63304
1227.97419	0.63435
1225.91728	0.63930
1223.86037	0.64844
1221.80346	0.66211
1219.74655	0.68039
1217.68964	0.70250
1215.63274	0.72696
1213.57583	0.75212
1211.51892	0.77653
1209.46201	0.79936
1207.40510	0.82027
1205.34820	0.83898
1203.29129	0.85529
1201.23438	0.86938
1199.17747	0.88158
1197.12056	0.89204
1195.06365	0.90078
1193.00675	0.90743
1190.94984	0.91201
1188.89293	0.91491
1186.83602	0.91587
1184.77911	0.91463
1182.72221	0.91166
1180.66530	0.90740
1178.60839	0.90204
1176.55148	0.89618
1174.49457	0.89024
1172.43766	0.88381
1170.38076	0.87702
1168.32385	0.87067
1166.26694	0.86505
1164.21003	0.86051
1162.15312	0.85752
1160.09622	0.85607
1158.03931	0.85630
1155.98240	0.85847
1153.92549	0.86210
1151.86858	0.86640
1149.81167	0.87050
1147.75477	0.87347
1145.69786	0.87519
1143.64095	0.87584
1141.58404	0.87480
1139.52713	0.87198
1137.47023	0.86811
1135.41332	0.86324
1133.35641	0.85750
1131.29950	0.85147
1129.24259	0.84540
1127.18568	0.83976
1125.12878	0.83515
1123.07187	0.83118
1121.01496	0.82725
1118.95805	0.82347
1116.90114	0.82009
1114.84424	0.81727
1112.78733	0.81493
1110.73042	0.81250
1108.67351	0.80944
1106.61660	0.80568
1104.55969	0.80158
1102.50279	0.79726
1100.44588	0.79256
1098.38897	0.78716
1096.33206	0.78091
1094.27515	0.77385
1092.21825	0.76554
1090.16134	0.75599
1088.10443	0.74576
1086.04752	0.73495
1083.99061	0.72356
1081.93370	0.71184
1079.87680	0.70018
1077.81989	0.68916
1075.76298	0.67900
1073.70607	0.66956
1071.64916	0.66079
1069.59226	0.65280
1067.53535	0.64582
1065.47844	0.63942
1063.42153	0.63300
1061.36462	0.62648
1059.30771	0.61999
1057.25081	0.61331
1055.19390	0.60640
1053.13699	0.59963
1051.08008	0.59321
1049.02317	0.58717
1046.96627	0.58159
1044.90936	0.57644
1042.85245	0.57178
1040.79554	0.56758
1038.73863	0.56379
1036.68172	0.56095
1034.62482	0.55980
1032.56791	0.56115
1030.51100	0.56596
1028.45409	0.57464
1026.39718	0.58669
1024.34028	0.60155
1022.28337	0.61845
1020.22646	0.63606
1018.16955	0.65391
1016.11264	0.67197
1014.05573	0.68944
1011.99883	0.70573
1009.94192	0.72069
1007.88501	0.73447
1005.82810	0.74726
1003.77119	0.75908
1001.71429	0.76989
999.65738	0.77989
997.60047	0.78965
995.54356	0.79909
993.48665	0.80773
991.42974	0.81574
989.37284	0.82329
987.31593	0.83034
985.25902	0.83692
983.20211	0.84324
981.14520	0.84967
979.08830	0.85618
977.03139	0.86294
974.97448	0.87033
972.91757	0.87768
970.86066	0.88434
968.80375	0.89048
966.74685	0.89624
964.68994	0.90160
962.63303	0.90649
960.57612	0.91067
958.51921	0.91399
956.46231	0.91658
954.40540	0.91860
952.34849	0.92022
950.29158	0.92171
948.23467	0.92315
946.17776	0.92431
944.12086	0.92498
942.06395	0.92523
940.00704	0.92533
937.95013	0.92579
935.89322	0.92645
933.83632	0.92650
931.77941	0.92574
929.72250	0.92449
927.66559	0.92335
925.60868	0.92229
923.55177	0.92093
921.49487	0.91969
919.43796	0.91831
917.38105	0.91625
915.32414	0.91394
913.26723	0.91163
911.21033	0.90893
909.15342	0.90624
907.09651	0.90453
905.03960	0.90382
902.98269	0.90393
900.92578	0.90505
898.86888	0.90667
896.81197	0.90831
894.75506	0.91027
892.69815	0.91285
890.64124	0.91578
888.58434	0.91885
886.52743	0.92229
884.47052	0.92615
882.41361	0.93025
880.35670	0.93426
878.29979	0.93825
876.24289	0.94252
874.18598	0.94658
872.12907	0.94977
870.07216	0.95210
868.01525	0.95387
865.95835	0.95547
863.90144	0.95685
861.84453	0.95811
859.78762	0.95934
857.73071	0.95994
855.67380	0.96009
853.61690	0.96020
851.55999	0.95988
849.50308	0.95895
847.44617	0.95773
845.38926	0.95647
843.33236	0.95558
841.27545	0.95529
839.21854	0.95539
837.16163	0.95611
835.10472	0.95733
833.04781	0.95831
830.99091	0.95911
828.93400	0.96012
826.87709	0.96137
824.82018	0.96276
822.76327	0.96377
820.70637	0.96422
818.64946	0.96448
816.59255	0.96473
814.53564	0.96491
812.47873	0.96514
810.42182	0.96551
808.36492	0.96555
806.30801	0.96516
804.25110	0.96510
802.19419	0.96547
800.13728	0.96598
798.08038	0.96610
796.02347	0.96537
793.96656	0.96458
791.90965	0.96437
789.85274	0.96430
787.79583	0.96403
785.73893	0.96375
783.68202	0.96361
781.62511	0.96349
779.56820	0.96330
777.51129	0.96344
775.45439	0.96360
773.39748	0.96314
771.34057	0.96257
769.28366	0.96236
767.22675	0.96254
765.16984	0.96284
763.11294	0.96286
761.05603	0.96232
758.99912	0.96138
756.94221	0.96076
754.88530	0.96048
752.82839	0.96050
750.77149	0.96070
748.71458	0.96035
746.65767	0.95976
744.60076	0.95951
742.54385	0.95911
740.48695	0.95828
738.43004	0.95742
736.37313	0.95639
734.31622	0.95521
732.25931	0.95455
730.20240	0.95405
728.14550	0.95281
726.08859	0.95125
724.03168	0.95007
721.97477	0.94895
719.91786	0.94762
717.86096	0.94619
715.80405	0.94530
713.74714	0.94524
711.69023	0.94514
709.63332	0.94425
707.57641	0.94262
705.51951	0.94075
703.46260	0.93870
701.40569	0.93659
699.34878	0.93516
697.29187	0.93434
695.23497	0.93326
693.17806	0.93169
691.12115	0.92979
689.06424	0.92791
687.00733	0.92625
684.95042	0.92473
682.89352	0.92384
680.83661	0.92339
678.77970	0.92275
676.72279	0.92218
674.66588	0.92164
672.60898	0.92061
670.55207	0.91932
668.49516	0.91804
666.43825	0.91659
664.38134	0.91546
662.32443	0.91492
660.26753	0.91449
658.21062	0.91373
656.15371	0.91236
654.09680	0.91003
652.03989	0.90730
649.98299	0.90508
647.92608	0.90332
645.86917	0.90129
643.81226	0.89849
641.75535	0.89506
639.69844	0.89208
637.64154	0.89053
635.58463	0.88893
633.52772	0.88599
631.47081	0.88364
629.41390	0.88243
627.35700	0.88071
625.30009	0.87909
623.24318	0.87820
621.18627	0.87597
619.12936	0.87196
617.07245	0.86835
615.01555	0.86500
612.95864	0.86012
610.90173	0.85404
608.84482	0.84783
606.78791	0.84325
604.73101	0.84158
602.67410	0.84209
600.61719	0.84460
598.56028	0.84911
596.50337	0.85483
594.44646	0.86085
592.38956	0.86573
590.33265	0.86882
588.27574	0.87072
586.21883	0.87261
584.16192	0.87474
582.10502	0.87607
580.04811	0.87601
577.99120	0.87420
575.93429	0.87193
573.87738	0.87114
571.82047	0.87100
569.76357	0.86967
567.70666	0.86765
565.64975	0.86662
563.59284	0.86582
561.53593	0.86504
559.47903	0.86540
557.42212	0.86585
555.36521	0.86526
553.30830	0.86518
551.25139	0.86682
549.19448	0.86853
547.13758	0.86953
545.08067	0.87056
543.02376	0.87071
540.96685	0.87023
538.90994	0.87078
536.85304	0.87110
534.79613	0.86964
532.73922	0.86743
530.68231	0.86635
528.62540	0.86690
526.56849	0.86769
524.51159	0.86753
522.45468	0.86717
520.39777	0.86723
518.34086	0.86641
516.28395	0.86521
514.22705	0.86456
512.17014	0.86351
510.11323	0.86193
508.05632	0.86027
505.99941	0.85912
503.94250	0.85848
501.88560	0.85757
499.82869	0.85556
497.77178	0.85367
495.71487	0.85367
493.65796	0.85389
491.60106	0.85244
489.54415	0.85164
487.48724	0.85338
485.43033	0.85582
483.37342	0.85633
481.31651	0.85465
479.25961	0.85372
477.20270	0.85355
475.14579	0.85198
473.08888	0.85026
471.03197	0.84969
468.97507	0.84887
466.91816	0.84738
464.86125	0.84728
462.80434	0.84800
460.74743	0.84701
458.69052	0.84518
456.63362	0.84442
454.57671	0.84497
452.51980	0.84605
450.46289	0.84503
448.40598	0.84364
446.34908	0.84604
444.29217	0.84802
442.23526	0.84578
440.17835	0.84347
438.12144	0.84412
436.06453	0.84786
434.00763	0.85201
431.95072	0.85355
429.89381	0.85380
427.83690	0.85330
425.77999	0.85321
423.72309	0.85628
421.66618	0.85847
419.60927	0.85667
417.55236	0.85692
415.49545	0.85901
413.43854	0.85911
411.38164	0.85940
409.32473	0.86005
407.26782	0.85831
405.21091	0.85540
403.15400	0.85372
401.09710	0.85297
399.04019	0.85254
