3996.57260	0.98884
3994.51569	0.98873
3992.45878	0.98806
3990.40188	0.98787
3988.34497	0.98855
3986.28806	0.98896
3984.23115	0.98878
3982.17424	0.98841
3980.11733	0.98821
3978.06043	0.98830
3976.00352	0.98839
3973.94661	0.98860
3971.88970	0.98922
3969.83279	0.98946
3967.77589	0.98844
3965.71898	0.98739
3963.66207	0.98737
3961.60516	0.98762
3959.54825	0.98777
3957.49134	0.98810
3955.43444	0.98841
3953.37753	0.98869
3951.32062	0.98911
3949.26371	0.98928
3947.20680	0.98876
3945.14990	0.98838
3943.09299	0.98871
3941.03608	0.98896
3938.97917	0.98864
3936.92226	0.98812
3934.86535	0.98790
3932.80845	0.98849
3930.75154	0.98963
3928.69463	0.99002
3926.63772	0.98970
3924.58081	0.98923
3922.52391	0.98847
3920.46700	0.98800
3918.41009	0.98846
3916.35318	0.98881
3914.29627	0.98858
3912.23936	0.98845
3910.18246	0.98831
3908.12555	0.98829
3906.06864	0.98841
3904.01173	0.98822
3901.95482	0.98796
3899.89792	0.98777
3897.84101	0.98781
3895.78410	0.98801
3893.72719	0.98801
3891.67028	0.98810
3889.61337	0.98873
3887.55647	0.98920
3885.49956	0.98906
3883.44265	0.98896
3881.38574	0.98880
3879.32883	0.98821
3877.27193	0.98757
3875.21502	0.98728
3873.15811	0.98772
3871.10120	0.98813
3869.04429	0.98782
3866.98738	0.98788
3864.93048	0.98851
3862.87357	0.98918
3860.81666	0.98947
3858.75975	0.98898
3856.70284	0.98828
3854.64594	0.98863
3852.58903	0.98969
3850.53212	0.98955
3848.47521	0.98876
3846.41830	0.98810
3844.36139	0.98814
3842.30449	0.98871
3840.24758	0.98949
3838.19067	0.99017
3836.13376	0.98950
3834.07685	0.98846
3832.01995	0.98868
3829.96304	0.98896
3827.90613	0.98845
3825.84922	0.98843
3823.79231	0.98922
3821.73540	0.98949
3819.67850	0.98861
3817.62159	0.98810
3815.56468	0.98878
3813.50777	0.98915
3811.45086	0.98857
3809.39396	0.98857
3807.33705	0.98924
3805.28014	0.98893
3803.22323	0.98873
3801.16632	0.98953
3799.10941	0.98953
3797.05251	0.98902
3794.99560	0.98924
3792.93869	0.98947
3790.88178	0.98907
3788.82487	0.98876
3786.76796	0.98896
3784.71106	0.98904
3782.65415	0.98858
3780.59724	0.98842
3778.54033	0.98932
3776.48342	0.99057
3774.42652	0.99114
3772.36961	0.99047
3770.31270	0.98905
3768.25579	0.98813
3766.19888	0.98841
3764.14197	0.98916
3762.08507	0.98932
3760.02816	0.98918
3757.97125	0.98921
3755.91434	0.98912
3753.85743	0.98879
3751.80053	0.98852
3749.74362	0.98858
3747.68671	0.98900
3745.62980	0.98966
3743.57289	0.98976
3741.51598	0.98913
3739.45908	0.98865
3737.40217	0.98844
3735.34526	0.98859
3733.28835	0.98900
3731.23144	0.98910
3729.17454	0.98899
3727.11763	0.98860
3725.06072	0.98797
3723.00381	0.98776
3720.94690	0.98803
3718.88999	0.98832
3716.83309	0.98849
3714.77618	0.98873
3712.71927	0.98923
3710.66236	0.98987
3708.60545	0.98984
3706.54855	0.98937
3704.49164	0.98939
3702.43473	0.98968
3700.37782	0.98933
3698.32091	0.98860
3696.26400	0.98850
3694.20710	0.98907
3692.15019	0.98948
3690.09328	0.98912
3688.03637	0.98847
3685.97946	0.98819
3683.92256	0.98809
3681.86565	0.98834
3679.80874	0.98902
3677.75183	0.98961
3675.69492	0.98912
3673.63801	0.98799
3671.58111	0.98763
3669.52420	0.98772
3667.46729	0.98781
3665.41038	0.98784
3663.35347	0.98773
3661.29657	0.98804
3659.23966	0.98933
3657.18275	0.99053
3655.12584	0.99041
3653.06893	0.98925
3651.01202	0.98755
3648.95512	0.98624
3646.89821	0.98629
3644.84130	0.98716
3642.78439	0.98822
3640.72748	0.98821
3638.67058	0.98697
3636.61367	0.98665
3634.55676	0.98745
3632.49985	0.98799
3630.44294	0.98822
3628.38603	0.98749
3626.32913	0.98676
3624.27222	0.98706
3622.21531	0.98707
3620.15840	0.98685
3618.10149	0.98731
3616.04459	0.98786
3613.98768	0.98790
3611.93077	0.98739
3609.87386	0.98676
3607.81695	0.98643
3605.76004	0.98617
3603.70314	0.98609
3601.64623	0.98645
3599.58932	0.98667
3597.53241	0.98612
3595.47550	0.98572
3593.41860	0.98644
3591.36169	0.98761
3589.30478	0.98837
3587.24787	0.98819
3585.19096	0.98722
3583.13405	0.98649
3581.07715	0.98628
3579.02024	0.98649
3576.96333	0.98666
3574.90642	0.98617
3572.84951	0.98539
3570.79261	0.98493
3568.73570	0.98479
3566.67879	0.98477
3564.62188	0.98496
3562.56497	0.98520
3560.50806	0.98466
3558.45116	0.98355
3556.39425	0.98287
3554.33734	0.98263
3552.28043	0.98278
3550.22352	0.98351
3548.16662	0.98404
3546.10971	0.98372
3544.05280	0.98322
3541.99589	0.98284
3539.93898	0.98272
3537.88207	0.98306
3535.82517	0.98290
3533.76826	0.98217
3531.71135	0.98165
3529.65444	0.98105
3527.59753	0.98080
3525.54063	0.98123
3523.48372	0.98145
3521.42681	0.98164
3519.36990	0.98212
3517.31299	0.98224
3515.25608	0.98165
3513.19918	0.98088
3511.14227	0.98058
3509.08536	0.98034
3507.02845	0.97969
3504.97154	0.97958
3502.91464	0.98064
3500.85773	0.98161
3498.80082	0.98130
3496.74391	0.98036
3494.68700	0.97997
3492.63009	0.97989
3490.57319	0.97949
3488.51628	0.97918
3486.45937	0.97919
3484.40246	0.97955
3482.34555	0.98010
3480.28865	0.98026
3478.23174	0.98006
3476.17483	0.97979
3474.11792	0.97965
3472.06101	0.97974
3470.00410	0.97985
3467.94720	0.97990
3465.89029	0.97972
3463.83338	0.97953
3461.77647	0.97980
3459.71956	0.98009
3457.66266	0.97998
3455.60575	0.97984
3453.54884	0.98010
3451.49193	0.98026
3449.43502	0.97981
3447.37811	0.97963
3445.32121	0.98035
3443.26430	0.98108
3441.20739	0.98144
3439.15048	0.98179
3437.09357	0.98186
3435.03667	0.98157
3432.97976	0.98130
3430.92285	0.98124
3428.86594	0.98140
3426.80903	0.98166
3424.75212	0.98183
3422.69522	0.98191
3420.63831	0.98214
3418.58140	0.98259
3416.52449	0.98267
3414.46758	0.98264
3412.41068	0.98289
3410.35377	0.98279
3408.29686	0.98272
3406.23995	0.98302
3404.18304	0.98332
3402.12613	0.98337
3400.06923	0.98325
3398.01232	0.98325
3395.95541	0.98332
3393.89850	0.98353
3391.84159	0.98373
3389.78469	0.98345
3387.72778	0.98277
3385.67087	0.98256
3383.61396	0.98294
3381.55705	0.98306
3379.50014	0.98291
3377.44324	0.98277
3375.38633	0.98261
3373.32942	0.98266
3371.27251	0.98310
3369.21560	0.98356
3367.15870	0.98386
3365.10179	0.98420
3363.04488	0.98426
3360.98797	0.98412
3358.93106	0.98430
3356.87415	0.98455
3354.81725	0.98454
3352.76034	0.98471
3350.70343	0.98502
3348.64652	0.98488
3346.58961	0.98489
3344.53271	0.98542
3342.47580	0.98562
3340.41889	0.98520
3338.36198	0.98482
3336.30507	0.98517
3334.24816	0.98563
3332.19126	0.98525
3330.13435	0.98462
3328.07744	0.98446
3326.02053	0.98445
3323.96362	0.98434
3321.90672	0.98458
3319.84981	0.98517
3317.79290	0.98538
3315.73599	0.98496
3313.67908	0.98469
3311.62217	0.98523
3309.56527	0.98598
3307.50836	0.98591
3305.45145	0.98548
3303.39454	0.98572
3301.33763	0.98633
3299.28073	0.98635
3297.22382	0.98561
3295.16691	0.98493
3293.11000	0.98473
3291.05309	0.98462
3288.99618	0.98463
3286.93928	0.98500
3284.88237	0.98536
3282.82546	0.98551
3280.76855	0.98553
3278.71164	0.98554
3276.65474	0.98583
3274.59783	0.98639
3272.54092	0.98669
3270.48401	0.98670
3268.42710	0.98671
3266.37019	0.98658
3264.31329	0.98631
3262.25638	0.98636
3260.19947	0.98668
3258.14256	0.98656
3256.08565	0.98606
3254.02875	0.98571
3251.97184	0.98574
3249.91493	0.98629
3247.85802	0.98674
3245.80111	0.98640
3243.74420	0.98553
3241.68730	0.98509
3239.63039	0.98544
3237.57348	0.98582
3235.51657	0.98592
3233.45966	0.98589
3231.40276	0.98568
3229.34585	0.98576
3227.28894	0.98633
3225.23203	0.98653
3223.17512	0.98606
3221.11821	0.98583
3219.06131	0.98616
3217.00440	0.98615
3214.94749	0.98573
3212.89058	0.98570
3210.83367	0.98592
3208.77677	0.98625
3206.71986	0.98681
3204.66295	0.98708
3202.60604	0.98720
3200.54913	0.98738
3198.49222	0.98716
3196.43532	0.98667
3194.37841	0.98622
3192.32150	0.98559
3190.26459	0.98518
3188.20768	0.98568
3186.15078	0.98646
3184.09387	0.98658
3182.03696	0.98617
3179.98005	0.98604
3177.92314	0.98644
3175.86623	0.98658
3173.80933	0.98611
3171.75242	0.98570
3169.69551	0.98585
3167.63860	0.98632
3165.58169	0.98678
3163.52479	0.98700
3161.46788	0.98696
3159.41097	0.98681
3157.35406	0.98646
3155.29715	0.98630
3153.24024	0.98645
3151.18334	0.98639
3149.12643	0.98645
3147.06952	0.98695
3145.01261	0.98715
3142.95570	0.98684
3140.89880	0.98675
3138.84189	0.98724
3136.78498	0.98755
3134.72807	0.98738
3132.67116	0.98742
3130.61425	0.98754
3128.55735	0.98724
3126.50044	0.98674
3124.44353	0.98664
3122.38662	0.98682
3120.32971	0.98674
3118.27281	0.98655
3116.21590	0.98648
3114.15899	0.98659
3112.10208	0.98675
3110.04517	0.98668
3107.98826	0.98673
3105.93136	0.98728
3103.87445	0.98769
3101.81754	0.98745
3099.76063	0.98706
3097.70372	0.98693
3095.64682	0.98696
3093.58991	0.98682
3091.53300	0.98639
3089.47609	0.98606
3087.41918	0.98630
3085.36227	0.98688
3083.30537	0.98723
3081.24846	0.98729
3079.19155	0.98717
3077.13464	0.98716
3075.07773	0.98725
3073.02083	0.98692
3070.96392	0.98637
3068.90701	0.98618
3066.85010	0.98618
3064.79319	0.98607
3062.73628	0.98600
3060.67938	0.98624
3058.62247	0.98643
3056.56556	0.98622
3054.50865	0.98610
3052.45174	0.98629
3050.39484	0.98646
3048.33793	0.98644
3046.28102	0.98629
3044.22411	0.98621
3042.16720	0.98631
3040.11029	0.98631
3038.05339	0.98595
3035.99648	0.98569
3033.93957	0.98599
3031.88266	0.98643
3029.82575	0.98626
3027.76885	0.98568
3025.71194	0.98540
3023.65503	0.98543
3021.59812	0.98556
3019.54121	0.98561
3017.48430	0.98551
3015.42740	0.98542
3013.37049	0.98541
3011.31358	0.98557
3009.25667	0.98564
3007.19976	0.98547
3005.14286	0.98552
3003.08595	0.98571
3001.02904	0.98548
2998.97213	0.98512
2996.91522	0.98510
2994.85831	0.98511
2992.80141	0.98493
2990.74450	0.98464
2988.68759	0.98429
2986.63068	0.98409
2984.57377	0.98401
2982.51687	0.98391
2980.45996	0.98390
2978.40305	0.98390
2976.34614	0.98370
2974.28923	0.98369
2972.23232	0.98416
2970.17542	0.98434
2968.11851	0.98348
2966.06160	0.98210
2964.00469	0.98110
2961.94778	0.98079
2959.89088	0.98093
2957.83397	0.98086
2955.77706	0.98041
2953.72015	0.98003
2951.66324	0.97990
2949.60633	0.98009
2947.54943	0.98048
2945.49252	0.98069
2943.43561	0.98058
2941.37870	0.98043
2939.32179	0.98055
2937.26489	0.98103
2935.20798	0.98164
2933.15107	0.98177
2931.09416	0.98149
2929.03725	0.98147
2926.98034	0.98156
2924.92344	0.98125
2922.86653	0.98098
2920.80962	0.98129
2918.75271	0.98181
2916.69580	0.98204
2914.63890	0.98214
2912.58199	0.98229
2910.52508	0.98200
2908.46817	0.98140
2906.41126	0.98131
2904.35435	0.98157
2902.29745	0.98156
2900.24054	0.98137
2898.18363	0.98129
2896.12672	0.98131
2894.06981	0.98124
2892.01291	0.98090
2889.95600	0.98061
2887.89909	0.98089
2885.84218	0.98150
2883.78527	0.98178
2881.72836	0.98166
2879.67146	0.98151
2877.61455	0.98159
2875.55764	0.98196
2873.50073	0.98222
2871.44382	0.98210
2869.38692	0.98198
2867.33001	0.98222
2865.27310	0.98242
2863.21619	0.98226
2861.15928	0.98239
2859.10237	0.98299
2857.04547	0.98357
2854.98856	0.98399
2852.93165	0.98423
2850.87474	0.98411
2848.81783	0.98389
2846.76093	0.98409
2844.70402	0.98443
2842.64711	0.98455
2840.59020	0.98469
2838.53329	0.98481
2836.47638	0.98487
2834.41948	0.98499
2832.36257	0.98501
2830.30566	0.98504
2828.24875	0.98515
2826.19184	0.98507
2824.13494	0.98497
2822.07803	0.98520
2820.02112	0.98545
2817.96421	0.98537
2815.90730	0.98512
2813.85039	0.98504
2811.79349	0.98517
2809.73658	0.98536
2807.67967	0.98566
2805.62276	0.98595
2803.56585	0.98597
2801.50895	0.98575
2799.45204	0.98563
2797.39513	0.98567
2795.33822	0.98551
2793.28131	0.98528
2791.22440	0.98542
2789.16750	0.98584
2787.11059	0.98611
2785.05368	0.98619
2782.99677	0.98619
2780.93986	0.98608
2778.88296	0.98597
2776.82605	0.98592
2774.76914	0.98608
2772.71223	0.98637
2770.65532	0.98638
2768.59841	0.98604
2766.54151	0.98579
2764.48460	0.98570
2762.42769	0.98564
2760.37078	0.98586
2758.31387	0.98606
2756.25697	0.98593
2754.20006	0.98584
2752.14315	0.98588
2750.08624	0.98590
2748.02933	0.98600
2745.97242	0.98617
2743.91552	0.98636
2741.85861	0.98647
2739.80170	0.98636
2737.74479	0.98604
2735.68788	0.98590
2733.63098	0.98599
2731.57407	0.98572
2729.51716	0.98535
2727.46025	0.98543
2725.40334	0.98565
2723.34643	0.98587
2721.28953	0.98610
2719.23262	0.98605
2717.17571	0.98588
2715.11880	0.98589
2713.06189	0.98575
2711.00499	0.98546
2708.94808	0.98557
2706.89117	0.98607
2704.83426	0.98657
2702.77735	0.98688
2700.72044	0.98679
2698.66354	0.98647
2696.60663	0.98635
2694.54972	0.98652
2692.49281	0.98666
2690.43590	0.98662
2688.37900	0.98651
2686.32209	0.98650
2684.26518	0.98659
2682.20827	0.98666
2680.15136	0.98678
2678.09445	0.98672
2676.03755	0.98632
2673.98064	0.98607
2671.92373	0.98599
2669.86682	0.98582
2667.80991	0.98577
2665.75301	0.98586
2663.69610	0.98578
2661.63919	0.98563
2659.58228	0.98564
2657.52537	0.98573
2655.46846	0.98584
2653.41156	0.98604
2651.35465	0.98607
2649.29774	0.98580
2647.24083	0.98561
2645.18392	0.98575
2643.12702	0.98586
2641.07011	0.98584
2639.01320	0.98589
2636.95629	0.98569
2634.89938	0.98529
2632.84247	0.98524
2630.78557	0.98565
2628.72866	0.98628
2626.67175	0.98683
2624.61484	0.98722
2622.55793	0.98724
2620.50103	0.98688
2618.44412	0.98685
2616.38721	0.98729
2614.33030	0.98726
2612.27339	0.98644
2610.21648	0.98578
2608.15958	0.98571
2606.10267	0.98606
2604.04576	0.98690
2601.98885	0.98764
2599.93194	0.98772
2597.87504	0.98750
2595.81813	0.98748
2593.76122	0.98758
2591.70431	0.98749
2589.64740	0.98705
2587.59049	0.98640
2585.53359	0.98609
2583.47668	0.98618
2581.41977	0.98627
2579.36286	0.98640
2577.30595	0.98654
2575.24905	0.98640
2573.19214	0.98605
2571.13523	0.98616
2569.07832	0.98679
2567.02141	0.98710
2564.96450	0.98668
2562.90760	0.98646
2560.85069	0.98744
2558.79378	0.98858
2556.73687	0.98853
2554.67996	0.98773
2552.62306	0.98693
2550.56615	0.98662
2548.50924	0.98690
2546.45233	0.98684
2544.39542	0.98645
2542.33851	0.98659
2540.28161	0.98692
2538.22470	0.98684
2536.16779	0.98634
2534.11088	0.98568
2532.05397	0.98517
2529.99707	0.98506
2527.94016	0.98570
2525.88325	0.98667
2523.82634	0.98703
2521.76943	0.98670
2519.71252	0.98629
2517.65562	0.98649
2515.59871	0.98729
2513.54180	0.98784
2511.48489	0.98770
2509.42798	0.98757
2507.37108	0.98791
2505.31417	0.98796
2503.25726	0.98735
2501.20035	0.98713
2499.14344	0.98728
2497.08653	0.98691
2495.02963	0.98672
2492.97272	0.98711
2490.91581	0.98720
2488.85890	0.98690
2486.80199	0.98685
2484.74509	0.98708
2482.68818	0.98758
2480.63127	0.98793
2478.57436	0.98733
2476.51745	0.98663
2474.46054	0.98672
2472.40364	0.98686
2470.34673	0.98706
2468.28982	0.98755
2466.23291	0.98787
2464.17600	0.98779
2462.11910	0.98777
2460.06219	0.98811
2458.00528	0.98824
2455.94837	0.98779
2453.89146	0.98710
2451.83455	0.98676
2449.77765	0.98710
2447.72074	0.98769
2445.66383	0.98796
2443.60692	0.98768
2441.55001	0.98710
2439.49311	0.98678
2437.43620	0.98695
2435.37929	0.98761
2433.32238	0.98807
2431.26547	0.98774
2429.20856	0.98736
2427.15166	0.98758
2425.09475	0.98827
2423.03784	0.98864
2420.98093	0.98831
2418.92402	0.98786
2416.86712	0.98769
2414.81021	0.98761
2412.75330	0.98738
2410.69639	0.98734
2408.63948	0.98767
2406.58257	0.98820
2404.52567	0.98846
2402.46876	0.98813
2400.41185	0.98786
2398.35494	0.98791
2396.29803	0.98788
2394.24113	0.98784
2392.18422	0.98786
2390.12731	0.98773
2388.07040	0.98762
2386.01349	0.98756
2383.95658	0.98745
2381.89968	0.98750
2379.84277	0.98784
2377.78586	0.98822
2375.72895	0.98837
2373.67204	0.98822
2371.61514	0.98808
2369.55823	0.98848
2367.50132	0.98915
2365.44441	0.98980
2363.38750	0.98982
2361.33059	0.98926
2359.27369	0.98966
2357.21678	0.98989
2355.15987	0.98872
2353.10296	0.98785
2351.04605	0.98810
2348.98915	0.98861
2346.93224	0.98895
2344.87533	0.98894
2342.81842	0.98825
2340.76151	0.98704
2338.70460	0.98606
2336.64770	0.98594
2334.59079	0.98667
2332.53388	0.98746
2330.47697	0.98770
2328.42006	0.98723
2326.36316	0.98585
2324.30625	0.98479
2322.24934	0.98520
2320.19243	0.98598
2318.13552	0.98642
2316.07861	0.98680
2314.02171	0.98708
2311.96480	0.98677
2309.90789	0.98637
2307.85098	0.98702
2305.79407	0.98773
2303.73717	0.98766
2301.68026	0.98751
2299.62335	0.98718
2297.56644	0.98654
2295.50953	0.98615
2293.45262	0.98581
2291.39572	0.98536
2289.33881	0.98536
2287.28190	0.98613
2285.22499	0.98709
2283.16808	0.98693
2281.11117	0.98598
2279.05427	0.98586
2276.99736	0.98588
2274.94045	0.98574
2272.88354	0.98647
2270.82663	0.98732
2268.76973	0.98709
2266.71282	0.98587
2264.65591	0.98542
2262.59900	0.98636
2260.54209	0.98669
2258.48518	0.98563
2256.42828	0.98479
2254.37137	0.98557
2252.31446	0.98707
2250.25755	0.98729
2248.20064	0.98648
2246.14374	0.98715
2244.08683	0.98868
2242.02992	0.98749
2239.97301	0.98493
2237.91610	0.98505
2235.85919	0.98748
2233.80229	0.98985
2231.74538	0.99014
2229.68847	0.98824
2227.63156	0.98691
2225.57465	0.98674
2223.51775	0.98643
2221.46084	0.98692
2219.40393	0.98875
2217.34702	0.99017
2215.29011	0.98979
2213.23320	0.98862
2211.17630	0.98843
2209.11939	0.98802
2207.06248	0.98625
2205.00557	0.98555
2202.94866	0.98667
2200.89176	0.98762
2198.83485	0.98798
2196.77794	0.98858
2194.72103	0.98882
2192.66412	0.98800
2190.60721	0.98741
2188.55031	0.98725
2186.49340	0.98614
2184.43649	0.98511
2182.37958	0.98520
2180.32267	0.98552
2178.26577	0.98640
2176.20886	0.98787
2174.15195	0.98839
2172.09504	0.98859
2170.03813	0.98911
2167.98122	0.98883
2165.92432	0.98820
2163.86741	0.98793
2161.81050	0.98826
2159.75359	0.98922
2157.69668	0.99036
2155.63978	0.99102
2153.58287	0.99058
2151.52596	0.99093
2149.46905	0.99294
2147.41214	0.99421
2145.35523	0.99304
2143.29833	0.99096
2141.24142	0.98995
2139.18451	0.98917
2137.12760	0.98881
2135.07069	0.98920
2133.01379	0.98888
2130.95688	0.98881
2128.89997	0.98996
2126.84306	0.99028
2124.78615	0.98905
2122.72924	0.98784
2120.67234	0.98780
2118.61543	0.98836
2116.55852	0.98748
2114.50161	0.98640
2112.44470	0.98787
2110.38780	0.98958
2108.33089	0.98931
2106.27398	0.98831
2104.21707	0.98740
2102.16016	0.98703
2100.10325	0.98729
2098.04635	0.98756
2095.98944	0.98798
2093.93253	0.98854
2091.87562	0.98845
2089.81871	0.98800
2087.76181	0.98781
2085.70490	0.98763
2083.64799	0.98776
2081.59108	0.98828
2079.53417	0.98910
2077.47726	0.99019
2075.42036	0.98990
2073.36345	0.98826
2071.30654	0.98746
2069.24963	0.98758
2067.19272	0.98778
2065.13582	0.98766
2063.07891	0.98791
2061.02200	0.98930
2058.96509	0.99001
2056.90818	0.98917
2054.85127	0.98909
2052.79437	0.98988
2050.73746	0.98965
2048.68055	0.98945
2046.62364	0.99017
2044.56673	0.99021
2042.50983	0.99013
2040.45292	0.99052
2038.39601	0.98921
2036.33910	0.98654
2034.28219	0.98574
2032.22528	0.98681
2030.16838	0.98793
2028.11147	0.98943
2026.05456	0.99148
2023.99765	0.99308
2021.94074	0.99312
2019.88384	0.99132
2017.82693	0.98832
2015.77002	0.98692
2013.71311	0.98824
2011.65620	0.98950
2009.59929	0.99025
2007.54239	0.99107
2005.48548	0.99118
2003.42857	0.99026
2001.37166	0.98945
1999.31475	0.98966
1997.25785	0.98933
1995.20094	0.98799
1993.14403	0.98678
1991.08712	0.98627
1989.03021	0.98662
1986.97330	0.98740
1984.91640	0.98843
1982.85949	0.98881
1980.80258	0.98841
1978.74567	0.98910
1976.68876	0.99036
1974.63186	0.99081
1972.57495	0.99079
1970.51804	0.99013
1968.46113	0.98993
1966.40422	0.99044
1964.34731	0.98982
1962.29041	0.98865
1960.23350	0.98847
1958.17659	0.98937
1956.11968	0.99069
1954.06277	0.99131
1952.00587	0.99143
1949.94896	0.99233
1947.89205	0.99289
1945.83514	0.99178
1943.77823	0.99066
1941.72132	0.99077
1939.66442	0.99163
1937.60751	0.99212
1935.55060	0.99123
1933.49369	0.98966
1931.43678	0.98890
1929.37988	0.98960
1927.32297	0.99050
1925.26606	0.99057
1923.20915	0.99010
1921.15224	0.98976
1919.09533	0.99028
1917.03843	0.99056
1914.98152	0.99007
1912.92461	0.98948
1910.86770	0.98889
1908.81079	0.98878
1906.75389	0.98908
1904.69698	0.98930
1902.64007	0.98955
1900.58316	0.98974
1898.52625	0.98978
1896.46934	0.99032
1894.41244	0.99134
1892.35553	0.99160
1890.29862	0.99082
1888.24171	0.99039
1886.18480	0.99098
1884.12790	0.99139
1882.07099	0.99116
1880.01408	0.99080
1877.95717	0.99060
1875.90026	0.99077
1873.84335	0.99120
1871.78645	0.99130
1869.72954	0.99085
1867.67263	0.99037
1865.61572	0.99033
1863.55881	0.99068
1861.50191	0.99125
1859.44500	0.99141
1857.38809	0.99088
1855.33118	0.99045
1853.27427	0.99077
1851.21736	0.99109
1849.16046	0.99080
1847.10355	0.99056
1845.04664	0.99082
1842.98973	0.99102
1840.93282	0.99105
1838.87592	0.99096
1836.81901	0.99035
1834.76210	0.98989
1832.70519	0.99029
1830.64828	0.99078
1828.59137	0.99067
1826.53447	0.99057
1824.47756	0.99053
1822.42065	0.99039
1820.36374	0.99010
1818.30683	0.98980
1816.24993	0.98998
1814.19302	0.99019
1812.13611	0.99004
1810.07920	0.98987
1808.02229	0.99006
1805.96538	0.99016
1803.90848	0.98994
1801.85157	0.98988
1799.79466	0.98985
1797.73775	0.98959
1795.68084	0.98906
1793.62394	0.98812
1791.56703	0.98741
1789.51012	0.98738
1787.45321	0.98723
1785.39630	0.98687
1783.33939	0.98641
1781.28249	0.98555
1779.22558	0.98400
1777.16867	0.98205
1775.11176	0.98009
1773.05485	0.97743
1770.99795	0.97328
1768.94104	0.96841
1766.88413	0.96275
1764.82722	0.95628
1762.77031	0.94832
1760.71340	0.93923
1758.65650	0.93170
1756.59959	0.92471
1754.54268	0.91810
1752.48577	0.91245
1750.42886	0.90650
1748.37196	0.90037
1746.31505	0.89527
1744.25814	0.89136
1742.20123	0.88839
1740.14432	0.88594
1738.08741	0.88436
1736.03051	0.88382
1733.97360	0.88370
1731.91669	0.88474
1729.85978	0.88721
1727.80287	0.89062
1725.74597	0.89461
1723.68906	0.89913
1721.63215	0.90396
1719.57524	0.90923
1717.51833	0.91571
1715.46142	0.92237
1713.40452	0.92784
1711.34761	0.93248
1709.29070	0.93681
1707.23379	0.94136
1705.17688	0.94619
1703.11998	0.95015
1701.06307	0.95350
1699.00616	0.95639
1696.94925	0.95827
1694.89234	0.96037
1692.83543	0.96263
1690.77853	0.96443
1688.72162	0.96564
1686.66471	0.96629
1684.60780	0.96705
1682.55089	0.96845
1680.49399	0.96974
1678.43708	0.97063
1676.38017	0.97125
1674.32326	0.97165
1672.26635	0.97212
1670.20944	0.97266
1668.15254	0.97306
1666.09563	0.97342
1664.03872	0.97385
1661.98181	0.97417
1659.92490	0.97402
1657.86800	0.97378
1655.81109	0.97388
1653.75418	0.97430
1651.69727	0.97456
1649.64036	0.97455
1647.58345	0.97445
1645.52655	0.97438
1643.46964	0.97459
1641.41273	0.97498
1639.35582	0.97547
1637.29891	0.97593
1635.24201	0.97607
1633.18510	0.97598
1631.12819	0.97601
1629.07128	0.97606
1627.01437	0.97610
1624.95746	0.97633
1622.90056	0.97687
1620.84365	0.97758
1618.78674	0.97808
1616.72983	0.97837
1614.67292	0.97858
1612.61602	0.97877
1610.55911	0.97896
1608.50220	0.97930
1606.44529	0.97974
1604.38838	0.98004
1602.33147	0.98021
1600.27457	0.98033
1598.21766	0.98061
1596.16075	0.98105
1594.10384	0.98124
1592.04693	0.98123
1589.99003	0.98124
1587.93312	0.98128
1585.87621	0.98143
1583.81930	0.98156
1581.76239	0.98156
1579.70548	0.98163
1577.64858	0.98170
1575.59167	0.98161
1573.53476	0.98161
1571.47785	0.98186
1569.42094	0.98224
1567.36404	0.98257
1565.30713	0.98278
1563.25022	0.98274
1561.19331	0.98264
1559.13640	0.98278
1557.07949	0.98276
1555.02259	0.98253
1552.96568	0.98240
1550.90877	0.98251
1548.85186	0.98291
1546.79495	0.98321
1544.73805	0.98319
1542.68114	0.98299
1540.62423	0.98296
1538.56732	0.98298
1536.51041	0.98296
1534.45350	0.98318
1532.39660	0.98346
1530.33969	0.98357
1528.28278	0.98382
1526.22587	0.98430
1524.16896	0.98472
1522.11206	0.98496
1520.05515	0.98491
1517.99824	0.98471
1515.94133	0.98448
1513.88442	0.98430
1511.82751	0.98443
1509.77061	0.98469
1507.71370	0.98474
1505.65679	0.98466
1503.59988	0.98473
1501.54297	0.98479
1499.48607	0.98466
1497.42916	0.98447
1495.37225	0.98433
1493.31534	0.98423
1491.25843	0.98433
1489.20152	0.98448
1487.14462	0.98429
1485.08771	0.98404
1483.03080	0.98390
1480.97389	0.98399
1478.91698	0.98424
1476.86008	0.98412
1474.80317	0.98358
1472.74626	0.98274
1470.68935	0.98179
1468.63244	0.98122
1466.57553	0.98062
1464.51863	0.97942
1462.46172	0.97825
1460.40481	0.97767
1458.34790	0.97705
1456.29099	0.97563
1454.23409	0.97460
1452.17718	0.97430
1450.12027	0.97384
1448.06336	0.97268
1446.00645	0.97118
1443.94954	0.96996
1441.89264	0.96890
1439.83573	0.96813
1437.77882	0.96763
1435.72191	0.96680
1433.66500	0.96590
1431.60810	0.96530
1429.55119	0.96523
1427.49428	0.96596
1425.43737	0.96701
1423.38046	0.96809
1421.32355	0.96923
1419.26665	0.97018
1417.20974	0.97054
1415.15283	0.97094
1413.09592	0.97179
1411.03901	0.97265
1408.98211	0.97299
1406.92520	0.97309
1404.86829	0.97331
1402.81138	0.97344
1400.75447	0.97332
1398.69756	0.97291
1396.64066	0.97202
1394.58375	0.97034
1392.52684	0.96808
1390.46993	0.96563
1388.41302	0.96251
1386.35612	0.95844
1384.29921	0.95417
1382.24230	0.95009
1380.18539	0.94594
1378.12848	0.94153
1376.07157	0.93697
1374.01467	0.93238
1371.95776	0.92845
1369.90085	0.92554
1367.84394	0.92358
1365.78703	0.92306
1363.73013	0.92495
1361.67322	0.93023
1359.61631	0.93773
1357.55940	0.94542
1355.50249	0.95234
1353.44558	0.95814
1351.38868	0.96257
1349.33177	0.96575
1347.27486	0.96813
1345.21795	0.96980
1343.16104	0.97061
1341.10414	0.97097
1339.04723	0.97140
1336.99032	0.97190
1334.93341	0.97226
1332.87650	0.97253
1330.81959	0.97290
1328.76269	0.97319
1326.70578	0.97309
1324.64887	0.97285
1322.59196	0.97268
1320.53505	0.97266
1318.47815	0.97296
1316.42124	0.97332
1314.36433	0.97345
1312.30742	0.97354
1310.25051	0.97381
1308.19360	0.97425
1306.13670	0.97441
1304.07979	0.97413
1302.02288	0.97404
1299.96597	0.97437
1297.90906	0.97441
1295.85216	0.97361
1293.79525	0.97245
1291.73834	0.97142
1289.68143	0.97052
1287.62452	0.96968
1285.56761	0.96843
1283.51071	0.96669
1281.45380	0.96506
1279.39689	0.96334
1277.33998	0.96110
1275.28307	0.95869
1273.22617	0.95618
1271.16926	0.95324
1269.11235	0.95000
1267.05544	0.94669
1264.99853	0.94315
1262.94162	0.93921
1260.88472	0.93478
1258.82781	0.92992
1256.77090	0.92490
1254.71399	0.91976
1252.65708	0.91426
1250.60018	0.90845
1248.54327	0.90254
1246.48636	0.89665
1244.42945	0.89060
1242.37254	0.88440
1240.31563	0.87844
1238.25873	0.87277
1236.20182	0.86718
1234.14491	0.86188
1232.08800	0.85701
1230.03109	0.85251
1227.97419	0.84869
1225.91728	0.84588
1223.86037	0.84388
1221.80346	0.84224
1219.74655	0.84082
1217.68964	0.83973
1215.63274	0.83939
1213.57583	0.84028
1211.51892	0.84235
1209.46201	0.84540
1207.40510	0.84984
1205.34820	0.85612
1203.29129	0.86404
1201.23438	0.87320
1199.17747	0.88307
1197.12056	0.89280
1195.06365	0.90177
1193.00675	0.90991
1190.94984	0.91669
1188.89293	0.92159
1186.83602	0.92516
1184.77911	0.92792
1182.72221	0.92982
1180.66530	0.93095
1178.60839	0.93124
1176.55148	0.93064
1174.49457	0.92952
1172.43766	0.92834
1170.38076	0.92725
1168.32385	0.92635
1166.26694	0.92593
1164.21003	0.92602
1162.15312	0.92640
1160.09622	0.92713
1158.03931	0.92811
1155.98240	0.92918
1153.92549	0.93083
1151.86858	0.93318
1149.81167	0.93531
1147.75477	0.93656
1145.69786	0.93722
1143.64095	0.93778
1141.58404	0.93812
1139.52713	0.93792
1137.47023	0.93728
1135.41332	0.93636
1133.35641	0.93503
1131.29950	0.93341
1129.24259	0.93187
1127.18568	0.93064
1125.12878	0.92982
1123.07187	0.92901
1121.01496	0.92825
1118.95805	0.92797
1116.90114	0.92805
1114.84424	0.92825
1112.78733	0.92861
1110.73042	0.92891
1108.67351	0.92851
1106.61660	0.92748
1104.55969	0.92671
1102.50279	0.92628
1100.44588	0.92528
1098.38897	0.92338
1096.33206	0.92110
1094.27515	0.91896
1092.21825	0.91674
1090.16134	0.91403
1088.10443	0.91103
1086.04752	0.90799
1083.99061	0.90474
1081.93370	0.90115
1079.87680	0.89760
1077.81989	0.89447
1075.76298	0.89155
1073.70607	0.88863
1071.64916	0.88576
1069.59226	0.88268
1067.53535	0.87928
1065.47844	0.87617
1063.42153	0.87362
1061.36462	0.87091
1059.30771	0.86746
1057.25081	0.86364
1055.19390	0.85998
1053.13699	0.85602
1051.08008	0.85159
1049.02317	0.84752
1046.96627	0.84429
1044.90936	0.84141
1042.85245	0.83842
1040.79554	0.83522
1038.73863	0.83171
1036.68172	0.82844
1034.62482	0.82589
1032.56791	0.82374
1030.51100	0.82230
1028.45409	0.82229
1026.39718	0.82358
1024.34028	0.82556
1022.28337	0.82788
1020.22646	0.83046
1018.16955	0.83349
1016.11264	0.83689
1014.05573	0.84036
1011.99883	0.84424
1009.94192	0.84860
1007.88501	0.85275
1005.82810	0.85677
1003.77119	0.86080
1001.71429	0.86412
999.65738	0.86681
997.60047	0.86956
995.54356	0.87256
993.48665	0.87552
991.42974	0.87813
989.37284	0.88026
987.31593	0.88189
985.25902	0.88342
983.20211	0.88517
981.14520	0.88713
979.08830	0.88913
977.03139	0.89122
974.97448	0.89387
972.91757	0.89705
970.86066	0.90014
968.80375	0.90270
966.74685	0.90483
964.68994	0.90702
962.63303	0.90934
960.57612	0.91118
958.51921	0.91226
956.46231	0.91301
954.40540	0.91393
952.34849	0.91515
950.29158	0.91654
948.23467	0.91781
946.17776	0.91883
944.12086	0.92002
942.06395	0.92152
940.00704	0.92295
937.95013	0.92412
935.89322	0.92488
933.83632	0.92520
931.77941	0.92544
929.72250	0.92598
927.66559	0.92636
925.60868	0.92576
923.55177	0.92439
921.49487	0.92341
919.43796	0.92311
917.38105	0.92240
915.32414	0.92119
913.26723	0.92063
911.21033	0.92065
909.15342	0.92002
907.09651	0.91847
905.03960	0.91676
902.98269	0.91527
900.92578	0.91424
898.86888	0.91390
896.81197	0.91421
894.75506	0.91508
892.69815	0.91641
890.64124	0.91779
888.58434	0.91896
886.52743	0.91980
884.47052	0.92082
882.41361	0.92249
880.35670	0.92385
878.29979	0.92444
876.24289	0.92509
874.18598	0.92629
872.12907	0.92812
870.07216	0.93032
868.01525	0.93192
865.95835	0.93297
863.90144	0.93480
861.84453	0.93723
859.78762	0.93897
857.73071	0.93980
855.67380	0.94029
853.61690	0.94070
851.55999	0.94103
849.50308	0.94129
847.44617	0.94123
845.38926	0.94066
843.33236	0.94007
841.27545	0.94000
839.21854	0.94038
837.16163	0.94048
835.10472	0.93991
833.04781	0.94006
830.99091	0.94170
828.93400	0.94349
826.87709	0.94470
824.82018	0.94574
822.76327	0.94660
820.70637	0.94723
818.64946	0.94798
816.59255	0.94888
814.53564	0.94941
812.47873	0.94933
810.42182	0.94904
808.36492	0.94924
806.30801	0.95006
804.25110	0.95053
802.19419	0.95042
800.13728	0.95068
798.08038	0.95156
796.02347	0.95236
793.96656	0.95273
791.90965	0.95327
789.85274	0.95422
787.79583	0.95463
785.73893	0.95422
783.68202	0.95381
781.62511	0.95356
779.56820	0.95350
777.51129	0.95382
775.45439	0.95423
773.39748	0.95482
771.34057	0.95570
769.28366	0.95626
767.22675	0.95630
765.16984	0.95612
763.11294	0.95578
761.05603	0.95559
758.99912	0.95579
756.94221	0.95623
754.88530	0.95677
752.82839	0.95713
750.77149	0.95704
748.71458	0.95674
746.65767	0.95690
744.60076	0.95742
742.54385	0.95752
740.48695	0.95744
738.43004	0.95753
736.37313	0.95784
734.31622	0.95814
732.25931	0.95786
730.20240	0.95729
728.14550	0.95677
726.08859	0.95612
724.03168	0.95539
721.97477	0.95506
719.91786	0.95559
717.86096	0.95614
715.80405	0.95541
713.74714	0.95391
711.69023	0.95315
709.63332	0.95363
707.57641	0.95448
705.51951	0.95437
703.46260	0.95307
701.40569	0.95201
699.34878	0.95209
697.29187	0.95258
695.23497	0.95264
693.17806	0.95245
691.12115	0.95185
689.06424	0.95095
687.00733	0.95086
684.95042	0.95102
682.89352	0.95032
680.83661	0.94956
678.77970	0.94934
676.72279	0.94937
674.66588	0.94965
672.60898	0.95020
670.55207	0.95133
668.49516	0.95229
666.43825	0.95182
664.38134	0.95146
662.32443	0.95137
660.26753	0.95140
658.21062	0.95145
656.15371	0.95073
654.09680	0.94926
652.03989	0.94775
649.98299	0.94682
647.92608	0.94627
645.86917	0.94532
643.81226	0.94443
641.75535	0.94428
639.69844	0.94415
637.64154	0.94314
635.58463	0.94129
633.52772	0.93971
631.47081	0.93919
629.41390	0.93901
627.35700	0.93854
625.30009	0.93796
623.24318	0.93690
621.18627	0.93578
619.12936	0.93511
617.07245	0.93434
615.01555	0.93374
612.95864	0.93247
610.90173	0.92913
608.84482	0.92435
606.78791	0.91979
604.73101	0.91626
602.67410	0.91358
600.61719	0.91211
598.56028	0.91230
596.50337	0.91367
594.44646	0.91580
592.38956	0.91858
590.33265	0.92127
588.27574	0.92370
586.21883	0.92707
584.16192	0.93051
582.10502	0.93140
580.04811	0.93068
577.99120	0.93047
575.93429	0.93072
573.87738	0.93174
571.82047	0.93279
569.76357	0.93209
567.70666	0.93140
565.64975	0.93225
563.59284	0.93212
561.53593	0.93033
559.47903	0.92881
557.42212	0.92794
555.36521	0.92745
553.30830	0.92817
551.25139	0.92991
549.19448	0.93146
547.13758	0.93268
545.08067	0.93305
543.02376	0.93240
540.96685	0.93241
538.90994	0.93342
536.85304	0.93391
534.79613	0.93401
532.73922	0.93427
530.68231	0.93451
528.62540	0.93436
526.56849	0.93357
524.51159	0.93345
522.45468	0.93432
520.39777	0.93457
518.34086	0.93349
516.28395	0.93182
514.22705	0.93083
512.17014	0.93089
510.11323	0.93118
508.05632	0.93084
505.99941	0.93080
503.94250	0.93092
501.88560	0.92897
499.82869	0.92642
497.77178	0.92606
495.71487	0.92707
493.65796	0.92683
491.60106	0.92500
489.54415	0.92376
487.48724	0.92372
485.43033	0.92398
483.37342	0.92295
481.31651	0.92184
479.25961	0.92201
477.20270	0.92131
475.14579	0.92018
473.08888	0.92093
471.03197	0.92255
468.97507	0.92280
466.91816	0.92143
464.86125	0.91976
462.80434	0.91887
460.74743	0.91708
458.69052	0.91407
456.63362	0.91238
454.57671	0.91210
452.51980	0.91281
450.46289	0.91422
448.40598	0.91460
446.34908	0.91285
444.29217	0.91008
442.23526	0.90860
440.17835	0.90866
438.12144	0.91052
436.06453	0.91368
434.00763	0.91418
431.95072	0.91212
429.89381	0.91199
427.83690	0.91455
425.77999	0.91679
423.72309	0.91820
421.66618	0.91969
419.60927	0.91856
417.55236	0.91818
415.49545	0.92056
413.43854	0.92145
411.38164	0.92261
409.32473	0.92338
407.26782	0.92158
405.21091	0.91871
403.15400	0.91639
401.09710	0.91525
399.04019	0.91320
