3996.57260	0.99294
3994.51569	0.99266
3992.45878	0.99279
3990.40188	0.99321
3988.34497	0.99318
3986.28806	0.99298
3984.23115	0.99306
3982.17424	0.99319
3980.11733	0.99314
3978.06043	0.99288
3976.00352	0.99220
3973.94661	0.99160
3971.88970	0.99199
3969.83279	0.99283
3967.77589	0.99330
3965.71898	0.99317
3963.66207	0.99245
3961.60516	0.99215
3959.54825	0.99267
3957.49134	0.99288
3955.43444	0.99280
3953.37753	0.99285
3951.32062	0.99247
3949.26371	0.99180
3947.20680	0.99178
3945.14990	0.99232
3943.09299	0.99228
3941.03608	0.99185
3938.97917	0.99231
3936.92226	0.99286
3934.86535	0.99246
3932.80845	0.99219
3930.75154	0.99300
3928.69463	0.99360
3926.63772	0.99347
3924.58081	0.99316
3922.52391	0.99275
3920.46700	0.99285
3918.41009	0.99339
3916.35318	0.99331
3914.29627	0.99309
3912.23936	0.99323
3910.18246	0.99302
3908.12555	0.99271
3906.06864	0.99285
3904.01173	0.99307
3901.95482	0.99323
3899.89792	0.99328
3897.84101	0.99298
3895.78410	0.99265
3893.72719	0.99254
3891.67028	0.99294
3889.61337	0.99330
3887.55647	0.99288
3885.49956	0.99248
3883.44265	0.99275
3881.38574	0.99315
3879.32883	0.99317
3877.27193	0.99288
3875.21502	0.99241
3873.15811	0.99177
3871.10120	0.99152
3869.04429	0.99185
3866.98738	0.99213
3864.93048	0.99203
3862.87357	0.99192
3860.81666	0.99239
3858.75975	0.99319
3856.70284	0.99407
3854.64594	0.99529
3852.58903	0.99549
3850.53212	0.99403
3848.47521	0.99310
3846.41830	0.99283
3844.36139	0.99280
3842.30449	0.99294
3840.24758	0.99248
3838.19067	0.99152
3836.13376	0.99165
3834.07685	0.99262
3832.01995	0.99342
3829.96304	0.99347
3827.90613	0.99321
3825.84922	0.99339
3823.79231	0.99333
3821.73540	0.99286
3819.67850	0.99313
3817.62159	0.99363
3815.56468	0.99338
3813.50777	0.99296
3811.45086	0.99317
3809.39396	0.99361
3807.33705	0.99356
3805.28014	0.99343
3803.22323	0.99399
3801.16632	0.99400
3799.10941	0.99299
3797.05251	0.99270
3794.99560	0.99309
3792.93869	0.99343
3790.88178	0.99356
3788.82487	0.99318
3786.76796	0.99255
3784.71106	0.99224
3782.65415	0.99234
3780.59724	0.99248
3778.54033	0.99259
3776.48342	0.99287
3774.42652	0.99308
3772.36961	0.99293
3770.31270	0.99284
3768.25579	0.99282
3766.19888	0.99251
3764.14197	0.99265
3762.08507	0.99322
3760.02816	0.99333
3757.97125	0.99342
3755.91434	0.99387
3753.85743	0.99398
3751.80053	0.99361
3749.74362	0.99289
3747.68671	0.99273
3745.62980	0.99348
3743.57289	0.99373
3741.51598	0.99307
3739.45908	0.99284
3737.40217	0.99329
3735.34526	0.99369
3733.28835	0.99320
3731.23144	0.99248
3729.17454	0.99248
3727.11763	0.99266
3725.06072	0.99241
3723.00381	0.99260
3720.94690	0.99323
3718.88999	0.99328
3716.83309	0.99339
3714.77618	0.99384
3712.71927	0.99367
3710.66236	0.99297
3708.60545	0.99245
3706.54855	0.99217
3704.49164	0.99263
3702.43473	0.99339
3700.37782	0.99314
3698.32091	0.99275
3696.26400	0.99310
3694.20710	0.99316
3692.15019	0.99279
3690.09328	0.99318
3688.03637	0.99424
3685.97946	0.99451
3683.92256	0.99429
3681.86565	0.99400
3679.80874	0.99333
3677.75183	0.99236
3675.69492	0.99117
3673.63801	0.99110
3671.58111	0.99265
3669.52420	0.99369
3667.46729	0.99348
3665.41038	0.99332
3663.35347	0.99319
3661.29657	0.99300
3659.23966	0.99232
3657.18275	0.99128
3655.12584	0.99078
3653.06893	0.99057
3651.01202	0.99050
3648.95512	0.99082
3646.89821	0.99155
3644.84130	0.99218
3642.78439	0.99202
3640.72748	0.99115
3638.67058	0.99021
3636.61367	0.98971
3634.55676	0.98961
3632.49985	0.98958
3630.44294	0.98904
3628.38603	0.98817
3626.32913	0.98856
3624.27222	0.98922
3622.21531	0.98927
3620.15840	0.98936
3618.10149	0.98952
3616.04459	0.98908
3613.98768	0.98862
3611.93077	0.98878
3609.87386	0.98853
3607.81695	0.98754
3605.76004	0.98728
3603.70314	0.98768
3601.64623	0.98792
3599.58932	0.98796
3597.53241	0.98782
3595.47550	0.98768
3593.41860	0.98752
3591.36169	0.98697
3589.30478	0.98622
3587.24787	0.98605
3585.19096	0.98631
3583.13405	0.98628
3581.07715	0.98616
3579.02024	0.98581
3576.96333	0.98527
3574.90642	0.98470
3572.84951	0.98365
3570.79261	0.98252
3568.73570	0.98224
3566.67879	0.98253
3564.62188	0.98280
3562.56497	0.98311
3560.50806	0.98296
3558.45116	0.98222
3556.39425	0.98141
3554.33734	0.98095
3552.28043	0.98093
3550.22352	0.98069
3548.16662	0.98038
3546.10971	0.98083
3544.05280	0.98105
3541.99589	0.98006
3539.93898	0.97903
3537.88207	0.97867
3535.82517	0.97824
3533.76826	0.97708
3531.71135	0.97591
3529.65444	0.97560
3527.59753	0.97578
3525.54063	0.97595
3523.48372	0.97580
3521.42681	0.97486
3519.36990	0.97393
3517.31299	0.97422
3515.25608	0.97472
3513.19918	0.97398
3511.14227	0.97282
3509.08536	0.97240
3507.02845	0.97250
3504.97154	0.97272
3502.91464	0.97257
3500.85773	0.97176
3498.80082	0.97095
3496.74391	0.97054
3494.68700	0.97053
3492.63009	0.97092
3490.57319	0.97101
3488.51628	0.97052
3486.45937	0.97008
3484.40246	0.96971
3482.34555	0.96932
3480.28865	0.96914
3478.23174	0.96906
3476.17483	0.96896
3474.11792	0.96892
3472.06101	0.96926
3470.00410	0.96950
3467.94720	0.96899
3465.89029	0.96859
3463.83338	0.96899
3461.77647	0.96947
3459.71956	0.96936
3457.66266	0.96874
3455.60575	0.96823
3453.54884	0.96827
3451.49193	0.96862
3449.43502	0.96893
3447.37811	0.96885
3445.32121	0.96843
3443.26430	0.96828
3441.20739	0.96875
3439.15048	0.96897
3437.09357	0.96868
3435.03667	0.96889
3432.97976	0.96938
3430.92285	0.96956
3428.86594	0.96964
3426.80903	0.96966
3424.75212	0.96951
3422.69522	0.96950
3420.63831	0.96968
3418.58140	0.96994
3416.52449	0.97052
3414.46758	0.97108
3412.41068	0.97127
3410.35377	0.97122
3408.29686	0.97082
3406.23995	0.97035
3404.18304	0.97063
3402.12613	0.97119
3400.06923	0.97128
3398.01232	0.97143
3395.95541	0.97179
3393.89850	0.97192
3391.84159	0.97189
3389.78469	0.97224
3387.72778	0.97310
3385.67087	0.97371
3383.61396	0.97366
3381.55705	0.97331
3379.50014	0.97300
3377.44324	0.97296
3375.38633	0.97316
3373.32942	0.97306
3371.27251	0.97272
3369.21560	0.97295
3367.15870	0.97378
3365.10179	0.97419
3363.04488	0.97406
3360.98797	0.97421
3358.93106	0.97456
3356.87415	0.97446
3354.81725	0.97431
3352.76034	0.97459
3350.70343	0.97486
3348.64652	0.97501
3346.58961	0.97531
3344.53271	0.97569
3342.47580	0.97611
3340.41889	0.97661
3338.36198	0.97703
3336.30507	0.97697
3334.24816	0.97648
3332.19126	0.97647
3330.13435	0.97701
3328.07744	0.97734
3326.02053	0.97727
3323.96362	0.97706
3321.90672	0.97715
3319.84981	0.97786
3317.79290	0.97861
3315.73599	0.97866
3313.67908	0.97841
3311.62217	0.97822
3309.56527	0.97808
3307.50836	0.97815
3305.45145	0.97801
3303.39454	0.97758
3301.33763	0.97773
3299.28073	0.97861
3297.22382	0.97925
3295.16691	0.97953
3293.11000	0.98000
3291.05309	0.98042
3288.99618	0.98040
3286.93928	0.98015
3284.88237	0.98002
3282.82546	0.98042
3280.76855	0.98111
3278.71164	0.98124
3276.65474	0.98075
3274.59783	0.98045
3272.54092	0.98101
3270.48401	0.98198
3268.42710	0.98265
3266.37019	0.98260
3264.31329	0.98208
3262.25638	0.98203
3260.19947	0.98216
3258.14256	0.98187
3256.08565	0.98180
3254.02875	0.98244
3251.97184	0.98322
3249.91493	0.98331
3247.85802	0.98290
3245.80111	0.98275
3243.74420	0.98295
3241.68730	0.98316
3239.63039	0.98349
3237.57348	0.98407
3235.51657	0.98446
3233.45966	0.98410
3231.40276	0.98337
3229.34585	0.98309
3227.28894	0.98351
3225.23203	0.98419
3223.17512	0.98476
3221.11821	0.98521
3219.06131	0.98532
3217.00440	0.98489
3214.94749	0.98439
3212.89058	0.98435
3210.83367	0.98491
3208.77677	0.98579
3206.71986	0.98630
3204.66295	0.98622
3202.60604	0.98596
3200.54913	0.98585
3198.49222	0.98609
3196.43532	0.98623
3194.37841	0.98595
3192.32150	0.98587
3190.26459	0.98615
3188.20768	0.98662
3186.15078	0.98716
3184.09387	0.98725
3182.03696	0.98691
3179.98005	0.98677
3177.92314	0.98713
3175.86623	0.98754
3173.80933	0.98779
3171.75242	0.98788
3169.69551	0.98758
3167.63860	0.98721
3165.58169	0.98699
3163.52479	0.98697
3161.46788	0.98747
3159.41097	0.98820
3157.35406	0.98843
3155.29715	0.98794
3153.24024	0.98762
3151.18334	0.98780
3149.12643	0.98780
3147.06952	0.98760
3145.01261	0.98775
3142.95570	0.98836
3140.89880	0.98873
3138.84189	0.98869
3136.78498	0.98868
3134.72807	0.98838
3132.67116	0.98823
3130.61425	0.98885
3128.55735	0.98935
3126.50044	0.98929
3124.44353	0.98928
3122.38662	0.98926
3120.32971	0.98907
3118.27281	0.98887
3116.21590	0.98851
3114.15899	0.98828
3112.10208	0.98873
3110.04517	0.98933
3107.98826	0.98954
3105.93136	0.98951
3103.87445	0.98930
3101.81754	0.98915
3099.76063	0.98929
3097.70372	0.98954
3095.64682	0.98973
3093.58991	0.98961
3091.53300	0.98916
3089.47609	0.98918
3087.41918	0.98990
3085.36227	0.99036
3083.30537	0.99023
3081.24846	0.99005
3079.19155	0.98992
3077.13464	0.98992
3075.07773	0.98989
3073.02083	0.98936
3070.96392	0.98884
3068.90701	0.98891
3066.85010	0.98942
3064.79319	0.98999
3062.73628	0.99023
3060.67938	0.99024
3058.62247	0.99002
3056.56556	0.98962
3054.50865	0.98949
3052.45174	0.98953
3050.39484	0.98946
3048.33793	0.98955
3046.28102	0.98970
3044.22411	0.98967
3042.16720	0.98997
3040.11029	0.99038
3038.05339	0.99023
3035.99648	0.98985
3033.93957	0.98980
3031.88266	0.98990
3029.82575	0.98971
3027.76885	0.98934
3025.71194	0.98931
3023.65503	0.98984
3021.59812	0.99038
3019.54121	0.99029
3017.48430	0.98993
3015.42740	0.99001
3013.37049	0.99030
3011.31358	0.99026
3009.25667	0.99005
3007.19976	0.98989
3005.14286	0.98989
3003.08595	0.98992
3001.02904	0.98986
2998.97213	0.98983
2996.91522	0.98977
2994.85831	0.98945
2992.80141	0.98886
2990.74450	0.98844
2988.68759	0.98852
2986.63068	0.98862
2984.57377	0.98838
2982.51687	0.98808
2980.45996	0.98801
2978.40305	0.98825
2976.34614	0.98840
2974.28923	0.98804
2972.23232	0.98746
2970.17542	0.98709
2968.11851	0.98684
2966.06160	0.98667
2964.00469	0.98685
2961.94778	0.98699
2959.89088	0.98654
2957.83397	0.98591
2955.77706	0.98554
2953.72015	0.98523
2951.66324	0.98485
2949.60633	0.98444
2947.54943	0.98410
2945.49252	0.98391
2943.43561	0.98380
2941.37870	0.98366
2939.32179	0.98364
2937.26489	0.98366
2935.20798	0.98350
2933.15107	0.98343
2931.09416	0.98355
2929.03725	0.98360
2926.98034	0.98374
2924.92344	0.98403
2922.86653	0.98406
2920.80962	0.98383
2918.75271	0.98374
2916.69580	0.98386
2914.63890	0.98392
2912.58199	0.98362
2910.52508	0.98301
2908.46817	0.98270
2906.41126	0.98300
2904.35435	0.98325
2902.29745	0.98303
2900.24054	0.98256
2898.18363	0.98219
2896.12672	0.98226
2894.06981	0.98260
2892.01291	0.98262
2889.95600	0.98239
2887.89909	0.98233
2885.84218	0.98239
2883.78527	0.98232
2881.72836	0.98215
2879.67146	0.98225
2877.61455	0.98240
2875.55764	0.98230
2873.50073	0.98231
2871.44382	0.98291
2869.38692	0.98389
2867.33001	0.98445
2865.27310	0.98469
2863.21619	0.98525
2861.15928	0.98590
2859.10237	0.98620
2857.04547	0.98609
2854.98856	0.98590
2852.93165	0.98612
2850.87474	0.98682
2848.81783	0.98731
2846.76093	0.98731
2844.70402	0.98746
2842.64711	0.98791
2840.59020	0.98834
2838.53329	0.98863
2836.47638	0.98878
2834.41948	0.98888
2832.36257	0.98901
2830.30566	0.98898
2828.24875	0.98903
2826.19184	0.98940
2824.13494	0.98955
2822.07803	0.98956
2820.02112	0.98962
2817.96421	0.98948
2815.90730	0.98948
2813.85039	0.98983
2811.79349	0.99018
2809.73658	0.99021
2807.67967	0.98988
2805.62276	0.98962
2803.56585	0.98966
2801.50895	0.98974
2799.45204	0.98966
2797.39513	0.98972
2795.33822	0.99014
2793.28131	0.99057
2791.22440	0.99056
2789.16750	0.99027
2787.11059	0.99024
2785.05368	0.99058
2782.99677	0.99083
2780.93986	0.99070
2778.88296	0.99027
2776.82605	0.99001
2774.76914	0.99022
2772.71223	0.99055
2770.65532	0.99073
2768.59841	0.99083
2766.54151	0.99083
2764.48460	0.99072
2762.42769	0.99061
2760.37078	0.99033
2758.31387	0.98996
2756.25697	0.99010
2754.20006	0.99080
2752.14315	0.99121
2750.08624	0.99108
2748.02933	0.99078
2745.97242	0.99063
2743.91552	0.99090
2741.85861	0.99129
2739.80170	0.99126
2737.74479	0.99106
2735.68788	0.99094
2733.63098	0.99082
2731.57407	0.99080
2729.51716	0.99074
2727.46025	0.99062
2725.40334	0.99061
2723.34643	0.99048
2721.28953	0.99052
2719.23262	0.99096
2717.17571	0.99124
2715.11880	0.99107
2713.06189	0.99090
2711.00499	0.99105
2708.94808	0.99110
2706.89117	0.99095
2704.83426	0.99107
2702.77735	0.99134
2700.72044	0.99147
2698.66354	0.99142
2696.60663	0.99121
2694.54972	0.99092
2692.49281	0.99080
2690.43590	0.99083
2688.37900	0.99072
2686.32209	0.99075
2684.26518	0.99104
2682.20827	0.99113
2680.15136	0.99097
2678.09445	0.99091
2676.03755	0.99097
2673.98064	0.99100
2671.92373	0.99103
2669.86682	0.99112
2667.80991	0.99136
2665.75301	0.99154
2663.69610	0.99129
2661.63919	0.99090
2659.58228	0.99078
2657.52537	0.99071
2655.46846	0.99086
2653.41156	0.99145
2651.35465	0.99154
2649.29774	0.99100
2647.24083	0.99100
2645.18392	0.99143
2643.12702	0.99167
2641.07011	0.99171
2639.01320	0.99150
2636.95629	0.99120
2634.89938	0.99093
2632.84247	0.99087
2630.78557	0.99101
2628.72866	0.99125
2626.67175	0.99155
2624.61484	0.99175
2622.55793	0.99162
2620.50103	0.99113
2618.44412	0.99088
2616.38721	0.99114
2614.33030	0.99140
2612.27339	0.99141
2610.21648	0.99151
2608.15958	0.99190
2606.10267	0.99243
2604.04576	0.99288
2601.98885	0.99268
2599.93194	0.99217
2597.87504	0.99207
2595.81813	0.99206
2593.76122	0.99203
2591.70431	0.99229
2589.64740	0.99241
2587.59049	0.99222
2585.53359	0.99235
2583.47668	0.99278
2581.41977	0.99296
2579.36286	0.99270
2577.30595	0.99234
2575.24905	0.99239
2573.19214	0.99284
2571.13523	0.99322
2569.07832	0.99305
2567.02141	0.99244
2564.96450	0.99194
2562.90760	0.99203
2560.85069	0.99262
2558.79378	0.99313
2556.73687	0.99351
2554.67996	0.99391
2552.62306	0.99398
2550.56615	0.99357
2548.50924	0.99306
2546.45233	0.99309
2544.39542	0.99388
2542.33851	0.99432
2540.28161	0.99371
2538.22470	0.99277
2536.16779	0.99230
2534.11088	0.99265
2532.05397	0.99315
2529.99707	0.99302
2527.94016	0.99262
2525.88325	0.99232
2523.82634	0.99218
2521.76943	0.99226
2519.71252	0.99254
2517.65562	0.99275
2515.59871	0.99275
2513.54180	0.99270
2511.48489	0.99263
2509.42798	0.99272
2507.37108	0.99322
2505.31417	0.99360
2503.25726	0.99328
2501.20035	0.99272
2499.14344	0.99293
2497.08653	0.99345
2495.02963	0.99300
2492.97272	0.99233
2490.91581	0.99283
2488.85890	0.99356
2486.80199	0.99337
2484.74509	0.99290
2482.68818	0.99267
2480.63127	0.99270
2478.57436	0.99297
2476.51745	0.99314
2474.46054	0.99318
2472.40364	0.99329
2470.34673	0.99309
2468.28982	0.99272
2466.23291	0.99292
2464.17600	0.99333
2462.11910	0.99335
2460.06219	0.99345
2458.00528	0.99382
2455.94837	0.99386
2453.89146	0.99351
2451.83455	0.99331
2449.77765	0.99344
2447.72074	0.99351
2445.66383	0.99356
2443.60692	0.99395
2441.55001	0.99431
2439.49311	0.99435
2437.43620	0.99410
2435.37929	0.99366
2433.32238	0.99346
2431.26547	0.99390
2429.20856	0.99433
2427.15166	0.99380
2425.09475	0.99276
2423.03784	0.99204
2420.98093	0.99177
2418.92402	0.99183
2416.86712	0.99225
2414.81021	0.99293
2412.75330	0.99320
2410.69639	0.99305
2408.63948	0.99336
2406.58257	0.99391
2404.52567	0.99417
2402.46876	0.99444
2400.41185	0.99442
2398.35494	0.99420
2396.29803	0.99443
2394.24113	0.99467
2392.18422	0.99411
2390.12731	0.99297
2388.07040	0.99243
2386.01349	0.99289
2383.95658	0.99359
2381.89968	0.99382
2379.84277	0.99350
2377.78586	0.99324
2375.72895	0.99376
2373.67204	0.99450
2371.61514	0.99455
2369.55823	0.99411
2367.50132	0.99342
2365.44441	0.99318
2363.38750	0.99395
2361.33059	0.99514
2359.27369	0.99556
2357.21678	0.99448
2355.15987	0.99303
2353.10296	0.99260
2351.04605	0.99251
2348.98915	0.99228
2346.93224	0.99224
2344.87533	0.99218
2342.81842	0.99243
2340.76151	0.99351
2338.70460	0.99401
2336.64770	0.99334
2334.59079	0.99315
2332.53388	0.99371
2330.47697	0.99408
2328.42006	0.99378
2326.36316	0.99266
2324.30625	0.99142
2322.24934	0.99116
2320.19243	0.99228
2318.13552	0.99404
2316.07861	0.99516
2314.02171	0.99473
2311.96480	0.99326
2309.90789	0.99255
2307.85098	0.99305
2305.79407	0.99315
2303.73717	0.99259
2301.68026	0.99243
2299.62335	0.99243
2297.56644	0.99215
2295.50953	0.99213
2293.45262	0.99251
2291.39572	0.99262
2289.33881	0.99239
2287.28190	0.99247
2285.22499	0.99265
2283.16808	0.99236
2281.11117	0.99203
2279.05427	0.99179
2276.99736	0.99148
2274.94045	0.99171
2272.88354	0.99247
2270.82663	0.99285
2268.76973	0.99284
2266.71282	0.99338
2264.65591	0.99402
2262.59900	0.99391
2260.54209	0.99392
2258.48518	0.99468
2256.42828	0.99504
2254.37137	0.99393
2252.31446	0.99253
2250.25755	0.99224
2248.20064	0.99338
2246.14374	0.99427
2244.08683	0.99319
2242.02992	0.99230
2239.97301	0.99298
2237.91610	0.99380
2235.85919	0.99400
2233.80229	0.99362
2231.74538	0.99369
2229.68847	0.99431
2227.63156	0.99352
2225.57465	0.99180
2223.51775	0.99223
2221.46084	0.99449
2219.40393	0.99550
2217.34702	0.99524
2215.29011	0.99492
2213.23320	0.99434
2211.17630	0.99399
2209.11939	0.99465
2207.06248	0.99575
2205.00557	0.99562
2202.94866	0.99441
2200.89176	0.99337
2198.83485	0.99289
2196.77794	0.99417
2194.72103	0.99622
2192.66412	0.99582
2190.60721	0.99348
2188.55031	0.99170
2186.49340	0.99156
2184.43649	0.99243
2182.37958	0.99277
2180.32267	0.99290
2178.26577	0.99365
2176.20886	0.99464
2174.15195	0.99547
2172.09504	0.99599
2170.03813	0.99587
2167.98122	0.99423
2165.92432	0.99163
2163.86741	0.98997
2161.81050	0.98989
2159.75359	0.99152
2157.69668	0.99404
2155.63978	0.99598
2153.58287	0.99678
2151.52596	0.99599
2149.46905	0.99495
2147.41214	0.99468
2145.35523	0.99495
2143.29833	0.99611
2141.24142	0.99627
2139.18451	0.99455
2137.12760	0.99366
2135.07069	0.99473
2133.01379	0.99611
2130.95688	0.99608
2128.89997	0.99481
2126.84306	0.99345
2124.78615	0.99270
2122.72924	0.99302
2120.67234	0.99379
2118.61543	0.99418
2116.55852	0.99417
2114.50161	0.99406
2112.44470	0.99362
2110.38780	0.99255
2108.33089	0.99182
2106.27398	0.99241
2104.21707	0.99326
2102.16016	0.99322
2100.10325	0.99294
2098.04635	0.99330
2095.98944	0.99407
2093.93253	0.99466
2091.87562	0.99455
2089.81871	0.99359
2087.76181	0.99296
2085.70490	0.99369
2083.64799	0.99475
2081.59108	0.99497
2079.53417	0.99456
2077.47726	0.99395
2075.42036	0.99360
2073.36345	0.99396
2071.30654	0.99405
2069.24963	0.99345
2067.19272	0.99312
2065.13582	0.99306
2063.07891	0.99281
2061.02200	0.99239
2058.96509	0.99232
2056.90818	0.99344
2054.85127	0.99508
2052.79437	0.99586
2050.73746	0.99575
2048.68055	0.99502
2046.62364	0.99348
2044.56673	0.99195
2042.50983	0.99130
2040.45292	0.99111
2038.39601	0.99197
2036.33910	0.99343
2034.28219	0.99434
2032.22528	0.99537
2030.16838	0.99617
2028.11147	0.99686
2026.05456	0.99803
2023.99765	0.99760
2021.94074	0.99539
2019.88384	0.99435
2017.82693	0.99545
2015.77002	0.99747
2013.71311	0.99870
2011.65620	0.99785
2009.59929	0.99612
2007.54239	0.99579
2005.48548	0.99629
2003.42857	0.99664
2001.37166	0.99678
1999.31475	0.99560
1997.25785	0.99394
1995.20094	0.99371
1993.14403	0.99467
1991.08712	0.99558
1989.03021	0.99585
1986.97330	0.99482
1984.91640	0.99258
1982.85949	0.99174
1980.80258	0.99319
1978.74567	0.99471
1976.68876	0.99572
1974.63186	0.99699
1972.57495	0.99761
1970.51804	0.99674
1968.46113	0.99489
1966.40422	0.99351
1964.34731	0.99391
1962.29041	0.99489
1960.23350	0.99559
1958.17659	0.99600
1956.11968	0.99599
1954.06277	0.99674
1952.00587	0.99773
1949.94896	0.99730
1947.89205	0.99592
1945.83514	0.99494
1943.77823	0.99462
1941.72132	0.99368
1939.66442	0.99230
1937.60751	0.99234
1935.55060	0.99379
1933.49369	0.99516
1931.43678	0.99580
1929.37988	0.99573
1927.32297	0.99515
1925.26606	0.99471
1923.20915	0.99442
1921.15224	0.99424
1919.09533	0.99468
1917.03843	0.99484
1914.98152	0.99428
1912.92461	0.99443
1910.86770	0.99554
1908.81079	0.99604
1906.75389	0.99498
1904.69698	0.99337
1902.64007	0.99279
1900.58316	0.99325
1898.52625	0.99389
1896.46934	0.99437
1894.41244	0.99470
1892.35553	0.99467
1890.29862	0.99458
1888.24171	0.99528
1886.18480	0.99607
1884.12790	0.99568
1882.07099	0.99476
1880.01408	0.99457
1877.95717	0.99470
1875.90026	0.99444
1873.84335	0.99434
1871.78645	0.99469
1869.72954	0.99495
1867.67263	0.99475
1865.61572	0.99421
1863.55881	0.99394
1861.50191	0.99419
1859.44500	0.99445
1857.38809	0.99439
1855.33118	0.99450
1853.27427	0.99515
1851.21736	0.99564
1849.16046	0.99558
1847.10355	0.99501
1845.04664	0.99421
1842.98973	0.99402
1840.93282	0.99410
1838.87592	0.99420
1836.81901	0.99438
1834.76210	0.99408
1832.70519	0.99344
1830.64828	0.99312
1828.59137	0.99313
1826.53447	0.99300
1824.47756	0.99265
1822.42065	0.99259
1820.36374	0.99308
1818.30683	0.99378
1816.24993	0.99413
1814.19302	0.99393
1812.13611	0.99396
1810.07920	0.99409
1808.02229	0.99385
1805.96538	0.99361
1803.90848	0.99314
1801.85157	0.99233
1799.79466	0.99211
1797.73775	0.99235
1795.68084	0.99222
1793.62394	0.99199
1791.56703	0.99191
1789.51012	0.99166
1787.45321	0.99122
1785.39630	0.99087
1783.33939	0.99040
1781.28249	0.98941
1779.22558	0.98814
1777.16867	0.98716
1775.11176	0.98617
1773.05485	0.98449
1770.99795	0.98192
1768.94104	0.97831
1766.88413	0.97379
1764.82722	0.96888
1762.77031	0.96284
1760.71340	0.95524
1758.65650	0.94781
1756.59959	0.94037
1754.54268	0.93319
1752.48577	0.92652
1750.42886	0.91995
1748.37196	0.91464
1746.31505	0.91051
1744.25814	0.90682
1742.20123	0.90387
1740.14432	0.90169
1738.08741	0.90024
1736.03051	0.89965
1733.97360	0.89985
1731.91669	0.90068
1729.85978	0.90212
1727.80287	0.90433
1725.74597	0.90700
1723.68906	0.91043
1721.63215	0.91449
1719.57524	0.91902
1717.51833	0.92505
1715.46142	0.93193
1713.40452	0.93785
1711.34761	0.94305
1709.29070	0.94801
1707.23379	0.95298
1705.17688	0.95774
1703.11998	0.96145
1701.06307	0.96498
1699.00616	0.96888
1696.94925	0.97199
1694.89234	0.97475
1692.83543	0.97665
1690.77853	0.97795
1688.72162	0.97909
1686.66471	0.97997
1684.60780	0.98068
1682.55089	0.98109
1680.49399	0.98144
1678.43708	0.98199
1676.38017	0.98242
1674.32326	0.98247
1672.26635	0.98254
1670.20944	0.98271
1668.15254	0.98287
1666.09563	0.98310
1664.03872	0.98315
1661.98181	0.98285
1659.92490	0.98248
1657.86800	0.98230
1655.81109	0.98210
1653.75418	0.98139
1651.69727	0.98041
1649.64036	0.97993
1647.58345	0.97963
1645.52655	0.97959
1643.46964	0.97994
1641.41273	0.98068
1639.35582	0.98144
1637.29891	0.98167
1635.24201	0.98196
1633.18510	0.98263
1631.12819	0.98307
1629.07128	0.98339
1627.01437	0.98358
1624.95746	0.98346
1622.90056	0.98343
1620.84365	0.98388
1618.78674	0.98443
1616.72983	0.98483
1614.67292	0.98526
1612.61602	0.98572
1610.55911	0.98595
1608.50220	0.98593
1606.44529	0.98616
1604.38838	0.98660
1602.33147	0.98675
1600.27457	0.98689
1598.21766	0.98717
1596.16075	0.98725
1594.10384	0.98731
1592.04693	0.98742
1589.99003	0.98750
1587.93312	0.98755
1585.87621	0.98764
1583.81930	0.98771
1581.76239	0.98759
1579.70548	0.98743
1577.64858	0.98753
1575.59167	0.98790
1573.53476	0.98811
1571.47785	0.98822
1569.42094	0.98831
1567.36404	0.98811
1565.30713	0.98783
1563.25022	0.98784
1561.19331	0.98797
1559.13640	0.98793
1557.07949	0.98807
1555.02259	0.98851
1552.96568	0.98899
1550.90877	0.98923
1548.85186	0.98921
1546.79495	0.98922
1544.73805	0.98927
1542.68114	0.98907
1540.62423	0.98869
1538.56732	0.98877
1536.51041	0.98901
1534.45350	0.98915
1532.39660	0.98938
1530.33969	0.98944
1528.28278	0.98940
1526.22587	0.98972
1524.16896	0.99012
1522.11206	0.99007
1520.05515	0.98979
1517.99824	0.98958
1515.94133	0.98927
1513.88442	0.98913
1511.82751	0.98935
1509.77061	0.98924
1507.71370	0.98828
1505.65679	0.98799
1503.59988	0.98883
1501.54297	0.98940
1499.48607	0.98952
1497.42916	0.98944
1495.37225	0.98931
1493.31534	0.98907
1491.25843	0.98872
1489.20152	0.98832
1487.14462	0.98806
1485.08771	0.98795
1483.03080	0.98789
1480.97389	0.98766
1478.91698	0.98720
1476.86008	0.98667
1474.80317	0.98612
1472.74626	0.98520
1470.68935	0.98383
1468.63244	0.98271
1466.57553	0.98183
1464.51863	0.98089
1462.46172	0.97994
1460.40481	0.97895
1458.34790	0.97771
1456.29099	0.97631
1454.23409	0.97537
1452.17718	0.97465
1450.12027	0.97375
1448.06336	0.97266
1446.00645	0.97176
1443.94954	0.97113
1441.89264	0.97033
1439.83573	0.96919
1437.77882	0.96792
1435.72191	0.96681
1433.66500	0.96649
1431.60810	0.96671
1429.55119	0.96680
1427.49428	0.96669
1425.43737	0.96666
1423.38046	0.96688
1421.32355	0.96736
1419.26665	0.96797
1417.20974	0.96837
1415.15283	0.96851
1413.09592	0.96864
1411.03901	0.96889
1408.98211	0.96915
1406.92520	0.96921
1404.86829	0.96916
1402.81138	0.96907
1400.75447	0.96877
1398.69756	0.96812
1396.64066	0.96700
1394.58375	0.96532
1392.52684	0.96330
1390.46993	0.96088
1388.41302	0.95759
1386.35612	0.95346
1384.29921	0.94915
1382.24230	0.94476
1380.18539	0.94027
1378.12848	0.93608
1376.07157	0.93240
1374.01467	0.92925
1371.95776	0.92724
1369.90085	0.92703
1367.84394	0.92855
1365.78703	0.93140
1363.73013	0.93591
1361.67322	0.94217
1359.61631	0.94828
1357.55940	0.95331
1355.50249	0.95749
1353.44558	0.96078
1351.38868	0.96318
1349.33177	0.96511
1347.27486	0.96674
1345.21795	0.96778
1343.16104	0.96825
1341.10414	0.96843
1339.04723	0.96859
1336.99032	0.96879
1334.93341	0.96883
1332.87650	0.96864
1330.81959	0.96820
1328.76269	0.96762
1326.70578	0.96708
1324.64887	0.96675
1322.59196	0.96663
1320.53505	0.96643
1318.47815	0.96613
1316.42124	0.96596
1314.36433	0.96593
1312.30742	0.96573
1310.25051	0.96536
1308.19360	0.96536
1306.13670	0.96572
1304.07979	0.96579
1302.02288	0.96556
1299.96597	0.96534
1297.90906	0.96502
1295.85216	0.96437
1293.79525	0.96323
1291.73834	0.96175
1289.68143	0.96019
1287.62452	0.95836
1285.56761	0.95617
1283.51071	0.95373
1281.45380	0.95083
1279.39689	0.94770
1277.33998	0.94472
1275.28307	0.94150
1273.22617	0.93762
1271.16926	0.93327
1269.11235	0.92873
1267.05544	0.92404
1264.99853	0.91916
1262.94162	0.91405
1260.88472	0.90869
1258.82781	0.90308
1256.77090	0.89727
1254.71399	0.89145
1252.65708	0.88586
1250.60018	0.88028
1248.54327	0.87456
1246.48636	0.86906
1244.42945	0.86381
1242.37254	0.85897
1240.31563	0.85481
1238.25873	0.85112
1236.20182	0.84778
1234.14491	0.84493
1232.08800	0.84302
1230.03109	0.84265
1227.97419	0.84406
1225.91728	0.84716
1223.86037	0.85184
1221.80346	0.85806
1219.74655	0.86601
1217.68964	0.87537
1215.63274	0.88499
1213.57583	0.89438
1211.51892	0.90366
1209.46201	0.91245
1207.40510	0.92047
1205.34820	0.92767
1203.29129	0.93384
1201.23438	0.93920
1199.17747	0.94417
1197.12056	0.94863
1195.06365	0.95239
1193.00675	0.95540
1190.94984	0.95759
1188.89293	0.95901
1186.83602	0.95968
1184.77911	0.95931
1182.72221	0.95811
1180.66530	0.95639
1178.60839	0.95407
1176.55148	0.95153
1174.49457	0.94905
1172.43766	0.94629
1170.38076	0.94298
1168.32385	0.93956
1166.26694	0.93670
1164.21003	0.93472
1162.15312	0.93344
1160.09622	0.93278
1158.03931	0.93297
1155.98240	0.93391
1153.92549	0.93533
1151.86858	0.93688
1149.81167	0.93835
1147.75477	0.93984
1145.69786	0.94103
1143.64095	0.94142
1141.58404	0.94103
1139.52713	0.93986
1137.47023	0.93786
1135.41332	0.93546
1133.35641	0.93303
1131.29950	0.93043
1129.24259	0.92757
1127.18568	0.92497
1125.12878	0.92301
1123.07187	0.92139
1121.01496	0.91972
1118.95805	0.91778
1116.90114	0.91586
1114.84424	0.91448
1112.78733	0.91342
1110.73042	0.91219
1108.67351	0.91059
1106.61660	0.90855
1104.55969	0.90650
1102.50279	0.90452
1100.44588	0.90201
1098.38897	0.89896
1096.33206	0.89600
1094.27515	0.89322
1092.21825	0.88996
1090.16134	0.88605
1088.10443	0.88200
1086.04752	0.87750
1083.99061	0.87214
1081.93370	0.86634
1079.87680	0.86066
1077.81989	0.85568
1075.76298	0.85141
1073.70607	0.84751
1071.64916	0.84392
1069.59226	0.84050
1067.53535	0.83714
1065.47844	0.83388
1063.42153	0.83087
1061.36462	0.82816
1059.30771	0.82540
1057.25081	0.82252
1055.19390	0.82016
1053.13699	0.81817
1051.08008	0.81580
1049.02317	0.81313
1046.96627	0.81075
1044.90936	0.80881
1042.85245	0.80686
1040.79554	0.80479
1038.73863	0.80305
1036.68172	0.80172
1034.62482	0.80088
1032.56791	0.80137
1030.51100	0.80364
1028.45409	0.80716
1026.39718	0.81197
1024.34028	0.81812
1022.28337	0.82470
1020.22646	0.83146
1018.16955	0.83891
1016.11264	0.84677
1014.05573	0.85428
1011.99883	0.86112
1009.94192	0.86729
1007.88501	0.87258
1005.82810	0.87695
1003.77119	0.88121
1001.71429	0.88563
999.65738	0.88952
997.60047	0.89294
995.54356	0.89634
993.48665	0.89980
991.42974	0.90335
989.37284	0.90714
987.31593	0.91088
985.25902	0.91399
983.20211	0.91671
981.14520	0.91962
979.08830	0.92276
977.03139	0.92613
974.97448	0.92942
972.91757	0.93235
970.86066	0.93528
968.80375	0.93818
966.74685	0.94059
964.68994	0.94280
962.63303	0.94520
960.57612	0.94743
958.51921	0.94911
956.46231	0.95033
954.40540	0.95134
952.34849	0.95236
950.29158	0.95340
948.23467	0.95421
946.17776	0.95478
944.12086	0.95525
942.06395	0.95573
940.00704	0.95643
937.95013	0.95701
935.89322	0.95686
933.83632	0.95662
931.77941	0.95691
929.72250	0.95713
927.66559	0.95708
925.60868	0.95679
923.55177	0.95629
921.49487	0.95581
919.43796	0.95513
917.38105	0.95417
915.32414	0.95330
913.26723	0.95254
911.21033	0.95176
909.15342	0.95108
907.09651	0.95042
905.03960	0.94979
902.98269	0.94976
900.92578	0.95046
898.86888	0.95131
896.81197	0.95198
894.75506	0.95268
892.69815	0.95376
890.64124	0.95511
888.58434	0.95617
886.52743	0.95735
884.47052	0.95942
882.41361	0.96164
880.35670	0.96333
878.29979	0.96511
876.24289	0.96713
874.18598	0.96869
872.12907	0.96961
870.07216	0.97026
868.01525	0.97129
865.95835	0.97278
863.90144	0.97412
861.84453	0.97485
859.78762	0.97488
857.73071	0.97485
855.67380	0.97477
853.61690	0.97392
851.55999	0.97326
849.50308	0.97375
847.44617	0.97432
845.38926	0.97443
843.33236	0.97444
841.27545	0.97427
839.21854	0.97431
837.16163	0.97499
835.10472	0.97578
833.04781	0.97605
830.99091	0.97600
828.93400	0.97625
826.87709	0.97682
824.82018	0.97730
822.76327	0.97762
820.70637	0.97757
818.64946	0.97740
816.59255	0.97812
814.53564	0.97894
812.47873	0.97849
810.42182	0.97786
808.36492	0.97816
806.30801	0.97849
804.25110	0.97846
802.19419	0.97882
800.13728	0.97922
798.08038	0.97943
796.02347	0.97962
793.96656	0.97929
791.90965	0.97864
789.85274	0.97810
787.79583	0.97759
785.73893	0.97773
783.68202	0.97852
781.62511	0.97864
779.56820	0.97782
777.51129	0.97716
775.45439	0.97704
773.39748	0.97735
771.34057	0.97817
769.28366	0.97866
767.22675	0.97822
765.16984	0.97771
763.11294	0.97742
761.05603	0.97706
758.99912	0.97701
756.94221	0.97749
754.88530	0.97783
752.82839	0.97758
750.77149	0.97703
748.71458	0.97670
746.65767	0.97674
744.60076	0.97654
742.54385	0.97569
740.48695	0.97497
738.43004	0.97526
736.37313	0.97538
734.31622	0.97426
732.25931	0.97356
730.20240	0.97380
728.14550	0.97378
726.08859	0.97342
724.03168	0.97269
721.97477	0.97175
719.91786	0.97136
717.86096	0.97129
715.80405	0.97043
713.74714	0.96887
711.69023	0.96811
709.63332	0.96808
707.57641	0.96755
705.51951	0.96704
703.46260	0.96706
701.40569	0.96699
699.34878	0.96665
697.29187	0.96579
695.23497	0.96429
693.17806	0.96303
691.12115	0.96198
689.06424	0.96067
687.00733	0.96015
684.95042	0.96018
682.89352	0.95961
680.83661	0.95901
678.77970	0.95859
676.72279	0.95729
674.66588	0.95572
672.60898	0.95552
670.55207	0.95655
668.49516	0.95760
666.43825	0.95766
664.38134	0.95700
662.32443	0.95544
660.26753	0.95362
658.21062	0.95309
656.15371	0.95281
654.09680	0.95151
652.03989	0.95016
649.98299	0.94934
647.92608	0.94938
645.86917	0.94978
643.81226	0.94893
641.75535	0.94685
639.69844	0.94491
637.64154	0.94398
635.58463	0.94289
633.52772	0.94126
631.47081	0.94049
629.41390	0.94040
627.35700	0.94011
625.30009	0.93893
623.24318	0.93685
621.18627	0.93496
619.12936	0.93401
617.07245	0.93341
615.01555	0.93213
612.95864	0.93042
610.90173	0.92903
608.84482	0.92732
606.78791	0.92415
604.73101	0.92117
602.67410	0.92096
600.61719	0.92299
598.56028	0.92560
596.50337	0.92808
594.44646	0.93053
592.38956	0.93291
590.33265	0.93442
588.27574	0.93493
586.21883	0.93505
584.16192	0.93522
582.10502	0.93574
580.04811	0.93618
577.99120	0.93559
575.93429	0.93419
573.87738	0.93324
571.82047	0.93279
569.76357	0.93239
567.70666	0.93235
565.64975	0.93251
563.59284	0.93233
561.53593	0.93156
559.47903	0.93124
557.42212	0.93167
555.36521	0.93162
553.30830	0.93195
551.25139	0.93338
549.19448	0.93420
547.13758	0.93416
545.08067	0.93496
543.02376	0.93582
540.96685	0.93540
538.90994	0.93467
536.85304	0.93387
534.79613	0.93247
532.73922	0.93159
530.68231	0.93239
528.62540	0.93344
526.56849	0.93310
524.51159	0.93152
522.45468	0.92974
520.39777	0.92934
518.34086	0.93043
516.28395	0.93114
514.22705	0.93118
512.17014	0.93152
510.11323	0.93055
508.05632	0.92716
505.99941	0.92467
503.94250	0.92502
501.88560	0.92555
499.82869	0.92560
497.77178	0.92622
495.71487	0.92619
493.65796	0.92555
491.60106	0.92441
489.54415	0.92313
487.48724	0.92421
485.43033	0.92591
483.37342	0.92521
481.31651	0.92401
479.25961	0.92406
477.20270	0.92522
475.14579	0.92548
473.08888	0.92452
471.03197	0.92461
468.97507	0.92388
466.91816	0.92244
464.86125	0.92252
462.80434	0.92216
460.74743	0.92120
458.69052	0.92051
456.63362	0.91944
454.57671	0.92024
452.51980	0.92188
450.46289	0.92103
448.40598	0.92062
446.34908	0.92269
444.29217	0.92374
442.23526	0.92327
440.17835	0.92272
438.12144	0.92247
436.06453	0.92289
434.00763	0.92340
431.95072	0.92585
429.89381	0.92900
427.83690	0.92876
425.77999	0.92799
423.72309	0.92813
421.66618	0.92634
419.60927	0.92563
417.55236	0.92661
415.49545	0.92464
413.43854	0.92305
411.38164	0.92336
409.32473	0.92205
407.26782	0.92206
405.21091	0.92709
403.15400	0.93108
401.09710	0.93354
399.04019	0.94035
