3996.57260	0.98261
3994.51569	0.98269
3992.45878	0.98263
3990.40188	0.98248
3988.34497	0.98250
3986.28806	0.98244
3984.23115	0.98251
3982.17424	0.98304
3980.11733	0.98307
3978.06043	0.98230
3976.00352	0.98179
3973.94661	0.98197
3971.88970	0.98246
3969.83279	0.98275
3967.77589	0.98280
3965.71898	0.98288
3963.66207	0.98298
3961.60516	0.98307
3959.54825	0.98312
3957.49134	0.98309
3955.43444	0.98327
3953.37753	0.98354
3951.32062	0.98351
3949.26371	0.98334
3947.20680	0.98299
3945.14990	0.98260
3943.09299	0.98252
3941.03608	0.98255
3938.97917	0.98266
3936.92226	0.98301
3934.86535	0.98352
3932.80845	0.98345
3930.75154	0.98262
3928.69463	0.98246
3926.63772	0.98303
3924.58081	0.98285
3922.52391	0.98192
3920.46700	0.98157
3918.41009	0.98178
3916.35318	0.98191
3914.29627	0.98200
3912.23936	0.98239
3910.18246	0.98317
3908.12555	0.98371
3906.06864	0.98332
3904.01173	0.98246
3901.95482	0.98214
3899.89792	0.98238
3897.84101	0.98253
3895.78410	0.98234
3893.72719	0.98194
3891.67028	0.98132
3889.61337	0.98141
3887.55647	0.98259
3885.49956	0.98330
3883.44265	0.98314
3881.38574	0.98333
3879.32883	0.98383
3877.27193	0.98412
3875.21502	0.98377
3873.15811	0.98297
3871.10120	0.98268
3869.04429	0.98271
3866.98738	0.98263
3864.93048	0.98286
3862.87357	0.98346
3860.81666	0.98373
3858.75975	0.98359
3856.70284	0.98350
3854.64594	0.98336
3852.58903	0.98333
3850.53212	0.98376
3848.47521	0.98412
3846.41830	0.98432
3844.36139	0.98424
3842.30449	0.98380
3840.24758	0.98343
3838.19067	0.98346
3836.13376	0.98406
3834.07685	0.98480
3832.01995	0.98473
3829.96304	0.98419
3827.90613	0.98416
3825.84922	0.98420
3823.79231	0.98394
3821.73540	0.98344
3819.67850	0.98266
3817.62159	0.98224
3815.56468	0.98207
3813.50777	0.98200
3811.45086	0.98218
3809.39396	0.98258
3807.33705	0.98315
3805.28014	0.98346
3803.22323	0.98336
3801.16632	0.98342
3799.10941	0.98361
3797.05251	0.98356
3794.99560	0.98372
3792.93869	0.98382
3790.88178	0.98318
3788.82487	0.98259
3786.76796	0.98285
3784.71106	0.98322
3782.65415	0.98350
3780.59724	0.98405
3778.54033	0.98382
3776.48342	0.98272
3774.42652	0.98240
3772.36961	0.98287
3770.31270	0.98297
3768.25579	0.98288
3766.19888	0.98287
3764.14197	0.98255
3762.08507	0.98241
3760.02816	0.98292
3757.97125	0.98361
3755.91434	0.98351
3753.85743	0.98278
3751.80053	0.98266
3749.74362	0.98366
3747.68671	0.98418
3745.62980	0.98418
3743.57289	0.98404
3741.51598	0.98363
3739.45908	0.98296
3737.40217	0.98204
3735.34526	0.98169
3733.28835	0.98254
3731.23144	0.98353
3729.17454	0.98387
3727.11763	0.98352
3725.06072	0.98278
3723.00381	0.98282
3720.94690	0.98344
3718.88999	0.98326
3716.83309	0.98281
3714.77618	0.98279
3712.71927	0.98306
3710.66236	0.98371
3708.60545	0.98403
3706.54855	0.98336
3704.49164	0.98247
3702.43473	0.98244
3700.37782	0.98326
3698.32091	0.98328
3696.26400	0.98279
3694.20710	0.98341
3692.15019	0.98430
3690.09328	0.98424
3688.03637	0.98405
3685.97946	0.98431
3683.92256	0.98445
3681.86565	0.98424
3679.80874	0.98397
3677.75183	0.98433
3675.69492	0.98479
3673.63801	0.98407
3671.58111	0.98338
3669.52420	0.98300
3667.46729	0.98290
3665.41038	0.98311
3663.35347	0.98306
3661.29657	0.98287
3659.23966	0.98301
3657.18275	0.98349
3655.12584	0.98398
3653.06893	0.98415
3651.01202	0.98334
3648.95512	0.98178
3646.89821	0.98144
3644.84130	0.98170
3642.78439	0.98209
3640.72748	0.98277
3638.67058	0.98307
3636.61367	0.98310
3634.55676	0.98346
3632.49985	0.98341
3630.44294	0.98237
3628.38603	0.98155
3626.32913	0.98180
3624.27222	0.98190
3622.21531	0.98168
3620.15840	0.98182
3618.10149	0.98230
3616.04459	0.98266
3613.98768	0.98286
3611.93077	0.98269
3609.87386	0.98242
3607.81695	0.98258
3605.76004	0.98252
3603.70314	0.98185
3601.64623	0.98125
3599.58932	0.98110
3597.53241	0.98103
3595.47550	0.98073
3593.41860	0.98049
3591.36169	0.98067
3589.30478	0.98104
3587.24787	0.98137
3585.19096	0.98138
3583.13405	0.98081
3581.07715	0.98022
3579.02024	0.98012
3576.96333	0.98061
3574.90642	0.98119
3572.84951	0.98106
3570.79261	0.98016
3568.73570	0.97913
3566.67879	0.97844
3564.62188	0.97798
3562.56497	0.97796
3560.50806	0.97825
3558.45116	0.97818
3556.39425	0.97780
3554.33734	0.97759
3552.28043	0.97766
3550.22352	0.97743
3548.16662	0.97681
3546.10971	0.97645
3544.05280	0.97638
3541.99589	0.97615
3539.93898	0.97574
3537.88207	0.97540
3535.82517	0.97501
3533.76826	0.97470
3531.71135	0.97474
3529.65444	0.97487
3527.59753	0.97469
3525.54063	0.97438
3523.48372	0.97389
3521.42681	0.97317
3519.36990	0.97302
3517.31299	0.97334
3515.25608	0.97302
3513.19918	0.97214
3511.14227	0.97166
3509.08536	0.97168
3507.02845	0.97184
3504.97154	0.97193
3502.91464	0.97184
3500.85773	0.97193
3498.80082	0.97202
3496.74391	0.97169
3494.68700	0.97133
3492.63009	0.97140
3490.57319	0.97130
3488.51628	0.97071
3486.45937	0.97049
3484.40246	0.97092
3482.34555	0.97137
3480.28865	0.97172
3478.23174	0.97206
3476.17483	0.97229
3474.11792	0.97242
3472.06101	0.97224
3470.00410	0.97143
3467.94720	0.97076
3465.89029	0.97061
3463.83338	0.97036
3461.77647	0.97033
3459.71956	0.97106
3457.66266	0.97191
3455.60575	0.97214
3453.54884	0.97163
3451.49193	0.97111
3449.43502	0.97139
3447.37811	0.97219
3445.32121	0.97265
3443.26430	0.97243
3441.20739	0.97193
3439.15048	0.97174
3437.09357	0.97161
3435.03667	0.97148
3432.97976	0.97193
3430.92285	0.97274
3428.86594	0.97336
3426.80903	0.97394
3424.75212	0.97453
3422.69522	0.97441
3420.63831	0.97372
3418.58140	0.97374
3416.52449	0.97434
3414.46758	0.97461
3412.41068	0.97476
3410.35377	0.97477
3408.29686	0.97453
3406.23995	0.97491
3404.18304	0.97546
3402.12613	0.97508
3400.06923	0.97434
3398.01232	0.97419
3395.95541	0.97473
3393.89850	0.97546
3391.84159	0.97588
3389.78469	0.97579
3387.72778	0.97562
3385.67087	0.97573
3383.61396	0.97582
3381.55705	0.97604
3379.50014	0.97660
3377.44324	0.97690
3375.38633	0.97662
3373.32942	0.97589
3371.27251	0.97525
3369.21560	0.97578
3367.15870	0.97699
3365.10179	0.97736
3363.04488	0.97719
3360.98797	0.97738
3358.93106	0.97778
3356.87415	0.97792
3354.81725	0.97783
3352.76034	0.97801
3350.70343	0.97835
3348.64652	0.97821
3346.58961	0.97771
3344.53271	0.97764
3342.47580	0.97793
3340.41889	0.97795
3338.36198	0.97789
3336.30507	0.97833
3334.24816	0.97898
3332.19126	0.97911
3330.13435	0.97877
3328.07744	0.97864
3326.02053	0.97889
3323.96362	0.97917
3321.90672	0.97923
3319.84981	0.97922
3317.79290	0.97954
3315.73599	0.98004
3313.67908	0.97997
3311.62217	0.97964
3309.56527	0.97965
3307.50836	0.97942
3305.45145	0.97880
3303.39454	0.97847
3301.33763	0.97860
3299.28073	0.97883
3297.22382	0.97892
3295.16691	0.97903
3293.11000	0.97932
3291.05309	0.97968
3288.99618	0.97986
3286.93928	0.97981
3284.88237	0.97981
3282.82546	0.98008
3280.76855	0.98031
3278.71164	0.98022
3276.65474	0.98024
3274.59783	0.98039
3272.54092	0.98047
3270.48401	0.98053
3268.42710	0.98048
3266.37019	0.98033
3264.31329	0.98038
3262.25638	0.98057
3260.19947	0.98063
3258.14256	0.98093
3256.08565	0.98128
3254.02875	0.98130
3251.97184	0.98137
3249.91493	0.98130
3247.85802	0.98084
3245.80111	0.98051
3243.74420	0.98037
3241.68730	0.97973
3239.63039	0.97904
3237.57348	0.97943
3235.51657	0.98040
3233.45966	0.98088
3231.40276	0.98137
3229.34585	0.98207
3227.28894	0.98226
3225.23203	0.98194
3223.17512	0.98146
3221.11821	0.98111
3219.06131	0.98089
3217.00440	0.98064
3214.94749	0.98079
3212.89058	0.98129
3210.83367	0.98153
3208.77677	0.98133
3206.71986	0.98077
3204.66295	0.98039
3202.60604	0.98088
3200.54913	0.98161
3198.49222	0.98156
3196.43532	0.98112
3194.37841	0.98096
3192.32150	0.98119
3190.26459	0.98174
3188.20768	0.98190
3186.15078	0.98131
3184.09387	0.98095
3182.03696	0.98161
3179.98005	0.98270
3177.92314	0.98279
3175.86623	0.98180
3173.80933	0.98110
3171.75242	0.98117
3169.69551	0.98180
3167.63860	0.98239
3165.58169	0.98230
3163.52479	0.98202
3161.46788	0.98188
3159.41097	0.98153
3157.35406	0.98118
3155.29715	0.98108
3153.24024	0.98123
3151.18334	0.98156
3149.12643	0.98185
3147.06952	0.98165
3145.01261	0.98137
3142.95570	0.98173
3140.89880	0.98214
3138.84189	0.98192
3136.78498	0.98164
3134.72807	0.98165
3132.67116	0.98163
3130.61425	0.98170
3128.55735	0.98218
3126.50044	0.98268
3124.44353	0.98260
3122.38662	0.98209
3120.32971	0.98188
3118.27281	0.98204
3116.21590	0.98217
3114.15899	0.98239
3112.10208	0.98242
3110.04517	0.98197
3107.98826	0.98159
3105.93136	0.98168
3103.87445	0.98191
3101.81754	0.98195
3099.76063	0.98241
3097.70372	0.98324
3095.64682	0.98334
3093.58991	0.98260
3091.53300	0.98188
3089.47609	0.98168
3087.41918	0.98200
3085.36227	0.98222
3083.30537	0.98207
3081.24846	0.98222
3079.19155	0.98286
3077.13464	0.98313
3075.07773	0.98267
3073.02083	0.98223
3070.96392	0.98227
3068.90701	0.98242
3066.85010	0.98215
3064.79319	0.98186
3062.73628	0.98184
3060.67938	0.98155
3058.62247	0.98105
3056.56556	0.98084
3054.50865	0.98097
3052.45174	0.98135
3050.39484	0.98185
3048.33793	0.98220
3046.28102	0.98234
3044.22411	0.98213
3042.16720	0.98158
3040.11029	0.98117
3038.05339	0.98101
3035.99648	0.98109
3033.93957	0.98148
3031.88266	0.98173
3029.82575	0.98153
3027.76885	0.98118
3025.71194	0.98085
3023.65503	0.98040
3021.59812	0.98005
3019.54121	0.98044
3017.48430	0.98133
3015.42740	0.98177
3013.37049	0.98162
3011.31358	0.98132
3009.25667	0.98112
3007.19976	0.98093
3005.14286	0.98040
3003.08595	0.97966
3001.02904	0.97917
2998.97213	0.97894
2996.91522	0.97901
2994.85831	0.97941
2992.80141	0.97977
2990.74450	0.97982
2988.68759	0.97967
2986.63068	0.97950
2984.57377	0.97941
2982.51687	0.97952
2980.45996	0.97955
2978.40305	0.97933
2976.34614	0.97903
2974.28923	0.97873
2972.23232	0.97832
2970.17542	0.97775
2968.11851	0.97754
2966.06160	0.97761
2964.00469	0.97707
2961.94778	0.97640
2959.89088	0.97663
2957.83397	0.97711
2955.77706	0.97689
2953.72015	0.97635
2951.66324	0.97611
2949.60633	0.97603
2947.54943	0.97579
2945.49252	0.97556
2943.43561	0.97554
2941.37870	0.97549
2939.32179	0.97528
2937.26489	0.97554
2935.20798	0.97609
2933.15107	0.97596
2931.09416	0.97552
2929.03725	0.97585
2926.98034	0.97672
2924.92344	0.97714
2922.86653	0.97706
2920.80962	0.97703
2918.75271	0.97707
2916.69580	0.97706
2914.63890	0.97712
2912.58199	0.97716
2910.52508	0.97721
2908.46817	0.97707
2906.41126	0.97649
2904.35435	0.97591
2902.29745	0.97581
2900.24054	0.97600
2898.18363	0.97607
2896.12672	0.97602
2894.06981	0.97607
2892.01291	0.97621
2889.95600	0.97626
2887.89909	0.97615
2885.84218	0.97609
2883.78527	0.97606
2881.72836	0.97612
2879.67146	0.97627
2877.61455	0.97632
2875.55764	0.97642
2873.50073	0.97654
2871.44382	0.97650
2869.38692	0.97641
2867.33001	0.97664
2865.27310	0.97710
2863.21619	0.97730
2861.15928	0.97723
2859.10237	0.97741
2857.04547	0.97814
2854.98856	0.97876
2852.93165	0.97880
2850.87474	0.97846
2848.81783	0.97829
2846.76093	0.97864
2844.70402	0.97916
2842.64711	0.97951
2840.59020	0.97978
2838.53329	0.98000
2836.47638	0.98016
2834.41948	0.98024
2832.36257	0.98026
2830.30566	0.98019
2828.24875	0.98003
2826.19184	0.97998
2824.13494	0.98023
2822.07803	0.98061
2820.02112	0.98069
2817.96421	0.98067
2815.90730	0.98099
2813.85039	0.98124
2811.79349	0.98115
2809.73658	0.98093
2807.67967	0.98092
2805.62276	0.98126
2803.56585	0.98153
2801.50895	0.98141
2799.45204	0.98141
2797.39513	0.98191
2795.33822	0.98211
2793.28131	0.98175
2791.22440	0.98137
2789.16750	0.98108
2787.11059	0.98112
2785.05368	0.98156
2782.99677	0.98180
2780.93986	0.98172
2778.88296	0.98178
2776.82605	0.98197
2774.76914	0.98211
2772.71223	0.98237
2770.65532	0.98261
2768.59841	0.98232
2766.54151	0.98173
2764.48460	0.98157
2762.42769	0.98171
2760.37078	0.98164
2758.31387	0.98158
2756.25697	0.98170
2754.20006	0.98205
2752.14315	0.98244
2750.08624	0.98211
2748.02933	0.98153
2745.97242	0.98156
2743.91552	0.98170
2741.85861	0.98172
2739.80170	0.98179
2737.74479	0.98166
2735.68788	0.98162
2733.63098	0.98194
2731.57407	0.98198
2729.51716	0.98173
2727.46025	0.98183
2725.40334	0.98202
2723.34643	0.98184
2721.28953	0.98180
2719.23262	0.98218
2717.17571	0.98234
2715.11880	0.98201
2713.06189	0.98173
2711.00499	0.98165
2708.94808	0.98163
2706.89117	0.98184
2704.83426	0.98218
2702.77735	0.98219
2700.72044	0.98193
2698.66354	0.98182
2696.60663	0.98204
2694.54972	0.98249
2692.49281	0.98273
2690.43590	0.98253
2688.37900	0.98227
2686.32209	0.98207
2684.26518	0.98186
2682.20827	0.98197
2680.15136	0.98225
2678.09445	0.98236
2676.03755	0.98231
2673.98064	0.98210
2671.92373	0.98190
2669.86682	0.98189
2667.80991	0.98191
2665.75301	0.98193
2663.69610	0.98204
2661.63919	0.98209
2659.58228	0.98220
2657.52537	0.98236
2655.46846	0.98229
2653.41156	0.98221
2651.35465	0.98211
2649.29774	0.98199
2647.24083	0.98199
2645.18392	0.98196
2643.12702	0.98185
2641.07011	0.98197
2639.01320	0.98230
2636.95629	0.98233
2634.89938	0.98208
2632.84247	0.98219
2630.78557	0.98254
2628.72866	0.98236
2626.67175	0.98190
2624.61484	0.98178
2622.55793	0.98194
2620.50103	0.98221
2618.44412	0.98214
2616.38721	0.98169
2614.33030	0.98153
2612.27339	0.98177
2610.21648	0.98202
2608.15958	0.98212
2606.10267	0.98225
2604.04576	0.98266
2601.98885	0.98275
2599.93194	0.98237
2597.87504	0.98215
2595.81813	0.98201
2593.76122	0.98169
2591.70431	0.98157
2589.64740	0.98205
2587.59049	0.98283
2585.53359	0.98363
2583.47668	0.98438
2581.41977	0.98451
2579.36286	0.98379
2577.30595	0.98316
2575.24905	0.98305
2573.19214	0.98290
2571.13523	0.98265
2569.07832	0.98244
2567.02141	0.98250
2564.96450	0.98286
2562.90760	0.98327
2560.85069	0.98339
2558.79378	0.98323
2556.73687	0.98346
2554.67996	0.98377
2552.62306	0.98349
2550.56615	0.98340
2548.50924	0.98378
2546.45233	0.98351
2544.39542	0.98279
2542.33851	0.98275
2540.28161	0.98323
2538.22470	0.98374
2536.16779	0.98428
2534.11088	0.98430
2532.05397	0.98353
2529.99707	0.98291
2527.94016	0.98277
2525.88325	0.98267
2523.82634	0.98258
2521.76943	0.98268
2519.71252	0.98309
2517.65562	0.98384
2515.59871	0.98447
2513.54180	0.98458
2511.48489	0.98464
2509.42798	0.98497
2507.37108	0.98511
2505.31417	0.98497
2503.25726	0.98465
2501.20035	0.98395
2499.14344	0.98322
2497.08653	0.98328
2495.02963	0.98424
2492.97272	0.98500
2490.91581	0.98488
2488.85890	0.98483
2486.80199	0.98490
2484.74509	0.98425
2482.68818	0.98336
2480.63127	0.98290
2478.57436	0.98285
2476.51745	0.98315
2474.46054	0.98364
2472.40364	0.98409
2470.34673	0.98443
2468.28982	0.98458
2466.23291	0.98414
2464.17600	0.98335
2462.11910	0.98298
2460.06219	0.98315
2458.00528	0.98368
2455.94837	0.98408
2453.89146	0.98395
2451.83455	0.98377
2449.77765	0.98369
2447.72074	0.98366
2445.66383	0.98381
2443.60692	0.98412
2441.55001	0.98421
2439.49311	0.98406
2437.43620	0.98423
2435.37929	0.98447
2433.32238	0.98414
2431.26547	0.98371
2429.20856	0.98398
2427.15166	0.98441
2425.09475	0.98434
2423.03784	0.98412
2420.98093	0.98375
2418.92402	0.98314
2416.86712	0.98300
2414.81021	0.98344
2412.75330	0.98370
2410.69639	0.98384
2408.63948	0.98443
2406.58257	0.98482
2404.52567	0.98425
2402.46876	0.98399
2400.41185	0.98469
2398.35494	0.98491
2396.29803	0.98432
2394.24113	0.98402
2392.18422	0.98414
2390.12731	0.98421
2388.07040	0.98441
2386.01349	0.98495
2383.95658	0.98568
2381.89968	0.98604
2379.84277	0.98596
2377.78586	0.98570
2375.72895	0.98531
2373.67204	0.98531
2371.61514	0.98579
2369.55823	0.98577
2367.50132	0.98438
2365.44441	0.98268
2363.38750	0.98186
2361.33059	0.98179
2359.27369	0.98325
2357.21678	0.98559
2355.15987	0.98608
2353.10296	0.98508
2351.04605	0.98432
2348.98915	0.98386
2346.93224	0.98359
2344.87533	0.98332
2342.81842	0.98318
2340.76151	0.98365
2338.70460	0.98415
2336.64770	0.98403
2334.59079	0.98356
2332.53388	0.98308
2330.47697	0.98302
2328.42006	0.98362
2326.36316	0.98364
2324.30625	0.98300
2322.24934	0.98256
2320.19243	0.98228
2318.13552	0.98238
2316.07861	0.98315
2314.02171	0.98380
2311.96480	0.98341
2309.90789	0.98273
2307.85098	0.98302
2305.79407	0.98400
2303.73717	0.98442
2301.68026	0.98408
2299.62335	0.98391
2297.56644	0.98422
2295.50953	0.98431
2293.45262	0.98377
2291.39572	0.98314
2289.33881	0.98294
2287.28190	0.98290
2285.22499	0.98283
2283.16808	0.98291
2281.11117	0.98304
2279.05427	0.98305
2276.99736	0.98345
2274.94045	0.98432
2272.88354	0.98439
2270.82663	0.98405
2268.76973	0.98485
2266.71282	0.98588
2264.65591	0.98574
2262.59900	0.98487
2260.54209	0.98423
2258.48518	0.98444
2256.42828	0.98522
2254.37137	0.98555
2252.31446	0.98527
2250.25755	0.98491
2248.20064	0.98481
2246.14374	0.98504
2244.08683	0.98533
2242.02992	0.98475
2239.97301	0.98342
2237.91610	0.98297
2235.85919	0.98304
2233.80229	0.98281
2231.74538	0.98340
2229.68847	0.98483
2227.63156	0.98551
2225.57465	0.98463
2223.51775	0.98395
2221.46084	0.98481
2219.40393	0.98526
2217.34702	0.98503
2215.29011	0.98571
2213.23320	0.98660
2211.17630	0.98640
2209.11939	0.98542
2207.06248	0.98459
2205.00557	0.98478
2202.94866	0.98595
2200.89176	0.98691
2198.83485	0.98697
2196.77794	0.98687
2194.72103	0.98720
2192.66412	0.98756
2190.60721	0.98746
2188.55031	0.98603
2186.49340	0.98364
2184.43649	0.98201
2182.37958	0.98237
2180.32267	0.98477
2178.26577	0.98690
2176.20886	0.98659
2174.15195	0.98495
2172.09504	0.98449
2170.03813	0.98483
2167.98122	0.98427
2165.92432	0.98359
2163.86741	0.98437
2161.81050	0.98505
2159.75359	0.98566
2157.69668	0.98937
2155.63978	0.99228
2153.58287	0.99138
2151.52596	0.98929
2149.46905	0.98775
2147.41214	0.98780
2145.35523	0.98903
2143.29833	0.98898
2141.24142	0.98753
2139.18451	0.98720
2137.12760	0.98767
2135.07069	0.98681
2133.01379	0.98553
2130.95688	0.98554
2128.89997	0.98584
2126.84306	0.98562
2124.78615	0.98618
2122.72924	0.98673
2120.67234	0.98596
2118.61543	0.98522
2116.55852	0.98457
2114.50161	0.98392
2112.44470	0.98394
2110.38780	0.98375
2108.33089	0.98356
2106.27398	0.98410
2104.21707	0.98425
2102.16016	0.98350
2100.10325	0.98301
2098.04635	0.98333
2095.98944	0.98456
2093.93253	0.98577
2091.87562	0.98588
2089.81871	0.98592
2087.76181	0.98639
2085.70490	0.98666
2083.64799	0.98636
2081.59108	0.98529
2079.53417	0.98450
2077.47726	0.98505
2075.42036	0.98549
2073.36345	0.98482
2071.30654	0.98438
2069.24963	0.98472
2067.19272	0.98544
2065.13582	0.98602
2063.07891	0.98626
2061.02200	0.98697
2058.96509	0.98746
2056.90818	0.98627
2054.85127	0.98499
2052.79437	0.98525
2050.73746	0.98533
2048.68055	0.98465
2046.62364	0.98561
2044.56673	0.98779
2042.50983	0.98818
2040.45292	0.98757
2038.39601	0.98747
2036.33910	0.98665
2034.28219	0.98590
2032.22528	0.98672
2030.16838	0.98714
2028.11147	0.98584
2026.05456	0.98496
2023.99765	0.98653
2021.94074	0.98955
2019.88384	0.99174
2017.82693	0.99254
2015.77002	0.99139
2013.71311	0.98800
2011.65620	0.98486
2009.59929	0.98447
2007.54239	0.98535
2005.48548	0.98579
2003.42857	0.98651
2001.37166	0.98686
1999.31475	0.98584
1997.25785	0.98447
1995.20094	0.98438
1993.14403	0.98467
1991.08712	0.98470
1989.03021	0.98608
1986.97330	0.98867
1984.91640	0.99113
1982.85949	0.99115
1980.80258	0.98795
1978.74567	0.98594
1976.68876	0.98754
1974.63186	0.98877
1972.57495	0.98815
1970.51804	0.98742
1968.46113	0.98659
1966.40422	0.98606
1964.34731	0.98711
1962.29041	0.98793
1960.23350	0.98602
1958.17659	0.98443
1956.11968	0.98598
1954.06277	0.98776
1952.00587	0.98792
1949.94896	0.98768
1947.89205	0.98797
1945.83514	0.98831
1943.77823	0.98775
1941.72132	0.98700
1939.66442	0.98681
1937.60751	0.98667
1935.55060	0.98691
1933.49369	0.98749
1931.43678	0.98713
1929.37988	0.98661
1927.32297	0.98717
1925.26606	0.98804
1923.20915	0.98831
1921.15224	0.98843
1919.09533	0.98845
1917.03843	0.98805
1914.98152	0.98787
1912.92461	0.98759
1910.86770	0.98726
1908.81079	0.98737
1906.75389	0.98767
1904.69698	0.98781
1902.64007	0.98764
1900.58316	0.98721
1898.52625	0.98712
1896.46934	0.98764
1894.41244	0.98785
1892.35553	0.98786
1890.29862	0.98818
1888.24171	0.98827
1886.18480	0.98808
1884.12790	0.98785
1882.07099	0.98756
1880.01408	0.98773
1877.95717	0.98828
1875.90026	0.98841
1873.84335	0.98836
1871.78645	0.98883
1869.72954	0.98947
1867.67263	0.98935
1865.61572	0.98859
1863.55881	0.98791
1861.50191	0.98776
1859.44500	0.98818
1857.38809	0.98876
1855.33118	0.98888
1853.27427	0.98858
1851.21736	0.98850
1849.16046	0.98883
1847.10355	0.98908
1845.04664	0.98848
1842.98973	0.98764
1840.93282	0.98793
1838.87592	0.98855
1836.81901	0.98821
1834.76210	0.98756
1832.70519	0.98772
1830.64828	0.98814
1828.59137	0.98826
1826.53447	0.98869
1824.47756	0.98884
1822.42065	0.98820
1820.36374	0.98802
1818.30683	0.98865
1816.24993	0.98894
1814.19302	0.98821
1812.13611	0.98750
1810.07920	0.98731
1808.02229	0.98692
1805.96538	0.98669
1803.90848	0.98718
1801.85157	0.98761
1799.79466	0.98727
1797.73775	0.98663
1795.68084	0.98621
1793.62394	0.98608
1791.56703	0.98583
1789.51012	0.98543
1787.45321	0.98519
1785.39630	0.98472
1783.33939	0.98351
1781.28249	0.98212
1779.22558	0.98073
1777.16867	0.97886
1775.11176	0.97648
1773.05485	0.97311
1770.99795	0.96820
1768.94104	0.96231
1766.88413	0.95554
1764.82722	0.94839
1762.77031	0.93992
1760.71340	0.92983
1758.65650	0.92076
1756.59959	0.91215
1754.54268	0.90419
1752.48577	0.89707
1750.42886	0.88929
1748.37196	0.88179
1746.31505	0.87592
1744.25814	0.87089
1742.20123	0.86631
1740.14432	0.86266
1738.08741	0.86078
1736.03051	0.86036
1733.97360	0.86069
1731.91669	0.86255
1729.85978	0.86581
1727.80287	0.86965
1725.74597	0.87393
1723.68906	0.87924
1721.63215	0.88501
1719.57524	0.89078
1717.51833	0.89772
1715.46142	0.90581
1713.40452	0.91325
1711.34761	0.91973
1709.29070	0.92536
1707.23379	0.93068
1705.17688	0.93623
1703.11998	0.94093
1701.06307	0.94466
1699.00616	0.94826
1696.94925	0.95152
1694.89234	0.95469
1692.83543	0.95743
1690.77853	0.95959
1688.72162	0.96106
1686.66471	0.96169
1684.60780	0.96248
1682.55089	0.96420
1680.49399	0.96562
1678.43708	0.96643
1676.38017	0.96712
1674.32326	0.96807
1672.26635	0.96890
1670.20944	0.96934
1668.15254	0.96978
1666.09563	0.97041
1664.03872	0.97085
1661.98181	0.97106
1659.92490	0.97139
1657.86800	0.97174
1655.81109	0.97196
1653.75418	0.97190
1651.69727	0.97143
1649.64036	0.97151
1647.58345	0.97183
1645.52655	0.97196
1643.46964	0.97232
1641.41273	0.97285
1639.35582	0.97338
1637.29891	0.97391
1635.24201	0.97421
1633.18510	0.97438
1631.12819	0.97462
1629.07128	0.97491
1627.01437	0.97518
1624.95746	0.97542
1622.90056	0.97575
1620.84365	0.97609
1618.78674	0.97620
1616.72983	0.97623
1614.67292	0.97667
1612.61602	0.97732
1610.55911	0.97778
1608.50220	0.97809
1606.44529	0.97831
1604.38838	0.97841
1602.33147	0.97852
1600.27457	0.97890
1598.21766	0.97937
1596.16075	0.97965
1594.10384	0.97987
1592.04693	0.98007
1589.99003	0.98008
1587.93312	0.97994
1585.87621	0.97998
1583.81930	0.98049
1581.76239	0.98105
1579.70548	0.98114
1577.64858	0.98089
1575.59167	0.98055
1573.53476	0.98061
1571.47785	0.98116
1569.42094	0.98166
1567.36404	0.98170
1565.30713	0.98156
1563.25022	0.98142
1561.19331	0.98145
1559.13640	0.98173
1557.07949	0.98191
1555.02259	0.98199
1552.96568	0.98204
1550.90877	0.98204
1548.85186	0.98196
1546.79495	0.98198
1544.73805	0.98217
1542.68114	0.98208
1540.62423	0.98156
1538.56732	0.98160
1536.51041	0.98191
1534.45350	0.98191
1532.39660	0.98186
1530.33969	0.98204
1528.28278	0.98225
1526.22587	0.98228
1524.16896	0.98222
1522.11206	0.98241
1520.05515	0.98298
1517.99824	0.98306
1515.94133	0.98249
1513.88442	0.98221
1511.82751	0.98244
1509.77061	0.98253
1507.71370	0.98215
1505.65679	0.98197
1503.59988	0.98223
1501.54297	0.98250
1499.48607	0.98267
1497.42916	0.98259
1495.37225	0.98254
1493.31534	0.98271
1491.25843	0.98273
1489.20152	0.98236
1487.14462	0.98201
1485.08771	0.98209
1483.03080	0.98225
1480.97389	0.98196
1478.91698	0.98156
1476.86008	0.98145
1474.80317	0.98111
1472.74626	0.97994
1470.68935	0.97856
1468.63244	0.97759
1466.57553	0.97676
1464.51863	0.97578
1462.46172	0.97474
1460.40481	0.97378
1458.34790	0.97253
1456.29099	0.97071
1454.23409	0.96939
1452.17718	0.96849
1450.12027	0.96756
1448.06336	0.96655
1446.00645	0.96544
1443.94954	0.96433
1441.89264	0.96336
1439.83573	0.96256
1437.77882	0.96158
1435.72191	0.96033
1433.66500	0.95950
1431.60810	0.95921
1429.55119	0.95931
1427.49428	0.95982
1425.43737	0.96049
1423.38046	0.96126
1421.32355	0.96232
1419.26665	0.96356
1417.20974	0.96452
1415.15283	0.96515
1413.09592	0.96556
1411.03901	0.96588
1408.98211	0.96637
1406.92520	0.96690
1404.86829	0.96701
1402.81138	0.96684
1400.75447	0.96665
1398.69756	0.96625
1396.64066	0.96538
1394.58375	0.96340
1392.52684	0.96069
1390.46993	0.95791
1388.41302	0.95402
1386.35612	0.94876
1384.29921	0.94366
1382.24230	0.93895
1380.18539	0.93391
1378.12848	0.92859
1376.07157	0.92336
1374.01467	0.91808
1371.95776	0.91324
1369.90085	0.90965
1367.84394	0.90787
1365.78703	0.90841
1363.73013	0.91181
1361.67322	0.91879
1359.61631	0.92758
1357.55940	0.93602
1355.50249	0.94370
1353.44558	0.95023
1351.38868	0.95510
1349.33177	0.95856
1347.27486	0.96105
1345.21795	0.96281
1343.16104	0.96389
1341.10414	0.96455
1339.04723	0.96522
1336.99032	0.96591
1334.93341	0.96639
1332.87650	0.96674
1330.81959	0.96696
1328.76269	0.96688
1326.70578	0.96656
1324.64887	0.96607
1322.59196	0.96567
1320.53505	0.96568
1318.47815	0.96602
1316.42124	0.96656
1314.36433	0.96711
1312.30742	0.96728
1310.25051	0.96720
1308.19360	0.96732
1306.13670	0.96766
1304.07979	0.96791
1302.02288	0.96798
1299.96597	0.96785
1297.90906	0.96735
1295.85216	0.96647
1293.79525	0.96539
1291.73834	0.96422
1289.68143	0.96308
1287.62452	0.96190
1285.56761	0.96037
1283.51071	0.95847
1281.45380	0.95642
1279.39689	0.95412
1277.33998	0.95145
1275.28307	0.94840
1273.22617	0.94502
1271.16926	0.94142
1269.11235	0.93784
1267.05544	0.93414
1264.99853	0.92985
1262.94162	0.92494
1260.88472	0.91952
1258.82781	0.91391
1256.77090	0.90836
1254.71399	0.90260
1252.65708	0.89643
1250.60018	0.89000
1248.54327	0.88345
1246.48636	0.87667
1244.42945	0.86971
1242.37254	0.86264
1240.31563	0.85550
1238.25873	0.84851
1236.20182	0.84160
1234.14491	0.83484
1232.08800	0.82878
1230.03109	0.82345
1227.97419	0.81864
1225.91728	0.81452
1223.86037	0.81116
1221.80346	0.80872
1219.74655	0.80734
1217.68964	0.80678
1215.63274	0.80717
1213.57583	0.80917
1211.51892	0.81305
1209.46201	0.81867
1207.40510	0.82606
1205.34820	0.83521
1203.29129	0.84584
1201.23438	0.85767
1199.17747	0.86994
1197.12056	0.88151
1195.06365	0.89167
1193.00675	0.90045
1190.94984	0.90786
1188.89293	0.91341
1186.83602	0.91722
1184.77911	0.91971
1182.72221	0.92083
1180.66530	0.92062
1178.60839	0.91959
1176.55148	0.91832
1174.49457	0.91705
1172.43766	0.91557
1170.38076	0.91386
1168.32385	0.91242
1166.26694	0.91162
1164.21003	0.91143
1162.15312	0.91187
1160.09622	0.91292
1158.03931	0.91414
1155.98240	0.91529
1153.92549	0.91678
1151.86858	0.91875
1149.81167	0.92052
1147.75477	0.92172
1145.69786	0.92257
1143.64095	0.92307
1141.58404	0.92319
1139.52713	0.92294
1137.47023	0.92200
1135.41332	0.92012
1133.35641	0.91786
1131.29950	0.91587
1129.24259	0.91391
1127.18568	0.91194
1125.12878	0.91034
1123.07187	0.90895
1121.01496	0.90769
1118.95805	0.90671
1116.90114	0.90619
1114.84424	0.90607
1112.78733	0.90613
1110.73042	0.90607
1108.67351	0.90572
1106.61660	0.90480
1104.55969	0.90319
1102.50279	0.90145
1100.44588	0.89987
1098.38897	0.89807
1096.33206	0.89586
1094.27515	0.89322
1092.21825	0.89017
1090.16134	0.88672
1088.10443	0.88319
1086.04752	0.87980
1083.99061	0.87608
1081.93370	0.87177
1079.87680	0.86733
1077.81989	0.86322
1075.76298	0.85945
1073.70607	0.85600
1071.64916	0.85277
1069.59226	0.84939
1067.53535	0.84572
1065.47844	0.84194
1063.42153	0.83820
1061.36462	0.83464
1059.30771	0.83122
1057.25081	0.82754
1055.19390	0.82349
1053.13699	0.81921
1051.08008	0.81476
1049.02317	0.81042
1046.96627	0.80623
1044.90936	0.80220
1042.85245	0.79862
1040.79554	0.79517
1038.73863	0.79153
1036.68172	0.78813
1034.62482	0.78490
1032.56791	0.78191
1030.51100	0.77996
1028.45409	0.77920
1026.39718	0.77935
1024.34028	0.78064
1022.28337	0.78334
1020.22646	0.78695
1018.16955	0.79111
1016.11264	0.79575
1014.05573	0.80060
1011.99883	0.80566
1009.94192	0.81103
1007.88501	0.81665
1005.82810	0.82203
1003.77119	0.82677
1001.71429	0.83127
999.65738	0.83581
997.60047	0.83997
995.54356	0.84379
993.48665	0.84759
991.42974	0.85128
989.37284	0.85450
987.31593	0.85709
985.25902	0.85942
983.20211	0.86186
981.14520	0.86442
979.08830	0.86688
977.03139	0.86956
974.97448	0.87288
972.91757	0.87666
970.86066	0.88061
968.80375	0.88449
966.74685	0.88834
964.68994	0.89196
962.63303	0.89489
960.57612	0.89709
958.51921	0.89884
956.46231	0.90048
954.40540	0.90197
952.34849	0.90327
950.29158	0.90468
948.23467	0.90600
946.17776	0.90704
944.12086	0.90823
942.06395	0.90972
940.00704	0.91110
937.95013	0.91224
935.89322	0.91327
933.83632	0.91409
931.77941	0.91465
929.72250	0.91470
927.66559	0.91402
925.60868	0.91304
923.55177	0.91213
921.49487	0.91103
919.43796	0.90994
917.38105	0.90898
915.32414	0.90776
913.26723	0.90666
911.21033	0.90595
909.15342	0.90499
907.09651	0.90388
905.03960	0.90303
902.98269	0.90204
900.92578	0.90130
898.86888	0.90180
896.81197	0.90318
894.75506	0.90454
892.69815	0.90578
890.64124	0.90730
888.58434	0.90882
886.52743	0.91050
884.47052	0.91281
882.41361	0.91499
880.35670	0.91659
878.29979	0.91839
876.24289	0.92058
874.18598	0.92259
872.12907	0.92456
870.07216	0.92660
868.01525	0.92879
865.95835	0.93119
863.90144	0.93330
861.84453	0.93510
859.78762	0.93668
857.73071	0.93800
855.67380	0.93945
853.61690	0.94048
851.55999	0.94025
849.50308	0.93958
847.44617	0.93925
845.38926	0.93890
843.33236	0.93837
841.27545	0.93779
839.21854	0.93734
837.16163	0.93729
835.10472	0.93778
833.04781	0.93885
830.99091	0.94026
828.93400	0.94132
826.87709	0.94196
824.82018	0.94327
822.76327	0.94521
820.70637	0.94617
818.64946	0.94600
816.59255	0.94595
814.53564	0.94667
812.47873	0.94783
810.42182	0.94859
808.36492	0.94912
806.30801	0.94974
804.25110	0.94981
802.19419	0.94986
800.13728	0.95072
798.08038	0.95139
796.02347	0.95116
793.96656	0.95097
791.90965	0.95166
789.85274	0.95246
787.79583	0.95268
785.73893	0.95289
783.68202	0.95326
781.62511	0.95344
779.56820	0.95317
777.51129	0.95287
775.45439	0.95302
773.39748	0.95305
771.34057	0.95266
769.28366	0.95268
767.22675	0.95346
765.16984	0.95430
763.11294	0.95485
761.05603	0.95529
758.99912	0.95545
756.94221	0.95554
754.88530	0.95604
752.82839	0.95624
750.77149	0.95590
748.71458	0.95604
746.65767	0.95678
744.60076	0.95746
742.54385	0.95801
740.48695	0.95852
738.43004	0.95850
736.37313	0.95771
734.31622	0.95675
732.25931	0.95618
730.20240	0.95583
728.14550	0.95561
726.08859	0.95573
724.03168	0.95539
721.97477	0.95401
719.91786	0.95309
717.86096	0.95328
715.80405	0.95322
713.74714	0.95308
711.69023	0.95327
709.63332	0.95300
707.57641	0.95232
705.51951	0.95189
703.46260	0.95176
701.40569	0.95169
699.34878	0.95114
697.29187	0.95019
695.23497	0.94967
693.17806	0.94935
691.12115	0.94827
689.06424	0.94683
687.00733	0.94617
684.95042	0.94608
682.89352	0.94599
680.83661	0.94620
678.77970	0.94647
676.72279	0.94626
674.66588	0.94606
672.60898	0.94645
670.55207	0.94723
668.49516	0.94846
666.43825	0.94923
664.38134	0.94840
662.32443	0.94700
660.26753	0.94624
658.21062	0.94587
656.15371	0.94529
654.09680	0.94513
652.03989	0.94499
649.98299	0.94408
647.92608	0.94284
645.86917	0.94138
643.81226	0.93973
641.75535	0.93857
639.69844	0.93766
637.64154	0.93638
635.58463	0.93529
633.52772	0.93507
631.47081	0.93475
629.41390	0.93367
627.35700	0.93277
625.30009	0.93204
623.24318	0.93113
621.18627	0.93027
619.12936	0.92878
617.07245	0.92644
615.01555	0.92397
612.95864	0.92076
610.90173	0.91587
608.84482	0.91016
606.78791	0.90501
604.73101	0.90133
602.67410	0.90029
600.61719	0.90099
598.56028	0.90198
596.50337	0.90467
594.44646	0.90986
592.38956	0.91583
590.33265	0.92032
588.27574	0.92265
586.21883	0.92392
584.16192	0.92504
582.10502	0.92614
580.04811	0.92722
577.99120	0.92826
575.93429	0.92903
573.87738	0.92867
571.82047	0.92734
569.76357	0.92662
567.70666	0.92626
565.64975	0.92551
563.59284	0.92432
561.53593	0.92258
559.47903	0.92214
557.42212	0.92349
555.36521	0.92440
553.30830	0.92405
551.25139	0.92365
549.19448	0.92451
547.13758	0.92614
545.08067	0.92694
543.02376	0.92690
540.96685	0.92692
538.90994	0.92644
536.85304	0.92552
534.79613	0.92513
532.73922	0.92531
530.68231	0.92583
528.62540	0.92575
526.56849	0.92475
524.51159	0.92405
522.45468	0.92374
520.39777	0.92360
518.34086	0.92407
516.28395	0.92381
514.22705	0.92214
512.17014	0.92101
510.11323	0.92056
508.05632	0.91955
505.99941	0.91809
503.94250	0.91649
501.88560	0.91444
499.82869	0.91228
497.77178	0.91180
495.71487	0.91197
493.65796	0.91020
491.60106	0.90826
489.54415	0.90820
487.48724	0.90815
485.43033	0.90659
483.37342	0.90515
481.31651	0.90531
479.25961	0.90586
477.20270	0.90619
475.14579	0.90649
473.08888	0.90630
471.03197	0.90556
468.97507	0.90354
466.91816	0.90124
464.86125	0.90120
462.80434	0.90042
460.74743	0.89678
458.69052	0.89392
456.63362	0.89230
454.57671	0.89103
452.51980	0.89162
450.46289	0.89313
448.40598	0.89331
446.34908	0.89215
444.29217	0.89198
442.23526	0.89247
440.17835	0.88993
438.12144	0.88722
436.06453	0.88987
434.00763	0.89448
431.95072	0.89518
429.89381	0.89344
427.83690	0.89299
425.77999	0.89502
423.72309	0.89768
421.66618	0.89936
419.60927	0.90134
417.55236	0.90178
415.49545	0.89968
413.43854	0.89729
411.38164	0.89551
409.32473	0.89552
407.26782	0.89600
405.21091	0.89569
403.15400	0.89437
401.09710	0.88842
399.04019	0.88007
