3996.57260	0.98981
3994.51569	0.99008
3992.45878	0.99030
3990.40188	0.99003
3988.34497	0.98971
3986.28806	0.98978
3984.23115	0.99016
3982.17424	0.99025
3980.11733	0.98989
3978.06043	0.98966
3976.00352	0.98956
3973.94661	0.98966
3971.88970	0.99004
3969.83279	0.99025
3967.77589	0.99028
3965.71898	0.99061
3963.66207	0.99109
3961.60516	0.99110
3959.54825	0.99078
3957.49134	0.99047
3955.43444	0.99013
3953.37753	0.98983
3951.32062	0.98979
3949.26371	0.98973
3947.20680	0.98945
3945.14990	0.98937
3943.09299	0.98935
3941.03608	0.98926
3938.97917	0.98929
3936.92226	0.98946
3934.86535	0.98953
3932.80845	0.98927
3930.75154	0.98903
3928.69463	0.98959
3926.63772	0.99038
3924.58081	0.99041
3922.52391	0.99012
3920.46700	0.99026
3918.41009	0.99043
3916.35318	0.99001
3914.29627	0.98922
3912.23936	0.98893
3910.18246	0.98895
3908.12555	0.98903
3906.06864	0.98971
3904.01173	0.99036
3901.95482	0.99024
3899.89792	0.99029
3897.84101	0.99078
3895.78410	0.99086
3893.72719	0.99053
3891.67028	0.99079
3889.61337	0.99164
3887.55647	0.99181
3885.49956	0.99100
3883.44265	0.99033
3881.38574	0.99011
3879.32883	0.98984
3877.27193	0.99015
3875.21502	0.99071
3873.15811	0.99037
3871.10120	0.98954
3869.04429	0.98993
3866.98738	0.99091
3864.93048	0.99093
3862.87357	0.99046
3860.81666	0.99018
3858.75975	0.98991
3856.70284	0.98982
3854.64594	0.99025
3852.58903	0.99066
3850.53212	0.99065
3848.47521	0.99079
3846.41830	0.99084
3844.36139	0.99081
3842.30449	0.99116
3840.24758	0.99142
3838.19067	0.99087
3836.13376	0.99018
3834.07685	0.99036
3832.01995	0.99081
3829.96304	0.99070
3827.90613	0.99020
3825.84922	0.98973
3823.79231	0.98992
3821.73540	0.99047
3819.67850	0.99019
3817.62159	0.98944
3815.56468	0.98930
3813.50777	0.98958
3811.45086	0.98930
3809.39396	0.98867
3807.33705	0.98860
3805.28014	0.98956
3803.22323	0.99085
3801.16632	0.99188
3799.10941	0.99204
3797.05251	0.99158
3794.99560	0.99118
3792.93869	0.99091
3790.88178	0.99094
3788.82487	0.99102
3786.76796	0.99063
3784.71106	0.99029
3782.65415	0.99071
3780.59724	0.99113
3778.54033	0.99098
3776.48342	0.99122
3774.42652	0.99165
3772.36961	0.99146
3770.31270	0.99121
3768.25579	0.99153
3766.19888	0.99171
3764.14197	0.99146
3762.08507	0.99105
3760.02816	0.99039
3757.97125	0.99027
3755.91434	0.99107
3753.85743	0.99194
3751.80053	0.99235
3749.74362	0.99198
3747.68671	0.99132
3745.62980	0.99079
3743.57289	0.99008
3741.51598	0.98989
3739.45908	0.99030
3737.40217	0.99010
3735.34526	0.98908
3733.28835	0.98897
3731.23144	0.98956
3729.17454	0.98985
3727.11763	0.99018
3725.06072	0.99075
3723.00381	0.99142
3720.94690	0.99152
3718.88999	0.99082
3716.83309	0.98986
3714.77618	0.98933
3712.71927	0.98979
3710.66236	0.99015
3708.60545	0.98976
3706.54855	0.99006
3704.49164	0.99104
3702.43473	0.99164
3700.37782	0.99131
3698.32091	0.99054
3696.26400	0.99012
3694.20710	0.99047
3692.15019	0.99168
3690.09328	0.99262
3688.03637	0.99196
3685.97946	0.99117
3683.92256	0.99088
3681.86565	0.99081
3679.80874	0.99102
3677.75183	0.99130
3675.69492	0.99116
3673.63801	0.99029
3671.58111	0.98936
3669.52420	0.98940
3667.46729	0.99055
3665.41038	0.99069
3663.35347	0.98949
3661.29657	0.98852
3659.23966	0.98851
3657.18275	0.98885
3655.12584	0.98914
3653.06893	0.98931
3651.01202	0.98961
3648.95512	0.99003
3646.89821	0.98972
3644.84130	0.98905
3642.78439	0.98870
3640.72748	0.98877
3638.67058	0.98914
3636.61367	0.98995
3634.55676	0.99078
3632.49985	0.99097
3630.44294	0.99077
3628.38603	0.99016
3626.32913	0.98952
3624.27222	0.98942
3622.21531	0.98966
3620.15840	0.98962
3618.10149	0.98946
3616.04459	0.98957
3613.98768	0.98941
3611.93077	0.98909
3609.87386	0.98890
3607.81695	0.98908
3605.76004	0.98974
3603.70314	0.99020
3601.64623	0.98997
3599.58932	0.98958
3597.53241	0.98952
3595.47550	0.98946
3593.41860	0.98960
3591.36169	0.99005
3589.30478	0.99038
3587.24787	0.99034
3585.19096	0.98995
3583.13405	0.98951
3581.07715	0.98917
3579.02024	0.98920
3576.96333	0.98983
3574.90642	0.99027
3572.84951	0.98998
3570.79261	0.98987
3568.73570	0.98997
3566.67879	0.98943
3564.62188	0.98877
3562.56497	0.98842
3560.50806	0.98830
3558.45116	0.98878
3556.39425	0.98940
3554.33734	0.98921
3552.28043	0.98864
3550.22352	0.98883
3548.16662	0.98955
3546.10971	0.98994
3544.05280	0.98999
3541.99589	0.98998
3539.93898	0.98975
3537.88207	0.98921
3535.82517	0.98880
3533.76826	0.98899
3531.71135	0.98934
3529.65444	0.98952
3527.59753	0.98957
3525.54063	0.98911
3523.48372	0.98858
3521.42681	0.98874
3519.36990	0.98931
3517.31299	0.98972
3515.25608	0.98972
3513.19918	0.98936
3511.14227	0.98904
3509.08536	0.98925
3507.02845	0.98972
3504.97154	0.98967
3502.91464	0.98884
3500.85773	0.98786
3498.80082	0.98733
3496.74391	0.98740
3494.68700	0.98813
3492.63009	0.98894
3490.57319	0.98891
3488.51628	0.98822
3486.45937	0.98801
3484.40246	0.98858
3482.34555	0.98902
3480.28865	0.98888
3478.23174	0.98884
3476.17483	0.98907
3474.11792	0.98920
3472.06101	0.98924
3470.00410	0.98909
3467.94720	0.98878
3465.89029	0.98872
3463.83338	0.98863
3461.77647	0.98834
3459.71956	0.98827
3457.66266	0.98848
3455.60575	0.98845
3453.54884	0.98819
3451.49193	0.98816
3449.43502	0.98822
3447.37811	0.98851
3445.32121	0.98914
3443.26430	0.98926
3441.20739	0.98870
3439.15048	0.98839
3437.09357	0.98854
3435.03667	0.98867
3432.97976	0.98871
3430.92285	0.98871
3428.86594	0.98896
3426.80903	0.98921
3424.75212	0.98902
3422.69522	0.98890
3420.63831	0.98909
3418.58140	0.98925
3416.52449	0.98945
3414.46758	0.98970
3412.41068	0.98966
3410.35377	0.98953
3408.29686	0.98965
3406.23995	0.98960
3404.18304	0.98931
3402.12613	0.98941
3400.06923	0.98974
3398.01232	0.98977
3395.95541	0.98962
3393.89850	0.98955
3391.84159	0.98951
3389.78469	0.98927
3387.72778	0.98914
3385.67087	0.98952
3383.61396	0.98988
3381.55705	0.98996
3379.50014	0.99002
3377.44324	0.98980
3375.38633	0.98932
3373.32942	0.98889
3371.27251	0.98854
3369.21560	0.98851
3367.15870	0.98872
3365.10179	0.98867
3363.04488	0.98883
3360.98797	0.98932
3358.93106	0.98953
3356.87415	0.98976
3354.81725	0.99000
3352.76034	0.98973
3350.70343	0.98900
3348.64652	0.98844
3346.58961	0.98863
3344.53271	0.98911
3342.47580	0.98941
3340.41889	0.98966
3338.36198	0.98988
3336.30507	0.98972
3334.24816	0.98895
3332.19126	0.98832
3330.13435	0.98829
3328.07744	0.98846
3326.02053	0.98849
3323.96362	0.98853
3321.90672	0.98895
3319.84981	0.98955
3317.79290	0.98984
3315.73599	0.98982
3313.67908	0.98976
3311.62217	0.98952
3309.56527	0.98900
3307.50836	0.98854
3305.45145	0.98850
3303.39454	0.98844
3301.33763	0.98798
3299.28073	0.98756
3297.22382	0.98760
3295.16691	0.98825
3293.11000	0.98897
3291.05309	0.98914
3288.99618	0.98914
3286.93928	0.98939
3284.88237	0.98977
3282.82546	0.98968
3280.76855	0.98932
3278.71164	0.98926
3276.65474	0.98920
3274.59783	0.98905
3272.54092	0.98896
3270.48401	0.98873
3268.42710	0.98906
3266.37019	0.98994
3264.31329	0.98998
3262.25638	0.98916
3260.19947	0.98895
3258.14256	0.98962
3256.08565	0.98987
3254.02875	0.98934
3251.97184	0.98898
3249.91493	0.98909
3247.85802	0.98914
3245.80111	0.98881
3243.74420	0.98845
3241.68730	0.98860
3239.63039	0.98927
3237.57348	0.98976
3235.51657	0.98954
3233.45966	0.98926
3231.40276	0.98934
3229.34585	0.98925
3227.28894	0.98904
3225.23203	0.98870
3223.17512	0.98824
3221.11821	0.98821
3219.06131	0.98853
3217.00440	0.98866
3214.94749	0.98858
3212.89058	0.98858
3210.83367	0.98889
3208.77677	0.98930
3206.71986	0.98938
3204.66295	0.98945
3202.60604	0.98972
3200.54913	0.98981
3198.49222	0.98976
3196.43532	0.98957
3194.37841	0.98866
3192.32150	0.98780
3190.26459	0.98809
3188.20768	0.98866
3186.15078	0.98882
3184.09387	0.98891
3182.03696	0.98916
3179.98005	0.98922
3177.92314	0.98892
3175.86623	0.98879
3173.80933	0.98907
3171.75242	0.98919
3169.69551	0.98894
3167.63860	0.98877
3165.58169	0.98853
3163.52479	0.98820
3161.46788	0.98807
3159.41097	0.98825
3157.35406	0.98874
3155.29715	0.98921
3153.24024	0.98950
3151.18334	0.98937
3149.12643	0.98859
3147.06952	0.98799
3145.01261	0.98811
3142.95570	0.98825
3140.89880	0.98813
3138.84189	0.98822
3136.78498	0.98848
3134.72807	0.98849
3132.67116	0.98833
3130.61425	0.98826
3128.55735	0.98823
3126.50044	0.98809
3124.44353	0.98796
3122.38662	0.98823
3120.32971	0.98886
3118.27281	0.98925
3116.21590	0.98909
3114.15899	0.98888
3112.10208	0.98889
3110.04517	0.98874
3107.98826	0.98844
3105.93136	0.98823
3103.87445	0.98815
3101.81754	0.98836
3099.76063	0.98861
3097.70372	0.98847
3095.64682	0.98855
3093.58991	0.98921
3091.53300	0.98951
3089.47609	0.98906
3087.41918	0.98839
3085.36227	0.98801
3083.30537	0.98810
3081.24846	0.98829
3079.19155	0.98811
3077.13464	0.98763
3075.07773	0.98733
3073.02083	0.98747
3070.96392	0.98771
3068.90701	0.98787
3066.85010	0.98811
3064.79319	0.98834
3062.73628	0.98852
3060.67938	0.98871
3058.62247	0.98861
3056.56556	0.98831
3054.50865	0.98839
3052.45174	0.98854
3050.39484	0.98837
3048.33793	0.98818
3046.28102	0.98799
3044.22411	0.98763
3042.16720	0.98748
3040.11029	0.98792
3038.05339	0.98839
3035.99648	0.98851
3033.93957	0.98836
3031.88266	0.98793
3029.82575	0.98751
3027.76885	0.98728
3025.71194	0.98733
3023.65503	0.98757
3021.59812	0.98751
3019.54121	0.98708
3017.48430	0.98678
3015.42740	0.98685
3013.37049	0.98700
3011.31358	0.98700
3009.25667	0.98691
3007.19976	0.98685
3005.14286	0.98657
3003.08595	0.98603
3001.02904	0.98567
2998.97213	0.98547
2996.91522	0.98535
2994.85831	0.98535
2992.80141	0.98553
2990.74450	0.98603
2988.68759	0.98626
2986.63068	0.98588
2984.57377	0.98575
2982.51687	0.98607
2980.45996	0.98627
2978.40305	0.98625
2976.34614	0.98594
2974.28923	0.98532
2972.23232	0.98472
2970.17542	0.98434
2968.11851	0.98384
2966.06160	0.98317
2964.00469	0.98286
2961.94778	0.98301
2959.89088	0.98315
2957.83397	0.98295
2955.77706	0.98271
2953.72015	0.98275
2951.66324	0.98273
2949.60633	0.98238
2947.54943	0.98222
2945.49252	0.98257
2943.43561	0.98280
2941.37870	0.98257
2939.32179	0.98289
2937.26489	0.98373
2935.20798	0.98393
2933.15107	0.98382
2931.09416	0.98423
2929.03725	0.98486
2926.98034	0.98519
2924.92344	0.98508
2922.86653	0.98481
2920.80962	0.98481
2918.75271	0.98521
2916.69580	0.98553
2914.63890	0.98531
2912.58199	0.98489
2910.52508	0.98476
2908.46817	0.98491
2906.41126	0.98503
2904.35435	0.98511
2902.29745	0.98523
2900.24054	0.98495
2898.18363	0.98441
2896.12672	0.98453
2894.06981	0.98512
2892.01291	0.98522
2889.95600	0.98477
2887.89909	0.98456
2885.84218	0.98487
2883.78527	0.98523
2881.72836	0.98517
2879.67146	0.98487
2877.61455	0.98484
2875.55764	0.98479
2873.50073	0.98420
2871.44382	0.98377
2869.38692	0.98411
2867.33001	0.98481
2865.27310	0.98526
2863.21619	0.98523
2861.15928	0.98489
2859.10237	0.98460
2857.04547	0.98464
2854.98856	0.98502
2852.93165	0.98563
2850.87474	0.98615
2848.81783	0.98640
2846.76093	0.98672
2844.70402	0.98716
2842.64711	0.98752
2840.59020	0.98759
2838.53329	0.98734
2836.47638	0.98702
2834.41948	0.98679
2832.36257	0.98691
2830.30566	0.98728
2828.24875	0.98744
2826.19184	0.98733
2824.13494	0.98717
2822.07803	0.98703
2820.02112	0.98679
2817.96421	0.98662
2815.90730	0.98660
2813.85039	0.98656
2811.79349	0.98654
2809.73658	0.98672
2807.67967	0.98702
2805.62276	0.98743
2803.56585	0.98779
2801.50895	0.98761
2799.45204	0.98718
2797.39513	0.98719
2795.33822	0.98736
2793.28131	0.98738
2791.22440	0.98748
2789.16750	0.98742
2787.11059	0.98707
2785.05368	0.98696
2782.99677	0.98723
2780.93986	0.98757
2778.88296	0.98776
2776.82605	0.98774
2774.76914	0.98770
2772.71223	0.98771
2770.65532	0.98748
2768.59841	0.98736
2766.54151	0.98767
2764.48460	0.98775
2762.42769	0.98738
2760.37078	0.98735
2758.31387	0.98787
2756.25697	0.98829
2754.20006	0.98818
2752.14315	0.98770
2750.08624	0.98731
2748.02933	0.98713
2745.97242	0.98712
2743.91552	0.98722
2741.85861	0.98716
2739.80170	0.98704
2737.74479	0.98708
2735.68788	0.98728
2733.63098	0.98737
2731.57407	0.98725
2729.51716	0.98715
2727.46025	0.98714
2725.40334	0.98716
2723.34643	0.98721
2721.28953	0.98750
2719.23262	0.98763
2717.17571	0.98753
2715.11880	0.98769
2713.06189	0.98784
2711.00499	0.98777
2708.94808	0.98775
2706.89117	0.98770
2704.83426	0.98774
2702.77735	0.98785
2700.72044	0.98762
2698.66354	0.98751
2696.60663	0.98782
2694.54972	0.98781
2692.49281	0.98748
2690.43590	0.98742
2688.37900	0.98756
2686.32209	0.98751
2684.26518	0.98732
2682.20827	0.98722
2680.15136	0.98713
2678.09445	0.98717
2676.03755	0.98754
2673.98064	0.98779
2671.92373	0.98774
2669.86682	0.98772
2667.80991	0.98778
2665.75301	0.98791
2663.69610	0.98789
2661.63919	0.98754
2659.58228	0.98720
2657.52537	0.98728
2655.46846	0.98758
2653.41156	0.98744
2651.35465	0.98682
2649.29774	0.98663
2647.24083	0.98710
2645.18392	0.98750
2643.12702	0.98781
2641.07011	0.98814
2639.01320	0.98814
2636.95629	0.98801
2634.89938	0.98772
2632.84247	0.98732
2630.78557	0.98744
2628.72866	0.98786
2626.67175	0.98821
2624.61484	0.98843
2622.55793	0.98847
2620.50103	0.98828
2618.44412	0.98770
2616.38721	0.98719
2614.33030	0.98729
2612.27339	0.98740
2610.21648	0.98675
2608.15958	0.98624
2606.10267	0.98679
2604.04576	0.98748
2601.98885	0.98739
2599.93194	0.98744
2597.87504	0.98850
2595.81813	0.98936
2593.76122	0.98912
2591.70431	0.98864
2589.64740	0.98835
2587.59049	0.98799
2585.53359	0.98790
2583.47668	0.98818
2581.41977	0.98833
2579.36286	0.98835
2577.30595	0.98833
2575.24905	0.98863
2573.19214	0.98946
2571.13523	0.98970
2569.07832	0.98890
2567.02141	0.98821
2564.96450	0.98819
2562.90760	0.98845
2560.85069	0.98866
2558.79378	0.98873
2556.73687	0.98878
2554.67996	0.98872
2552.62306	0.98862
2550.56615	0.98886
2548.50924	0.98911
2546.45233	0.98914
2544.39542	0.98912
2542.33851	0.98874
2540.28161	0.98795
2538.22470	0.98764
2536.16779	0.98821
2534.11088	0.98857
2532.05397	0.98804
2529.99707	0.98758
2527.94016	0.98744
2525.88325	0.98716
2523.82634	0.98721
2521.76943	0.98764
2519.71252	0.98813
2517.65562	0.98859
2515.59871	0.98867
2513.54180	0.98825
2511.48489	0.98776
2509.42798	0.98749
2507.37108	0.98775
2505.31417	0.98809
2503.25726	0.98771
2501.20035	0.98761
2499.14344	0.98865
2497.08653	0.98967
2495.02963	0.98953
2492.97272	0.98895
2490.91581	0.98889
2488.85890	0.98906
2486.80199	0.98882
2484.74509	0.98837
2482.68818	0.98827
2480.63127	0.98838
2478.57436	0.98861
2476.51745	0.98874
2474.46054	0.98849
2472.40364	0.98806
2470.34673	0.98791
2468.28982	0.98857
2466.23291	0.98927
2464.17600	0.98901
2462.11910	0.98873
2460.06219	0.98894
2458.00528	0.98898
2455.94837	0.98877
2453.89146	0.98837
2451.83455	0.98821
2449.77765	0.98843
2447.72074	0.98829
2445.66383	0.98798
2443.60692	0.98809
2441.55001	0.98844
2439.49311	0.98846
2437.43620	0.98801
2435.37929	0.98766
2433.32238	0.98771
2431.26547	0.98784
2429.20856	0.98822
2427.15166	0.98878
2425.09475	0.98886
2423.03784	0.98863
2420.98093	0.98850
2418.92402	0.98834
2416.86712	0.98828
2414.81021	0.98840
2412.75330	0.98839
2410.69639	0.98830
2408.63948	0.98823
2406.58257	0.98797
2404.52567	0.98776
2402.46876	0.98800
2400.41185	0.98855
2398.35494	0.98859
2396.29803	0.98814
2394.24113	0.98836
2392.18422	0.98892
2390.12731	0.98860
2388.07040	0.98755
2386.01349	0.98706
2383.95658	0.98748
2381.89968	0.98786
2379.84277	0.98825
2377.78586	0.98903
2375.72895	0.98942
2373.67204	0.98877
2371.61514	0.98754
2369.55823	0.98737
2367.50132	0.98854
2365.44441	0.98865
2363.38750	0.98714
2361.33059	0.98644
2359.27369	0.98720
2357.21678	0.98741
2355.15987	0.98696
2353.10296	0.98715
2351.04605	0.98781
2348.98915	0.98851
2346.93224	0.98894
2344.87533	0.98887
2342.81842	0.98879
2340.76151	0.98881
2338.70460	0.98855
2336.64770	0.98823
2334.59079	0.98841
2332.53388	0.98892
2330.47697	0.98905
2328.42006	0.98853
2326.36316	0.98818
2324.30625	0.98855
2322.24934	0.98864
2320.19243	0.98766
2318.13552	0.98665
2316.07861	0.98665
2314.02171	0.98723
2311.96480	0.98768
2309.90789	0.98801
2307.85098	0.98853
2305.79407	0.98888
2303.73717	0.98887
2301.68026	0.98876
2299.62335	0.98853
2297.56644	0.98865
2295.50953	0.98904
2293.45262	0.98875
2291.39572	0.98817
2289.33881	0.98813
2287.28190	0.98816
2285.22499	0.98773
2283.16808	0.98768
2281.11117	0.98855
2279.05427	0.98902
2276.99736	0.98835
2274.94045	0.98805
2272.88354	0.98893
2270.82663	0.98976
2268.76973	0.98950
2266.71282	0.98893
2264.65591	0.98878
2262.59900	0.98863
2260.54209	0.98801
2258.48518	0.98691
2256.42828	0.98604
2254.37137	0.98581
2252.31446	0.98605
2250.25755	0.98666
2248.20064	0.98737
2246.14374	0.98798
2244.08683	0.98833
2242.02992	0.98861
2239.97301	0.98920
2237.91610	0.98933
2235.85919	0.98814
2233.80229	0.98666
2231.74538	0.98593
2229.68847	0.98607
2227.63156	0.98654
2225.57465	0.98632
2223.51775	0.98663
2221.46084	0.98865
2219.40393	0.99021
2217.34702	0.99031
2215.29011	0.99031
2213.23320	0.99009
2211.17630	0.98887
2209.11939	0.98813
2207.06248	0.98872
2205.00557	0.98901
2202.94866	0.98800
2200.89176	0.98697
2198.83485	0.98704
2196.77794	0.98796
2194.72103	0.98931
2192.66412	0.98967
2190.60721	0.98891
2188.55031	0.98925
2186.49340	0.99003
2184.43649	0.98921
2182.37958	0.98807
2180.32267	0.98788
2178.26577	0.98731
2176.20886	0.98645
2174.15195	0.98798
2172.09504	0.99043
2170.03813	0.98966
2167.98122	0.98806
2165.92432	0.98901
2163.86741	0.98975
2161.81050	0.98814
2159.75359	0.98645
2157.69668	0.98734
2155.63978	0.98898
2153.58287	0.98953
2151.52596	0.99057
2149.46905	0.99213
2147.41214	0.99246
2145.35523	0.99052
2143.29833	0.98817
2141.24142	0.98715
2139.18451	0.98693
2137.12760	0.98833
2135.07069	0.99051
2133.01379	0.99128
2130.95688	0.99120
2128.89997	0.99116
2126.84306	0.99082
2124.78615	0.99006
2122.72924	0.98986
2120.67234	0.99084
2118.61543	0.99158
2116.55852	0.99046
2114.50161	0.98888
2112.44470	0.98837
2110.38780	0.98848
2108.33089	0.98903
2106.27398	0.98926
2104.21707	0.98797
2102.16016	0.98631
2100.10325	0.98661
2098.04635	0.98798
2095.98944	0.98805
2093.93253	0.98760
2091.87562	0.98847
2089.81871	0.99004
2087.76181	0.99053
2085.70490	0.98990
2083.64799	0.98961
2081.59108	0.98947
2079.53417	0.98847
2077.47726	0.98761
2075.42036	0.98778
2073.36345	0.98890
2071.30654	0.99007
2069.24963	0.99016
2067.19272	0.98997
2065.13582	0.99096
2063.07891	0.99237
2061.02200	0.99160
2058.96509	0.98919
2056.90818	0.98896
2054.85127	0.99011
2052.79437	0.98935
2050.73746	0.98802
2048.68055	0.98832
2046.62364	0.98963
2044.56673	0.99055
2042.50983	0.98971
2040.45292	0.98819
2038.39601	0.98871
2036.33910	0.99008
2034.28219	0.98967
2032.22528	0.98832
2030.16838	0.98789
2028.11147	0.98872
2026.05456	0.98927
2023.99765	0.98854
2021.94074	0.98796
2019.88384	0.98800
2017.82693	0.98825
2015.77002	0.98952
2013.71311	0.99123
2011.65620	0.99138
2009.59929	0.99027
2007.54239	0.98959
2005.48548	0.99013
2003.42857	0.99082
2001.37166	0.98955
1999.31475	0.98758
1997.25785	0.98739
1995.20094	0.98776
1993.14403	0.98708
1991.08712	0.98628
1989.03021	0.98687
1986.97330	0.98882
1984.91640	0.99040
1982.85949	0.99011
1980.80258	0.98873
1978.74567	0.98819
1976.68876	0.98874
1974.63186	0.98854
1972.57495	0.98826
1970.51804	0.98949
1968.46113	0.98937
1966.40422	0.98821
1964.34731	0.98946
1962.29041	0.99097
1960.23350	0.99006
1958.17659	0.98815
1956.11968	0.98747
1954.06277	0.98811
1952.00587	0.98925
1949.94896	0.98934
1947.89205	0.98835
1945.83514	0.98806
1943.77823	0.98781
1941.72132	0.98741
1939.66442	0.98809
1937.60751	0.98872
1935.55060	0.98880
1933.49369	0.98976
1931.43678	0.99144
1929.37988	0.99204
1927.32297	0.99111
1925.26606	0.99008
1923.20915	0.98966
1921.15224	0.98926
1919.09533	0.98890
1917.03843	0.98846
1914.98152	0.98805
1912.92461	0.98841
1910.86770	0.98890
1908.81079	0.98890
1906.75389	0.98906
1904.69698	0.98973
1902.64007	0.99058
1900.58316	0.99065
1898.52625	0.98980
1896.46934	0.98900
1894.41244	0.98914
1892.35553	0.98997
1890.29862	0.99042
1888.24171	0.99058
1886.18480	0.99092
1884.12790	0.99099
1882.07099	0.99018
1880.01408	0.98955
1877.95717	0.99039
1875.90026	0.99152
1873.84335	0.99154
1871.78645	0.99093
1869.72954	0.99028
1867.67263	0.98973
1865.61572	0.98978
1863.55881	0.99035
1861.50191	0.99079
1859.44500	0.99098
1857.38809	0.99089
1855.33118	0.99067
1853.27427	0.99084
1851.21736	0.99091
1849.16046	0.99055
1847.10355	0.99034
1845.04664	0.99053
1842.98973	0.99049
1840.93282	0.99000
1838.87592	0.98982
1836.81901	0.99033
1834.76210	0.99102
1832.70519	0.99130
1830.64828	0.99127
1828.59137	0.99123
1826.53447	0.99126
1824.47756	0.99084
1822.42065	0.99038
1820.36374	0.99048
1818.30683	0.99063
1816.24993	0.99048
1814.19302	0.98993
1812.13611	0.98959
1810.07920	0.98981
1808.02229	0.98993
1805.96538	0.98969
1803.90848	0.98945
1801.85157	0.98912
1799.79466	0.98866
1797.73775	0.98813
1795.68084	0.98759
1793.62394	0.98739
1791.56703	0.98717
1789.51012	0.98669
1787.45321	0.98610
1785.39630	0.98540
1783.33939	0.98443
1781.28249	0.98283
1779.22558	0.98049
1777.16867	0.97809
1775.11176	0.97536
1773.05485	0.97078
1770.99795	0.96451
1768.94104	0.95788
1766.88413	0.94998
1764.82722	0.94133
1762.77031	0.93143
1760.71340	0.92029
1758.65650	0.91100
1756.59959	0.90265
1754.54268	0.89570
1752.48577	0.89037
1750.42886	0.88444
1748.37196	0.87859
1746.31505	0.87432
1744.25814	0.87100
1742.20123	0.86808
1740.14432	0.86541
1738.08741	0.86418
1736.03051	0.86491
1733.97360	0.86697
1731.91669	0.87139
1729.85978	0.87842
1727.80287	0.88710
1725.74597	0.89638
1723.68906	0.90557
1721.63215	0.91360
1719.57524	0.92101
1717.51833	0.92896
1715.46142	0.93565
1713.40452	0.94040
1711.34761	0.94456
1709.29070	0.94816
1707.23379	0.95092
1705.17688	0.95340
1703.11998	0.95616
1701.06307	0.95878
1699.00616	0.96052
1696.94925	0.96185
1694.89234	0.96311
1692.83543	0.96438
1690.77853	0.96587
1688.72162	0.96738
1686.66471	0.96893
1684.60780	0.97053
1682.55089	0.97114
1680.49399	0.97135
1678.43708	0.97159
1676.38017	0.97173
1674.32326	0.97219
1672.26635	0.97299
1670.20944	0.97328
1668.15254	0.97308
1666.09563	0.97330
1664.03872	0.97386
1661.98181	0.97447
1659.92490	0.97498
1657.86800	0.97526
1655.81109	0.97541
1653.75418	0.97519
1651.69727	0.97454
1649.64036	0.97445
1647.58345	0.97448
1645.52655	0.97469
1643.46964	0.97533
1641.41273	0.97593
1639.35582	0.97653
1637.29891	0.97712
1635.24201	0.97747
1633.18510	0.97777
1631.12819	0.97805
1629.07128	0.97824
1627.01437	0.97842
1624.95746	0.97872
1622.90056	0.97918
1620.84365	0.97955
1618.78674	0.97968
1616.72983	0.97974
1614.67292	0.98008
1612.61602	0.98055
1610.55911	0.98075
1608.50220	0.98065
1606.44529	0.98072
1604.38838	0.98126
1602.33147	0.98187
1600.27457	0.98202
1598.21766	0.98196
1596.16075	0.98213
1594.10384	0.98235
1592.04693	0.98225
1589.99003	0.98192
1587.93312	0.98179
1585.87621	0.98212
1583.81930	0.98246
1581.76239	0.98239
1579.70548	0.98227
1577.64858	0.98233
1575.59167	0.98247
1573.53476	0.98260
1571.47785	0.98272
1569.42094	0.98308
1567.36404	0.98346
1565.30713	0.98357
1563.25022	0.98366
1561.19331	0.98368
1559.13640	0.98339
1557.07949	0.98334
1555.02259	0.98333
1552.96568	0.98308
1550.90877	0.98299
1548.85186	0.98302
1546.79495	0.98324
1544.73805	0.98391
1542.68114	0.98457
1540.62423	0.98456
1538.56732	0.98416
1536.51041	0.98386
1534.45350	0.98367
1532.39660	0.98369
1530.33969	0.98380
1528.28278	0.98375
1526.22587	0.98375
1524.16896	0.98405
1522.11206	0.98439
1520.05515	0.98446
1517.99824	0.98452
1515.94133	0.98465
1513.88442	0.98453
1511.82751	0.98445
1509.77061	0.98476
1507.71370	0.98515
1505.65679	0.98485
1503.59988	0.98453
1501.54297	0.98461
1499.48607	0.98468
1497.42916	0.98462
1495.37225	0.98469
1493.31534	0.98498
1491.25843	0.98526
1489.20152	0.98527
1487.14462	0.98502
1485.08771	0.98483
1483.03080	0.98487
1480.97389	0.98498
1478.91698	0.98491
1476.86008	0.98461
1474.80317	0.98419
1472.74626	0.98362
1470.68935	0.98279
1468.63244	0.98172
1466.57553	0.98053
1464.51863	0.97953
1462.46172	0.97901
1460.40481	0.97856
1458.34790	0.97762
1456.29099	0.97637
1454.23409	0.97588
1452.17718	0.97576
1450.12027	0.97524
1448.06336	0.97407
1446.00645	0.97295
1443.94954	0.97222
1441.89264	0.97119
1439.83573	0.96997
1437.77882	0.96904
1435.72191	0.96829
1433.66500	0.96781
1431.60810	0.96766
1429.55119	0.96790
1427.49428	0.96850
1425.43737	0.96938
1423.38046	0.97051
1421.32355	0.97158
1419.26665	0.97246
1417.20974	0.97333
1415.15283	0.97423
1413.09592	0.97501
1411.03901	0.97571
1408.98211	0.97626
1406.92520	0.97664
1404.86829	0.97690
1402.81138	0.97699
1400.75447	0.97702
1398.69756	0.97675
1396.64066	0.97582
1394.58375	0.97407
1392.52684	0.97138
1390.46993	0.96813
1388.41302	0.96413
1386.35612	0.95908
1384.29921	0.95392
1382.24230	0.94899
1380.18539	0.94419
1378.12848	0.93986
1376.07157	0.93563
1374.01467	0.93069
1371.95776	0.92572
1369.90085	0.92153
1367.84394	0.91830
1365.78703	0.91728
1363.73013	0.91927
1361.67322	0.92451
1359.61631	0.93245
1357.55940	0.94182
1355.50249	0.95118
1353.44558	0.95902
1351.38868	0.96454
1349.33177	0.96804
1347.27486	0.97046
1345.21795	0.97253
1343.16104	0.97424
1341.10414	0.97530
1339.04723	0.97595
1336.99032	0.97647
1334.93341	0.97675
1332.87650	0.97675
1330.81959	0.97643
1328.76269	0.97597
1326.70578	0.97560
1324.64887	0.97538
1322.59196	0.97541
1320.53505	0.97565
1318.47815	0.97605
1316.42124	0.97668
1314.36433	0.97733
1312.30742	0.97775
1310.25051	0.97808
1308.19360	0.97859
1306.13670	0.97930
1304.07979	0.97971
1302.02288	0.97949
1299.96597	0.97893
1297.90906	0.97829
1295.85216	0.97783
1293.79525	0.97764
1291.73834	0.97728
1289.68143	0.97659
1287.62452	0.97575
1285.56761	0.97494
1283.51071	0.97403
1281.45380	0.97269
1279.39689	0.97095
1277.33998	0.96895
1275.28307	0.96652
1273.22617	0.96368
1271.16926	0.96074
1269.11235	0.95776
1267.05544	0.95431
1264.99853	0.95018
1262.94162	0.94569
1260.88472	0.94094
1258.82781	0.93564
1256.77090	0.92986
1254.71399	0.92391
1252.65708	0.91757
1250.60018	0.91055
1248.54327	0.90297
1246.48636	0.89521
1244.42945	0.88743
1242.37254	0.87943
1240.31563	0.87109
1238.25873	0.86286
1236.20182	0.85522
1234.14491	0.84822
1232.08800	0.84205
1230.03109	0.83684
1227.97419	0.83254
1225.91728	0.82934
1223.86037	0.82733
1221.80346	0.82595
1219.74655	0.82435
1217.68964	0.82221
1215.63274	0.82003
1213.57583	0.81835
1211.51892	0.81735
1209.46201	0.81755
1207.40510	0.81967
1205.34820	0.82448
1203.29129	0.83223
1201.23438	0.84249
1199.17747	0.85438
1197.12056	0.86657
1195.06365	0.87794
1193.00675	0.88803
1190.94984	0.89669
1188.89293	0.90378
1186.83602	0.90927
1184.77911	0.91323
1182.72221	0.91573
1180.66530	0.91700
1178.60839	0.91737
1176.55148	0.91707
1174.49457	0.91652
1172.43766	0.91611
1170.38076	0.91557
1168.32385	0.91503
1166.26694	0.91489
1164.21003	0.91523
1162.15312	0.91603
1160.09622	0.91722
1158.03931	0.91866
1155.98240	0.92043
1153.92549	0.92257
1151.86858	0.92466
1149.81167	0.92658
1147.75477	0.92860
1145.69786	0.93061
1143.64095	0.93221
1141.58404	0.93306
1139.52713	0.93315
1137.47023	0.93285
1135.41332	0.93224
1133.35641	0.93130
1131.29950	0.93015
1129.24259	0.92858
1127.18568	0.92679
1125.12878	0.92567
1123.07187	0.92545
1121.01496	0.92579
1118.95805	0.92640
1116.90114	0.92697
1114.84424	0.92744
1112.78733	0.92805
1110.73042	0.92858
1108.67351	0.92881
1106.61660	0.92900
1104.55969	0.92906
1102.50279	0.92854
1100.44588	0.92700
1098.38897	0.92436
1096.33206	0.92103
1094.27515	0.91726
1092.21825	0.91314
1090.16134	0.90894
1088.10443	0.90495
1086.04752	0.90106
1083.99061	0.89726
1081.93370	0.89385
1079.87680	0.89078
1077.81989	0.88758
1075.76298	0.88378
1073.70607	0.87994
1071.64916	0.87699
1069.59226	0.87446
1067.53535	0.87178
1065.47844	0.86907
1063.42153	0.86612
1061.36462	0.86262
1059.30771	0.85845
1057.25081	0.85344
1055.19390	0.84798
1053.13699	0.84257
1051.08008	0.83691
1049.02317	0.83134
1046.96627	0.82697
1044.90936	0.82370
1042.85245	0.82074
1040.79554	0.81781
1038.73863	0.81490
1036.68172	0.81226
1034.62482	0.81017
1032.56791	0.80862
1030.51100	0.80788
1028.45409	0.80872
1026.39718	0.81139
1024.34028	0.81535
1022.28337	0.81974
1020.22646	0.82429
1018.16955	0.82932
1016.11264	0.83461
1014.05573	0.83960
1011.99883	0.84446
1009.94192	0.84964
1007.88501	0.85490
1005.82810	0.85973
1003.77119	0.86432
1001.71429	0.86875
999.65738	0.87255
997.60047	0.87579
995.54356	0.87889
993.48665	0.88157
991.42974	0.88326
989.37284	0.88438
987.31593	0.88579
985.25902	0.88778
983.20211	0.88995
981.14520	0.89203
979.08830	0.89449
977.03139	0.89738
974.97448	0.90017
972.91757	0.90295
970.86066	0.90611
968.80375	0.90921
966.74685	0.91164
964.68994	0.91349
962.63303	0.91477
960.57612	0.91556
958.51921	0.91599
956.46231	0.91618
954.40540	0.91653
952.34849	0.91721
950.29158	0.91805
948.23467	0.91873
946.17776	0.91963
944.12086	0.92140
942.06395	0.92345
940.00704	0.92483
937.95013	0.92554
935.89322	0.92597
933.83632	0.92626
931.77941	0.92638
929.72250	0.92637
927.66559	0.92628
925.60868	0.92621
923.55177	0.92616
921.49487	0.92562
919.43796	0.92455
917.38105	0.92372
915.32414	0.92301
913.26723	0.92170
911.21033	0.91969
909.15342	0.91716
907.09651	0.91428
905.03960	0.91139
902.98269	0.90893
900.92578	0.90684
898.86888	0.90533
896.81197	0.90552
894.75506	0.90744
892.69815	0.91023
890.64124	0.91348
888.58434	0.91625
886.52743	0.91806
884.47052	0.91981
882.41361	0.92120
880.35670	0.92130
878.29979	0.92104
876.24289	0.92097
874.18598	0.92091
872.12907	0.92166
870.07216	0.92351
868.01525	0.92602
865.95835	0.92903
863.90144	0.93198
861.84453	0.93398
859.78762	0.93513
857.73071	0.93598
855.67380	0.93691
853.61690	0.93829
851.55999	0.93963
849.50308	0.93992
847.44617	0.93928
845.38926	0.93882
843.33236	0.93866
841.27545	0.93809
839.21854	0.93745
837.16163	0.93714
835.10472	0.93701
833.04781	0.93752
830.99091	0.93908
828.93400	0.94112
826.87709	0.94294
824.82018	0.94422
822.76327	0.94495
820.70637	0.94557
818.64946	0.94626
816.59255	0.94665
814.53564	0.94740
812.47873	0.94854
810.42182	0.94875
808.36492	0.94831
806.30801	0.94831
804.25110	0.94876
802.19419	0.94951
800.13728	0.95031
798.08038	0.95092
796.02347	0.95146
793.96656	0.95206
791.90965	0.95273
789.85274	0.95321
787.79583	0.95340
785.73893	0.95326
783.68202	0.95298
781.62511	0.95295
779.56820	0.95337
777.51129	0.95384
775.45439	0.95376
773.39748	0.95408
771.34057	0.95493
769.28366	0.95505
767.22675	0.95478
765.16984	0.95511
763.11294	0.95573
761.05603	0.95574
758.99912	0.95530
756.94221	0.95536
754.88530	0.95576
752.82839	0.95594
750.77149	0.95586
748.71458	0.95564
746.65767	0.95579
744.60076	0.95632
742.54385	0.95669
740.48695	0.95698
738.43004	0.95734
736.37313	0.95770
734.31622	0.95783
732.25931	0.95720
730.20240	0.95604
728.14550	0.95560
726.08859	0.95599
724.03168	0.95600
721.97477	0.95535
719.91786	0.95487
717.86096	0.95500
715.80405	0.95555
713.74714	0.95585
711.69023	0.95535
709.63332	0.95445
707.57641	0.95373
705.51951	0.95288
703.46260	0.95142
701.40569	0.95002
699.34878	0.94971
697.29187	0.95040
695.23497	0.95063
693.17806	0.95002
691.12115	0.95005
689.06424	0.95096
687.00733	0.95184
684.95042	0.95225
682.89352	0.95197
680.83661	0.95165
678.77970	0.95205
676.72279	0.95250
674.66588	0.95249
672.60898	0.95249
670.55207	0.95298
668.49516	0.95326
666.43825	0.95197
664.38134	0.95110
662.32443	0.95131
660.26753	0.95114
658.21062	0.95024
656.15371	0.94946
654.09680	0.94893
652.03989	0.94868
649.98299	0.94834
647.92608	0.94749
645.86917	0.94643
643.81226	0.94564
641.75535	0.94536
639.69844	0.94567
637.64154	0.94649
635.58463	0.94684
633.52772	0.94596
631.47081	0.94475
629.41390	0.94388
627.35700	0.94255
625.30009	0.94063
623.24318	0.93932
621.18627	0.93886
619.12936	0.93783
617.07245	0.93609
615.01555	0.93517
612.95864	0.93392
610.90173	0.93092
608.84482	0.92640
606.78791	0.92066
604.73101	0.91563
602.67410	0.91267
600.61719	0.91127
598.56028	0.91188
596.50337	0.91437
594.44646	0.91685
592.38956	0.91861
590.33265	0.92097
588.27574	0.92474
586.21883	0.92918
584.16192	0.93278
582.10502	0.93467
580.04811	0.93654
577.99120	0.93986
575.93429	0.94258
573.87738	0.94304
571.82047	0.94280
569.76357	0.94283
567.70666	0.94234
565.64975	0.94145
563.59284	0.94012
561.53593	0.93837
559.47903	0.93731
557.42212	0.93675
555.36521	0.93630
553.30830	0.93594
551.25139	0.93633
549.19448	0.93864
547.13758	0.94128
545.08067	0.94212
543.02376	0.94271
540.96685	0.94431
538.90994	0.94533
536.85304	0.94524
534.79613	0.94478
532.73922	0.94424
530.68231	0.94376
528.62540	0.94371
526.56849	0.94399
524.51159	0.94438
522.45468	0.94481
520.39777	0.94524
518.34086	0.94630
516.28395	0.94733
514.22705	0.94655
512.17014	0.94421
510.11323	0.94271
508.05632	0.94353
505.99941	0.94528
503.94250	0.94614
501.88560	0.94581
499.82869	0.94500
497.77178	0.94355
495.71487	0.94149
493.65796	0.94029
491.60106	0.94030
489.54415	0.93968
487.48724	0.93834
485.43033	0.93744
483.37342	0.93592
481.31651	0.93399
479.25961	0.93373
477.20270	0.93521
475.14579	0.93713
473.08888	0.93901
471.03197	0.93953
468.97507	0.93778
466.91816	0.93653
464.86125	0.93769
462.80434	0.93851
460.74743	0.93672
458.69052	0.93395
456.63362	0.93144
454.57671	0.92973
452.51980	0.93007
450.46289	0.93237
448.40598	0.93381
446.34908	0.93211
444.29217	0.93081
442.23526	0.93307
440.17835	0.93408
438.12144	0.93254
436.06453	0.93362
434.00763	0.93593
431.95072	0.93448
429.89381	0.93202
427.83690	0.93321
425.77999	0.93717
423.72309	0.94017
421.66618	0.94179
419.60927	0.94100
417.55236	0.93670
415.49545	0.93594
413.43854	0.93737
411.38164	0.93746
409.32473	0.93796
407.26782	0.93755
405.21091	0.93339
403.15400	0.92760
401.09710	0.92404
399.04019	0.92748
