3996.57260	0.98672
3994.51569	0.98664
3992.45878	0.98675
3990.40188	0.98681
3988.34497	0.98702
3986.28806	0.98719
3984.23115	0.98700
3982.17424	0.98700
3980.11733	0.98702
3978.06043	0.98633
3976.00352	0.98540
3973.94661	0.98502
3971.88970	0.98537
3969.83279	0.98599
3967.77589	0.98631
3965.71898	0.98618
3963.66207	0.98601
3961.60516	0.98631
3959.54825	0.98667
3957.49134	0.98680
3955.43444	0.98700
3953.37753	0.98695
3951.32062	0.98637
3949.26371	0.98608
3947.20680	0.98662
3945.14990	0.98728
3943.09299	0.98670
3941.03608	0.98539
3938.97917	0.98519
3936.92226	0.98582
3934.86535	0.98627
3932.80845	0.98668
3930.75154	0.98725
3928.69463	0.98754
3926.63772	0.98765
3924.58081	0.98772
3922.52391	0.98745
3920.46700	0.98706
3918.41009	0.98689
3916.35318	0.98658
3914.29627	0.98608
3912.23936	0.98593
3910.18246	0.98637
3908.12555	0.98720
3906.06864	0.98776
3904.01173	0.98742
3901.95482	0.98685
3899.89792	0.98663
3897.84101	0.98667
3895.78410	0.98681
3893.72719	0.98674
3891.67028	0.98657
3889.61337	0.98655
3887.55647	0.98654
3885.49956	0.98657
3883.44265	0.98681
3881.38574	0.98715
3879.32883	0.98758
3877.27193	0.98798
3875.21502	0.98768
3873.15811	0.98643
3871.10120	0.98545
3869.04429	0.98560
3866.98738	0.98650
3864.93048	0.98747
3862.87357	0.98768
3860.81666	0.98706
3858.75975	0.98678
3856.70284	0.98737
3854.64594	0.98773
3852.58903	0.98704
3850.53212	0.98688
3848.47521	0.98730
3846.41830	0.98746
3844.36139	0.98724
3842.30449	0.98696
3840.24758	0.98652
3838.19067	0.98637
3836.13376	0.98673
3834.07685	0.98682
3832.01995	0.98667
3829.96304	0.98654
3827.90613	0.98643
3825.84922	0.98644
3823.79231	0.98634
3821.73540	0.98602
3819.67850	0.98602
3817.62159	0.98619
3815.56468	0.98613
3813.50777	0.98630
3811.45086	0.98690
3809.39396	0.98774
3807.33705	0.98819
3805.28014	0.98778
3803.22323	0.98705
3801.16632	0.98632
3799.10941	0.98618
3797.05251	0.98630
3794.99560	0.98611
3792.93869	0.98648
3790.88178	0.98718
3788.82487	0.98719
3786.76796	0.98676
3784.71106	0.98652
3782.65415	0.98676
3780.59724	0.98711
3778.54033	0.98696
3776.48342	0.98703
3774.42652	0.98739
3772.36961	0.98718
3770.31270	0.98707
3768.25579	0.98781
3766.19888	0.98819
3764.14197	0.98811
3762.08507	0.98828
3760.02816	0.98815
3757.97125	0.98773
3755.91434	0.98747
3753.85743	0.98690
3751.80053	0.98653
3749.74362	0.98657
3747.68671	0.98663
3745.62980	0.98753
3743.57289	0.98814
3741.51598	0.98743
3739.45908	0.98693
3737.40217	0.98702
3735.34526	0.98746
3733.28835	0.98763
3731.23144	0.98722
3729.17454	0.98689
3727.11763	0.98643
3725.06072	0.98595
3723.00381	0.98648
3720.94690	0.98712
3718.88999	0.98703
3716.83309	0.98718
3714.77618	0.98759
3712.71927	0.98735
3710.66236	0.98726
3708.60545	0.98780
3706.54855	0.98774
3704.49164	0.98771
3702.43473	0.98802
3700.37782	0.98759
3698.32091	0.98708
3696.26400	0.98739
3694.20710	0.98743
3692.15019	0.98694
3690.09328	0.98686
3688.03637	0.98706
3685.97946	0.98702
3683.92256	0.98727
3681.86565	0.98786
3679.80874	0.98774
3677.75183	0.98652
3675.69492	0.98562
3673.63801	0.98628
3671.58111	0.98732
3669.52420	0.98760
3667.46729	0.98758
3665.41038	0.98751
3663.35347	0.98700
3661.29657	0.98667
3659.23966	0.98633
3657.18275	0.98597
3655.12584	0.98597
3653.06893	0.98546
3651.01202	0.98493
3648.95512	0.98496
3646.89821	0.98494
3644.84130	0.98545
3642.78439	0.98607
3640.72748	0.98580
3638.67058	0.98507
3636.61367	0.98472
3634.55676	0.98460
3632.49985	0.98406
3630.44294	0.98322
3628.38603	0.98288
3626.32913	0.98294
3624.27222	0.98299
3622.21531	0.98322
3620.15840	0.98339
3618.10149	0.98290
3616.04459	0.98226
3613.98768	0.98232
3611.93077	0.98230
3609.87386	0.98120
3607.81695	0.97986
3605.76004	0.97948
3603.70314	0.97947
3601.64623	0.97918
3599.58932	0.97888
3597.53241	0.97846
3595.47550	0.97802
3593.41860	0.97781
3591.36169	0.97733
3589.30478	0.97634
3587.24787	0.97557
3585.19096	0.97542
3583.13405	0.97501
3581.07715	0.97416
3579.02024	0.97332
3576.96333	0.97233
3574.90642	0.97107
3572.84951	0.97012
3570.79261	0.96990
3568.73570	0.96994
3566.67879	0.96931
3564.62188	0.96807
3562.56497	0.96705
3560.50806	0.96613
3558.45116	0.96503
3556.39425	0.96394
3554.33734	0.96313
3552.28043	0.96282
3550.22352	0.96270
3548.16662	0.96211
3546.10971	0.96110
3544.05280	0.96014
3541.99589	0.95916
3539.93898	0.95782
3537.88207	0.95623
3535.82517	0.95493
3533.76826	0.95424
3531.71135	0.95381
3529.65444	0.95331
3527.59753	0.95276
3525.54063	0.95220
3523.48372	0.95144
3521.42681	0.95022
3519.36990	0.94899
3517.31299	0.94839
3515.25608	0.94793
3513.19918	0.94683
3511.14227	0.94569
3509.08536	0.94510
3507.02845	0.94465
3504.97154	0.94400
3502.91464	0.94308
3500.85773	0.94242
3498.80082	0.94210
3496.74391	0.94147
3494.68700	0.94057
3492.63009	0.94005
3490.57319	0.93993
3488.51628	0.93978
3486.45937	0.93958
3484.40246	0.93917
3482.34555	0.93849
3480.28865	0.93806
3478.23174	0.93797
3476.17483	0.93782
3474.11792	0.93751
3472.06101	0.93743
3470.00410	0.93760
3467.94720	0.93731
3465.89029	0.93662
3463.83338	0.93639
3461.77647	0.93686
3459.71956	0.93734
3457.66266	0.93756
3455.60575	0.93781
3453.54884	0.93785
3451.49193	0.93794
3449.43502	0.93815
3447.37811	0.93790
3445.32121	0.93755
3443.26430	0.93757
3441.20739	0.93789
3439.15048	0.93829
3437.09357	0.93867
3435.03667	0.93908
3432.97976	0.93947
3430.92285	0.94035
3428.86594	0.94159
3426.80903	0.94215
3424.75212	0.94175
3422.69522	0.94098
3420.63831	0.94061
3418.58140	0.94095
3416.52449	0.94179
3414.46758	0.94257
3412.41068	0.94277
3410.35377	0.94256
3408.29686	0.94272
3406.23995	0.94325
3404.18304	0.94363
3402.12613	0.94396
3400.06923	0.94447
3398.01232	0.94503
3395.95541	0.94569
3393.89850	0.94620
3391.84159	0.94634
3389.78469	0.94662
3387.72778	0.94725
3385.67087	0.94790
3383.61396	0.94833
3381.55705	0.94848
3379.50014	0.94842
3377.44324	0.94833
3375.38633	0.94856
3373.32942	0.94909
3371.27251	0.94947
3369.21560	0.94991
3367.15870	0.95044
3365.10179	0.95062
3363.04488	0.95072
3360.98797	0.95131
3358.93106	0.95195
3356.87415	0.95223
3354.81725	0.95275
3352.76034	0.95341
3350.70343	0.95358
3348.64652	0.95358
3346.58961	0.95390
3344.53271	0.95432
3342.47580	0.95449
3340.41889	0.95492
3338.36198	0.95597
3336.30507	0.95679
3334.24816	0.95714
3332.19126	0.95756
3330.13435	0.95776
3328.07744	0.95762
3326.02053	0.95770
3323.96362	0.95833
3321.90672	0.95926
3319.84981	0.95992
3317.79290	0.95997
3315.73599	0.95956
3313.67908	0.95929
3311.62217	0.95964
3309.56527	0.96030
3307.50836	0.96082
3305.45145	0.96126
3303.39454	0.96199
3301.33763	0.96281
3299.28073	0.96305
3297.22382	0.96282
3295.16691	0.96304
3293.11000	0.96386
3291.05309	0.96463
3288.99618	0.96502
3286.93928	0.96517
3284.88237	0.96523
3282.82546	0.96557
3280.76855	0.96615
3278.71164	0.96634
3276.65474	0.96622
3274.59783	0.96639
3272.54092	0.96685
3270.48401	0.96724
3268.42710	0.96753
3266.37019	0.96769
3264.31329	0.96772
3262.25638	0.96790
3260.19947	0.96795
3258.14256	0.96770
3256.08565	0.96790
3254.02875	0.96871
3251.97184	0.96950
3249.91493	0.96992
3247.85802	0.96987
3245.80111	0.96988
3243.74420	0.97040
3241.68730	0.97072
3239.63039	0.97083
3237.57348	0.97136
3235.51657	0.97177
3233.45966	0.97153
3231.40276	0.97109
3229.34585	0.97112
3227.28894	0.97176
3225.23203	0.97269
3223.17512	0.97324
3221.11821	0.97346
3219.06131	0.97378
3217.00440	0.97392
3214.94749	0.97347
3212.89058	0.97304
3210.83367	0.97375
3208.77677	0.97504
3206.71986	0.97541
3204.66295	0.97499
3202.60604	0.97470
3200.54913	0.97468
3198.49222	0.97484
3196.43532	0.97527
3194.37841	0.97551
3192.32150	0.97534
3190.26459	0.97544
3188.20768	0.97583
3186.15078	0.97611
3184.09387	0.97639
3182.03696	0.97648
3179.98005	0.97610
3177.92314	0.97589
3175.86623	0.97648
3173.80933	0.97753
3171.75242	0.97818
3169.69551	0.97802
3167.63860	0.97766
3165.58169	0.97768
3163.52479	0.97794
3161.46788	0.97805
3159.41097	0.97801
3157.35406	0.97810
3155.29715	0.97834
3153.24024	0.97869
3151.18334	0.97894
3149.12643	0.97883
3147.06952	0.97848
3145.01261	0.97832
3142.95570	0.97840
3140.89880	0.97836
3138.84189	0.97842
3136.78498	0.97877
3134.72807	0.97885
3132.67116	0.97894
3130.61425	0.97968
3128.55735	0.98004
3126.50044	0.97946
3124.44353	0.97913
3122.38662	0.97929
3120.32971	0.97929
3118.27281	0.97926
3116.21590	0.97945
3114.15899	0.97989
3112.10208	0.98061
3110.04517	0.98128
3107.98826	0.98153
3105.93136	0.98134
3103.87445	0.98082
3101.81754	0.98028
3099.76063	0.98020
3097.70372	0.98056
3095.64682	0.98096
3093.58991	0.98101
3091.53300	0.98065
3089.47609	0.98039
3087.41918	0.98081
3085.36227	0.98131
3083.30537	0.98111
3081.24846	0.98086
3079.19155	0.98113
3077.13464	0.98158
3075.07773	0.98154
3073.02083	0.98095
3070.96392	0.98054
3068.90701	0.98054
3066.85010	0.98076
3064.79319	0.98124
3062.73628	0.98187
3060.67938	0.98218
3058.62247	0.98180
3056.56556	0.98111
3054.50865	0.98088
3052.45174	0.98091
3050.39484	0.98068
3048.33793	0.98064
3046.28102	0.98095
3044.22411	0.98123
3042.16720	0.98153
3040.11029	0.98158
3038.05339	0.98110
3035.99648	0.98071
3033.93957	0.98082
3031.88266	0.98100
3029.82575	0.98088
3027.76885	0.98078
3025.71194	0.98108
3023.65503	0.98143
3021.59812	0.98135
3019.54121	0.98113
3017.48430	0.98085
3015.42740	0.98014
3013.37049	0.97956
3011.31358	0.97963
3009.25667	0.97987
3007.19976	0.97995
3005.14286	0.97996
3003.08595	0.97994
3001.02904	0.97995
2998.97213	0.97969
2996.91522	0.97912
2994.85831	0.97854
2992.80141	0.97795
2990.74450	0.97758
2988.68759	0.97768
2986.63068	0.97781
2984.57377	0.97766
2982.51687	0.97741
2980.45996	0.97709
2978.40305	0.97681
2976.34614	0.97654
2974.28923	0.97594
2972.23232	0.97508
2970.17542	0.97409
2968.11851	0.97294
2966.06160	0.97208
2964.00469	0.97191
2961.94778	0.97184
2959.89088	0.97106
2957.83397	0.96979
2955.77706	0.96889
2953.72015	0.96878
2951.66324	0.96895
2949.60633	0.96857
2947.54943	0.96758
2945.49252	0.96672
2943.43561	0.96633
2941.37870	0.96627
2939.32179	0.96655
2937.26489	0.96674
2935.20798	0.96655
2933.15107	0.96629
2931.09416	0.96605
2929.03725	0.96584
2926.98034	0.96577
2924.92344	0.96589
2922.86653	0.96603
2920.80962	0.96585
2918.75271	0.96548
2916.69580	0.96543
2914.63890	0.96577
2912.58199	0.96603
2910.52508	0.96585
2908.46817	0.96556
2906.41126	0.96546
2904.35435	0.96526
2902.29745	0.96484
2900.24054	0.96438
2898.18363	0.96398
2896.12672	0.96382
2894.06981	0.96384
2892.01291	0.96349
2889.95600	0.96310
2887.89909	0.96344
2885.84218	0.96398
2883.78527	0.96392
2881.72836	0.96348
2879.67146	0.96361
2877.61455	0.96424
2875.55764	0.96482
2873.50073	0.96532
2871.44382	0.96581
2869.38692	0.96653
2867.33001	0.96730
2865.27310	0.96796
2863.21619	0.96891
2861.15928	0.97012
2859.10237	0.97120
2857.04547	0.97183
2854.98856	0.97216
2852.93165	0.97282
2850.87474	0.97396
2848.81783	0.97491
2846.76093	0.97546
2844.70402	0.97589
2842.64711	0.97624
2840.59020	0.97658
2838.53329	0.97717
2836.47638	0.97787
2834.41948	0.97829
2832.36257	0.97839
2830.30566	0.97832
2828.24875	0.97854
2826.19184	0.97928
2824.13494	0.97978
2822.07803	0.97960
2820.02112	0.97918
2817.96421	0.97918
2815.90730	0.97960
2813.85039	0.97983
2811.79349	0.97990
2809.73658	0.97997
2807.67967	0.98003
2805.62276	0.98009
2803.56585	0.97994
2801.50895	0.97975
2799.45204	0.97987
2797.39513	0.98025
2795.33822	0.98063
2793.28131	0.98091
2791.22440	0.98102
2789.16750	0.98098
2787.11059	0.98114
2785.05368	0.98152
2782.99677	0.98171
2780.93986	0.98162
2778.88296	0.98130
2776.82605	0.98102
2774.76914	0.98105
2772.71223	0.98111
2770.65532	0.98106
2768.59841	0.98119
2766.54151	0.98141
2764.48460	0.98164
2762.42769	0.98193
2760.37078	0.98185
2758.31387	0.98131
2756.25697	0.98106
2754.20006	0.98134
2752.14315	0.98171
2750.08624	0.98208
2748.02933	0.98241
2745.97242	0.98247
2743.91552	0.98261
2741.85861	0.98296
2739.80170	0.98294
2737.74479	0.98259
2735.68788	0.98218
2733.63098	0.98187
2731.57407	0.98200
2729.51716	0.98225
2727.46025	0.98227
2725.40334	0.98220
2723.34643	0.98210
2721.28953	0.98226
2719.23262	0.98246
2717.17571	0.98234
2715.11880	0.98236
2713.06189	0.98258
2711.00499	0.98272
2708.94808	0.98281
2706.89117	0.98291
2704.83426	0.98314
2702.77735	0.98336
2700.72044	0.98346
2698.66354	0.98346
2696.60663	0.98317
2694.54972	0.98267
2692.49281	0.98255
2690.43590	0.98267
2688.37900	0.98258
2686.32209	0.98244
2684.26518	0.98264
2682.20827	0.98294
2680.15136	0.98295
2678.09445	0.98282
2676.03755	0.98284
2673.98064	0.98306
2671.92373	0.98320
2669.86682	0.98306
2667.80991	0.98314
2665.75301	0.98355
2663.69610	0.98363
2661.63919	0.98345
2659.58228	0.98350
2657.52537	0.98347
2655.46846	0.98349
2653.41156	0.98377
2651.35465	0.98382
2649.29774	0.98358
2647.24083	0.98352
2645.18392	0.98358
2643.12702	0.98359
2641.07011	0.98359
2639.01320	0.98351
2636.95629	0.98328
2634.89938	0.98294
2632.84247	0.98284
2630.78557	0.98305
2628.72866	0.98344
2626.67175	0.98407
2624.61484	0.98455
2622.55793	0.98426
2620.50103	0.98354
2618.44412	0.98331
2616.38721	0.98361
2614.33030	0.98414
2612.27339	0.98458
2610.21648	0.98464
2608.15958	0.98454
2606.10267	0.98461
2604.04576	0.98477
2601.98885	0.98488
2599.93194	0.98493
2597.87504	0.98505
2595.81813	0.98515
2593.76122	0.98521
2591.70431	0.98549
2589.64740	0.98557
2587.59049	0.98512
2585.53359	0.98492
2583.47668	0.98513
2581.41977	0.98518
2579.36286	0.98506
2577.30595	0.98485
2575.24905	0.98462
2573.19214	0.98491
2571.13523	0.98541
2569.07832	0.98558
2567.02141	0.98570
2564.96450	0.98584
2562.90760	0.98585
2560.85069	0.98582
2558.79378	0.98601
2556.73687	0.98644
2554.67996	0.98672
2552.62306	0.98660
2550.56615	0.98627
2548.50924	0.98599
2546.45233	0.98604
2544.39542	0.98653
2542.33851	0.98672
2540.28161	0.98636
2538.22470	0.98612
2536.16779	0.98628
2534.11088	0.98663
2532.05397	0.98667
2529.99707	0.98644
2527.94016	0.98640
2525.88325	0.98645
2523.82634	0.98640
2521.76943	0.98635
2519.71252	0.98642
2517.65562	0.98644
2515.59871	0.98624
2513.54180	0.98604
2511.48489	0.98592
2509.42798	0.98610
2507.37108	0.98684
2505.31417	0.98743
2503.25726	0.98736
2501.20035	0.98718
2499.14344	0.98731
2497.08653	0.98714
2495.02963	0.98626
2492.97272	0.98579
2490.91581	0.98630
2488.85890	0.98648
2486.80199	0.98627
2484.74509	0.98636
2482.68818	0.98612
2480.63127	0.98598
2478.57436	0.98661
2476.51745	0.98693
2474.46054	0.98644
2472.40364	0.98609
2470.34673	0.98633
2468.28982	0.98661
2466.23291	0.98679
2464.17600	0.98712
2462.11910	0.98745
2460.06219	0.98745
2458.00528	0.98743
2455.94837	0.98752
2453.89146	0.98731
2451.83455	0.98705
2449.77765	0.98716
2447.72074	0.98760
2445.66383	0.98796
2443.60692	0.98782
2441.55001	0.98746
2439.49311	0.98738
2437.43620	0.98748
2435.37929	0.98771
2433.32238	0.98793
2431.26547	0.98801
2429.20856	0.98792
2427.15166	0.98744
2425.09475	0.98694
2423.03784	0.98674
2420.98093	0.98647
2418.92402	0.98600
2416.86712	0.98560
2414.81021	0.98553
2412.75330	0.98570
2410.69639	0.98610
2408.63948	0.98708
2406.58257	0.98797
2404.52567	0.98784
2402.46876	0.98714
2400.41185	0.98677
2398.35494	0.98671
2396.29803	0.98682
2394.24113	0.98748
2392.18422	0.98802
2390.12731	0.98765
2388.07040	0.98703
2386.01349	0.98697
2383.95658	0.98732
2381.89968	0.98754
2379.84277	0.98748
2377.78586	0.98726
2375.72895	0.98722
2373.67204	0.98767
2371.61514	0.98829
2369.55823	0.98851
2367.50132	0.98818
2365.44441	0.98812
2363.38750	0.98834
2361.33059	0.98823
2359.27369	0.98813
2357.21678	0.98795
2355.15987	0.98798
2353.10296	0.98781
2351.04605	0.98688
2348.98915	0.98618
2346.93224	0.98611
2344.87533	0.98655
2342.81842	0.98724
2340.76151	0.98743
2338.70460	0.98713
2336.64770	0.98699
2334.59079	0.98723
2332.53388	0.98796
2330.47697	0.98850
2328.42006	0.98765
2326.36316	0.98599
2324.30625	0.98504
2322.24934	0.98579
2320.19243	0.98746
2318.13552	0.98813
2316.07861	0.98757
2314.02171	0.98646
2311.96480	0.98566
2309.90789	0.98574
2307.85098	0.98637
2305.79407	0.98704
2303.73717	0.98713
2301.68026	0.98674
2299.62335	0.98686
2297.56644	0.98731
2295.50953	0.98726
2293.45262	0.98680
2291.39572	0.98646
2289.33881	0.98651
2287.28190	0.98685
2285.22499	0.98730
2283.16808	0.98737
2281.11117	0.98711
2279.05427	0.98682
2276.99736	0.98650
2274.94045	0.98685
2272.88354	0.98757
2270.82663	0.98710
2268.76973	0.98608
2266.71282	0.98679
2264.65591	0.98867
2262.59900	0.98932
2260.54209	0.98866
2258.48518	0.98798
2256.42828	0.98793
2254.37137	0.98841
2252.31446	0.98887
2250.25755	0.98904
2248.20064	0.98913
2246.14374	0.98872
2244.08683	0.98719
2242.02992	0.98621
2239.97301	0.98744
2237.91610	0.98879
2235.85919	0.98895
2233.80229	0.98877
2231.74538	0.98817
2229.68847	0.98747
2227.63156	0.98671
2225.57465	0.98560
2223.51775	0.98575
2221.46084	0.98821
2219.40393	0.99098
2217.34702	0.99186
2215.29011	0.99024
2213.23320	0.98779
2211.17630	0.98732
2209.11939	0.98853
2207.06248	0.98959
2205.00557	0.98999
2202.94866	0.98936
2200.89176	0.98775
2198.83485	0.98695
2196.77794	0.98888
2194.72103	0.99184
2192.66412	0.99155
2190.60721	0.98881
2188.55031	0.98789
2186.49340	0.98808
2184.43649	0.98692
2182.37958	0.98594
2180.32267	0.98596
2178.26577	0.98611
2176.20886	0.98689
2174.15195	0.98743
2172.09504	0.98728
2170.03813	0.98774
2167.98122	0.98759
2165.92432	0.98570
2163.86741	0.98564
2161.81050	0.98905
2159.75359	0.99230
2157.69668	0.99315
2155.63978	0.99226
2153.58287	0.99040
2151.52596	0.98853
2149.46905	0.98821
2147.41214	0.98867
2145.35523	0.98854
2143.29833	0.98881
2141.24142	0.98949
2139.18451	0.98986
2137.12760	0.98995
2135.07069	0.98982
2133.01379	0.98943
2130.95688	0.98853
2128.89997	0.98753
2126.84306	0.98713
2124.78615	0.98703
2122.72924	0.98715
2120.67234	0.98779
2118.61543	0.98808
2116.55852	0.98758
2114.50161	0.98707
2112.44470	0.98688
2110.38780	0.98682
2108.33089	0.98711
2106.27398	0.98783
2104.21707	0.98891
2102.16016	0.98964
2100.10325	0.98919
2098.04635	0.98835
2095.98944	0.98819
2093.93253	0.98803
2091.87562	0.98728
2089.81871	0.98712
2087.76181	0.98776
2085.70490	0.98832
2083.64799	0.98921
2081.59108	0.98976
2079.53417	0.98901
2077.47726	0.98832
2075.42036	0.98882
2073.36345	0.98950
2071.30654	0.98887
2069.24963	0.98780
2067.19272	0.98809
2065.13582	0.98908
2063.07891	0.98932
2061.02200	0.98912
2058.96509	0.98912
2056.90818	0.98865
2054.85127	0.98763
2052.79437	0.98709
2050.73746	0.98793
2048.68055	0.98957
2046.62364	0.99053
2044.56673	0.99110
2042.50983	0.98989
2040.45292	0.98622
2038.39601	0.98478
2036.33910	0.98683
2034.28219	0.98818
2032.22528	0.98835
2030.16838	0.99016
2028.11147	0.99331
2026.05456	0.99553
2023.99765	0.99487
2021.94074	0.99206
2019.88384	0.99020
2017.82693	0.98911
2015.77002	0.98843
2013.71311	0.99005
2011.65620	0.99167
2009.59929	0.99173
2007.54239	0.99246
2005.48548	0.99387
2003.42857	0.99416
2001.37166	0.99238
1999.31475	0.98979
1997.25785	0.98853
1995.20094	0.98867
1993.14403	0.98981
1991.08712	0.99085
1989.03021	0.98999
1986.97330	0.98858
1984.91640	0.98857
1982.85949	0.98886
1980.80258	0.98882
1978.74567	0.98944
1976.68876	0.99087
1974.63186	0.99252
1972.57495	0.99381
1970.51804	0.99325
1968.46113	0.99063
1966.40422	0.98933
1964.34731	0.99076
1962.29041	0.99226
1960.23350	0.99289
1958.17659	0.99239
1956.11968	0.99079
1954.06277	0.99029
1952.00587	0.99076
1949.94896	0.98990
1947.89205	0.98835
1945.83514	0.98791
1943.77823	0.98857
1941.72132	0.98880
1939.66442	0.98796
1937.60751	0.98774
1935.55060	0.98893
1933.49369	0.99060
1931.43678	0.99146
1929.37988	0.99127
1927.32297	0.99057
1925.26606	0.98977
1923.20915	0.98900
1921.15224	0.98863
1919.09533	0.98889
1917.03843	0.98917
1914.98152	0.98926
1912.92461	0.98941
1910.86770	0.98976
1908.81079	0.99007
1906.75389	0.98980
1904.69698	0.98944
1902.64007	0.98962
1900.58316	0.99005
1898.52625	0.99035
1896.46934	0.99051
1894.41244	0.99079
1892.35553	0.99101
1890.29862	0.99053
1888.24171	0.98975
1886.18480	0.98969
1884.12790	0.99008
1882.07099	0.98992
1880.01408	0.98952
1877.95717	0.98939
1875.90026	0.98943
1873.84335	0.98966
1871.78645	0.99002
1869.72954	0.99023
1867.67263	0.99000
1865.61572	0.98935
1863.55881	0.98903
1861.50191	0.98958
1859.44500	0.99006
1857.38809	0.98981
1855.33118	0.98946
1853.27427	0.98961
1851.21736	0.98999
1849.16046	0.99007
1847.10355	0.98956
1845.04664	0.98885
1842.98973	0.98869
1840.93282	0.98853
1838.87592	0.98822
1836.81901	0.98807
1834.76210	0.98797
1832.70519	0.98783
1830.64828	0.98787
1828.59137	0.98798
1826.53447	0.98774
1824.47756	0.98728
1822.42065	0.98721
1820.36374	0.98742
1818.30683	0.98759
1816.24993	0.98774
1814.19302	0.98768
1812.13611	0.98749
1810.07920	0.98697
1808.02229	0.98627
1805.96538	0.98581
1803.90848	0.98526
1801.85157	0.98448
1799.79466	0.98423
1797.73775	0.98428
1795.68084	0.98385
1793.62394	0.98310
1791.56703	0.98226
1789.51012	0.98154
1787.45321	0.98074
1785.39630	0.97958
1783.33939	0.97797
1781.28249	0.97614
1779.22558	0.97421
1777.16867	0.97199
1775.11176	0.96910
1773.05485	0.96472
1770.99795	0.95825
1768.94104	0.94996
1766.88413	0.94001
1764.82722	0.92907
1762.77031	0.91538
1760.71340	0.89811
1758.65650	0.88100
1756.59959	0.86356
1754.54268	0.84761
1752.48577	0.83371
1750.42886	0.81932
1748.37196	0.80683
1746.31505	0.79774
1744.25814	0.79058
1742.20123	0.78512
1740.14432	0.78125
1738.08741	0.77914
1736.03051	0.77900
1733.97360	0.78127
1731.91669	0.78560
1729.85978	0.79052
1727.80287	0.79648
1725.74597	0.80373
1723.68906	0.81287
1721.63215	0.82261
1719.57524	0.83283
1717.51833	0.84691
1715.46142	0.86318
1713.40452	0.87685
1711.34761	0.88863
1709.29070	0.89943
1707.23379	0.91002
1705.17688	0.92038
1703.11998	0.92825
1701.06307	0.93499
1699.00616	0.94214
1696.94925	0.94747
1694.89234	0.95185
1692.83543	0.95507
1690.77853	0.95746
1688.72162	0.95974
1686.66471	0.96162
1684.60780	0.96343
1682.55089	0.96485
1680.49399	0.96586
1678.43708	0.96696
1676.38017	0.96783
1674.32326	0.96811
1672.26635	0.96823
1670.20944	0.96853
1668.15254	0.96896
1666.09563	0.96937
1664.03872	0.96956
1661.98181	0.96947
1659.92490	0.96915
1657.86800	0.96866
1655.81109	0.96785
1653.75418	0.96614
1651.69727	0.96419
1649.64036	0.96354
1647.58345	0.96354
1645.52655	0.96433
1643.46964	0.96552
1641.41273	0.96659
1639.35582	0.96748
1637.29891	0.96827
1635.24201	0.96940
1633.18510	0.97038
1631.12819	0.97073
1629.07128	0.97101
1627.01437	0.97154
1624.95746	0.97189
1622.90056	0.97203
1620.84365	0.97230
1618.78674	0.97260
1616.72983	0.97305
1614.67292	0.97370
1612.61602	0.97432
1610.55911	0.97481
1608.50220	0.97514
1606.44529	0.97548
1604.38838	0.97564
1602.33147	0.97538
1600.27457	0.97543
1598.21766	0.97599
1596.16075	0.97651
1594.10384	0.97678
1592.04693	0.97677
1589.99003	0.97669
1587.93312	0.97675
1585.87621	0.97689
1583.81930	0.97695
1581.76239	0.97682
1579.70548	0.97665
1577.64858	0.97660
1575.59167	0.97671
1573.53476	0.97687
1571.47785	0.97705
1569.42094	0.97734
1567.36404	0.97754
1565.30713	0.97754
1563.25022	0.97750
1561.19331	0.97724
1559.13640	0.97710
1557.07949	0.97800
1555.02259	0.97860
1552.96568	0.97879
1550.90877	0.97890
1548.85186	0.97891
1546.79495	0.97891
1544.73805	0.97909
1542.68114	0.97947
1540.62423	0.97943
1538.56732	0.97905
1536.51041	0.97899
1534.45350	0.97902
1532.39660	0.97943
1530.33969	0.97996
1528.28278	0.98013
1526.22587	0.98042
1524.16896	0.98079
1522.11206	0.98052
1520.05515	0.97995
1517.99824	0.97977
1515.94133	0.97974
1513.88442	0.97992
1511.82751	0.98014
1509.77061	0.97981
1507.71370	0.97911
1505.65679	0.97938
1503.59988	0.98004
1501.54297	0.98022
1499.48607	0.98006
1497.42916	0.97976
1495.37225	0.97955
1493.31534	0.97947
1491.25843	0.97923
1489.20152	0.97871
1487.14462	0.97822
1485.08771	0.97762
1483.03080	0.97682
1480.97389	0.97589
1478.91698	0.97487
1476.86008	0.97384
1474.80317	0.97275
1472.74626	0.97079
1470.68935	0.96810
1468.63244	0.96596
1466.57553	0.96399
1464.51863	0.96165
1462.46172	0.95954
1460.40481	0.95797
1458.34790	0.95617
1456.29099	0.95352
1454.23409	0.95122
1452.17718	0.94935
1450.12027	0.94741
1448.06336	0.94523
1446.00645	0.94306
1443.94954	0.94107
1441.89264	0.93899
1439.83573	0.93704
1437.77882	0.93516
1435.72191	0.93306
1433.66500	0.93170
1431.60810	0.93121
1429.55119	0.93126
1427.49428	0.93165
1425.43737	0.93237
1423.38046	0.93318
1421.32355	0.93369
1419.26665	0.93411
1417.20974	0.93488
1415.15283	0.93562
1413.09592	0.93586
1411.03901	0.93589
1408.98211	0.93608
1406.92520	0.93615
1404.86829	0.93590
1402.81138	0.93554
1400.75447	0.93503
1398.69756	0.93384
1396.64066	0.93141
1394.58375	0.92779
1392.52684	0.92360
1390.46993	0.91873
1388.41302	0.91202
1386.35612	0.90338
1384.29921	0.89418
1382.24230	0.88475
1380.18539	0.87490
1378.12848	0.86551
1376.07157	0.85756
1374.01467	0.85115
1371.95776	0.84723
1369.90085	0.84701
1367.84394	0.85064
1365.78703	0.85752
1363.73013	0.86774
1361.67322	0.88108
1359.61631	0.89402
1357.55940	0.90483
1355.50249	0.91380
1353.44558	0.92084
1351.38868	0.92602
1349.33177	0.92979
1347.27486	0.93230
1345.21795	0.93370
1343.16104	0.93459
1341.10414	0.93544
1339.04723	0.93616
1336.99032	0.93639
1334.93341	0.93623
1332.87650	0.93588
1330.81959	0.93507
1328.76269	0.93379
1326.70578	0.93239
1324.64887	0.93136
1322.59196	0.93084
1320.53505	0.93046
1318.47815	0.93010
1316.42124	0.93004
1314.36433	0.93025
1312.30742	0.93033
1310.25051	0.93008
1308.19360	0.92975
1306.13670	0.92957
1304.07979	0.92944
1302.02288	0.92925
1299.96597	0.92888
1297.90906	0.92798
1295.85216	0.92643
1293.79525	0.92429
1291.73834	0.92149
1289.68143	0.91810
1287.62452	0.91414
1285.56761	0.90973
1283.51071	0.90493
1281.45380	0.89948
1279.39689	0.89346
1277.33998	0.88691
1275.28307	0.87957
1273.22617	0.87138
1271.16926	0.86256
1269.11235	0.85340
1267.05544	0.84372
1264.99853	0.83337
1262.94162	0.82245
1260.88472	0.81086
1258.82781	0.79878
1256.77090	0.78637
1254.71399	0.77376
1252.65708	0.76139
1250.60018	0.74917
1248.54327	0.73691
1246.48636	0.72500
1244.42945	0.71357
1242.37254	0.70254
1240.31563	0.69239
1238.25873	0.68342
1236.20182	0.67551
1234.14491	0.66884
1232.08800	0.66409
1230.03109	0.66212
1227.97419	0.66357
1225.91728	0.66871
1223.86037	0.67797
1221.80346	0.69161
1219.74655	0.70909
1217.68964	0.72933
1215.63274	0.75098
1213.57583	0.77314
1211.51892	0.79498
1209.46201	0.81527
1207.40510	0.83333
1205.34820	0.84916
1203.29129	0.86312
1201.23438	0.87569
1199.17747	0.88669
1197.12056	0.89582
1195.06365	0.90331
1193.00675	0.90938
1190.94984	0.91396
1188.89293	0.91671
1186.83602	0.91735
1184.77911	0.91615
1182.72221	0.91359
1180.66530	0.90989
1178.60839	0.90514
1176.55148	0.89978
1174.49457	0.89402
1172.43766	0.88772
1170.38076	0.88104
1168.32385	0.87432
1166.26694	0.86835
1164.21003	0.86385
1162.15312	0.86080
1160.09622	0.85908
1158.03931	0.85915
1155.98240	0.86125
1153.92549	0.86469
1151.86858	0.86869
1149.81167	0.87267
1147.75477	0.87586
1145.69786	0.87777
1143.64095	0.87818
1141.58404	0.87691
1139.52713	0.87409
1137.47023	0.87005
1135.41332	0.86531
1133.35641	0.86024
1131.29950	0.85468
1129.24259	0.84892
1127.18568	0.84353
1125.12878	0.83870
1123.07187	0.83420
1121.01496	0.82991
1118.95805	0.82598
1116.90114	0.82243
1114.84424	0.81924
1112.78733	0.81644
1110.73042	0.81354
1108.67351	0.81010
1106.61660	0.80627
1104.55969	0.80216
1102.50279	0.79772
1100.44588	0.79278
1098.38897	0.78712
1096.33206	0.78075
1094.27515	0.77379
1092.21825	0.76624
1090.16134	0.75778
1088.10443	0.74831
1086.04752	0.73826
1083.99061	0.72791
1081.93370	0.71713
1079.87680	0.70596
1077.81989	0.69516
1075.76298	0.68541
1073.70607	0.67669
1071.64916	0.66874
1069.59226	0.66132
1067.53535	0.65446
1065.47844	0.64814
1063.42153	0.64214
1061.36462	0.63639
1059.30771	0.63091
1057.25081	0.62536
1055.19390	0.61932
1053.13699	0.61313
1051.08008	0.60742
1049.02317	0.60211
1046.96627	0.59689
1044.90936	0.59189
1042.85245	0.58733
1040.79554	0.58300
1038.73863	0.57888
1036.68172	0.57561
1034.62482	0.57376
1032.56791	0.57398
1030.51100	0.57728
1028.45409	0.58421
1026.39718	0.59432
1024.34028	0.60696
1022.28337	0.62166
1020.22646	0.63780
1018.16955	0.65485
1016.11264	0.67224
1014.05573	0.68893
1011.99883	0.70428
1009.94192	0.71858
1007.88501	0.73202
1005.82810	0.74415
1003.77119	0.75496
1001.71429	0.76507
999.65738	0.77471
997.60047	0.78396
995.54356	0.79297
993.48665	0.80157
991.42974	0.80965
989.37284	0.81766
987.31593	0.82569
985.25902	0.83300
983.20211	0.83977
981.14520	0.84660
979.08830	0.85339
977.03139	0.86027
974.97448	0.86729
972.91757	0.87430
970.86066	0.88105
968.80375	0.88715
966.74685	0.89242
964.68994	0.89722
962.63303	0.90196
960.57612	0.90613
958.51921	0.90952
956.46231	0.91240
954.40540	0.91459
952.34849	0.91626
950.29158	0.91785
948.23467	0.91917
946.17776	0.92013
944.12086	0.92115
942.06395	0.92218
940.00704	0.92293
937.95013	0.92347
935.89322	0.92351
933.83632	0.92305
931.77941	0.92283
929.72250	0.92275
927.66559	0.92233
925.60868	0.92162
923.55177	0.92067
921.49487	0.91931
919.43796	0.91739
917.38105	0.91520
915.32414	0.91309
913.26723	0.91105
911.21033	0.90900
909.15342	0.90690
907.09651	0.90521
905.03960	0.90447
902.98269	0.90483
900.92578	0.90600
898.86888	0.90735
896.81197	0.90884
894.75506	0.91059
892.69815	0.91258
890.64124	0.91525
888.58434	0.91847
886.52743	0.92171
884.47052	0.92529
882.41361	0.92946
880.35670	0.93365
878.29979	0.93754
876.24289	0.94112
874.18598	0.94419
872.12907	0.94674
870.07216	0.94902
868.01525	0.95130
865.95835	0.95346
863.90144	0.95532
861.84453	0.95672
859.78762	0.95721
857.73071	0.95734
855.67380	0.95737
853.61690	0.95678
851.55999	0.95619
849.50308	0.95586
847.44617	0.95516
845.38926	0.95480
843.33236	0.95526
841.27545	0.95541
839.21854	0.95529
837.16163	0.95579
835.10472	0.95649
833.04781	0.95709
830.99091	0.95796
828.93400	0.95897
826.87709	0.96015
824.82018	0.96143
822.76327	0.96203
820.70637	0.96191
818.64946	0.96206
816.59255	0.96292
814.53564	0.96348
812.47873	0.96328
810.42182	0.96318
808.36492	0.96279
806.30801	0.96188
804.25110	0.96181
802.19419	0.96302
800.13728	0.96394
798.08038	0.96387
796.02347	0.96378
793.96656	0.96387
791.90965	0.96359
789.85274	0.96298
787.79583	0.96241
785.73893	0.96225
783.68202	0.96243
781.62511	0.96216
779.56820	0.96169
777.51129	0.96192
775.45439	0.96206
773.39748	0.96192
771.34057	0.96224
769.28366	0.96229
767.22675	0.96211
765.16984	0.96257
763.11294	0.96260
761.05603	0.96162
758.99912	0.96120
756.94221	0.96167
754.88530	0.96167
752.82839	0.96099
750.77149	0.96030
748.71458	0.96012
746.65767	0.96029
744.60076	0.96024
742.54385	0.95971
740.48695	0.95899
738.43004	0.95886
736.37313	0.95836
734.31622	0.95664
732.25931	0.95553
730.20240	0.95500
728.14550	0.95368
726.08859	0.95225
724.03168	0.95112
721.97477	0.94984
719.91786	0.94877
717.86096	0.94803
715.80405	0.94716
713.74714	0.94599
711.69023	0.94484
709.63332	0.94408
707.57641	0.94367
705.51951	0.94323
703.46260	0.94221
701.40569	0.94084
699.34878	0.93972
697.29187	0.93832
695.23497	0.93612
693.17806	0.93400
691.12115	0.93249
689.06424	0.93098
687.00733	0.92977
684.95042	0.92903
682.89352	0.92760
680.83661	0.92577
678.77970	0.92431
676.72279	0.92251
674.66588	0.92090
672.60898	0.92040
670.55207	0.92016
668.49516	0.91982
666.43825	0.91975
664.38134	0.91907
662.32443	0.91776
660.26753	0.91620
658.21062	0.91431
656.15371	0.91218
654.09680	0.91065
652.03989	0.90987
649.98299	0.90859
647.92608	0.90640
645.86917	0.90418
643.81226	0.90225
641.75535	0.89976
639.69844	0.89657
637.64154	0.89399
635.58463	0.89210
633.52772	0.89046
631.47081	0.88920
629.41390	0.88793
627.35700	0.88659
625.30009	0.88515
623.24318	0.88287
621.18627	0.87961
619.12936	0.87628
617.07245	0.87336
615.01555	0.87043
612.95864	0.86681
610.90173	0.86225
608.84482	0.85717
606.78791	0.85257
604.73101	0.84972
602.67410	0.84940
600.61719	0.85131
598.56028	0.85489
596.50337	0.85977
594.44646	0.86517
592.38956	0.87019
590.33265	0.87396
588.27574	0.87604
586.21883	0.87733
584.16192	0.87832
582.10502	0.87849
580.04811	0.87807
577.99120	0.87764
575.93429	0.87728
573.87738	0.87672
571.82047	0.87545
569.76357	0.87362
567.70666	0.87201
565.64975	0.87108
563.59284	0.87104
561.53593	0.87111
559.47903	0.87105
557.42212	0.87166
555.36521	0.87235
553.30830	0.87298
551.25139	0.87419
549.19448	0.87532
547.13758	0.87588
545.08067	0.87600
543.02376	0.87542
540.96685	0.87499
538.90994	0.87568
536.85304	0.87577
534.79613	0.87382
532.73922	0.87212
530.68231	0.87250
528.62540	0.87303
526.56849	0.87263
524.51159	0.87266
522.45468	0.87294
520.39777	0.87255
518.34086	0.87132
516.28395	0.86949
514.22705	0.86863
512.17014	0.86917
510.11323	0.86809
508.05632	0.86411
505.99941	0.86064
503.94250	0.85942
501.88560	0.85913
499.82869	0.85937
497.77178	0.85938
495.71487	0.85791
493.65796	0.85580
491.60106	0.85450
489.54415	0.85471
487.48724	0.85636
485.43033	0.85754
483.37342	0.85730
481.31651	0.85602
479.25961	0.85450
477.20270	0.85510
475.14579	0.85716
473.08888	0.85768
471.03197	0.85583
468.97507	0.85208
466.91816	0.84945
464.86125	0.84983
462.80434	0.85014
460.74743	0.84902
458.69052	0.84721
456.63362	0.84653
454.57671	0.84882
452.51980	0.85047
450.46289	0.84906
448.40598	0.84934
446.34908	0.85272
444.29217	0.85457
442.23526	0.85450
440.17835	0.85344
438.12144	0.85228
436.06453	0.85263
434.00763	0.85305
431.95072	0.85535
429.89381	0.85853
427.83690	0.85706
425.77999	0.85548
423.72309	0.85835
421.66618	0.86104
419.60927	0.86263
417.55236	0.86590
415.49545	0.86894
413.43854	0.87031
411.38164	0.86848
409.32473	0.86311
407.26782	0.86077
405.21091	0.86472
403.15400	0.86882
401.09710	0.86935
399.04019	0.86883
