3996.57260	0.98190
3994.51569	0.98149
3992.45878	0.98111
3990.40188	0.98112
3988.34497	0.98107
3986.28806	0.98072
3984.23115	0.98086
3982.17424	0.98161
3980.11733	0.98196
3978.06043	0.98130
3976.00352	0.98022
3973.94661	0.97986
3971.88970	0.98031
3969.83279	0.98071
3967.77589	0.98091
3965.71898	0.98144
3963.66207	0.98199
3961.60516	0.98199
3959.54825	0.98165
3957.49134	0.98139
3955.43444	0.98131
3953.37753	0.98113
3951.32062	0.98118
3949.26371	0.98170
3947.20680	0.98182
3945.14990	0.98158
3943.09299	0.98180
3941.03608	0.98214
3938.97917	0.98181
3936.92226	0.98136
3934.86535	0.98178
3932.80845	0.98230
3930.75154	0.98204
3928.69463	0.98185
3926.63772	0.98191
3924.58081	0.98154
3922.52391	0.98106
3920.46700	0.98117
3918.41009	0.98149
3916.35318	0.98159
3914.29627	0.98156
3912.23936	0.98140
3910.18246	0.98154
3908.12555	0.98224
3906.06864	0.98265
3904.01173	0.98223
3901.95482	0.98162
3899.89792	0.98155
3897.84101	0.98176
3895.78410	0.98147
3893.72719	0.98092
3891.67028	0.98089
3889.61337	0.98136
3887.55647	0.98171
3885.49956	0.98174
3883.44265	0.98185
3881.38574	0.98182
3879.32883	0.98129
3877.27193	0.98126
3875.21502	0.98195
3873.15811	0.98267
3871.10120	0.98275
3869.04429	0.98206
3866.98738	0.98188
3864.93048	0.98233
3862.87357	0.98222
3860.81666	0.98193
3858.75975	0.98227
3856.70284	0.98290
3854.64594	0.98266
3852.58903	0.98129
3850.53212	0.98113
3848.47521	0.98182
3846.41830	0.98260
3844.36139	0.98303
3842.30449	0.98277
3840.24758	0.98232
3838.19067	0.98176
3836.13376	0.98163
3834.07685	0.98235
3832.01995	0.98258
3829.96304	0.98233
3827.90613	0.98234
3825.84922	0.98204
3823.79231	0.98163
3821.73540	0.98140
3819.67850	0.98132
3817.62159	0.98165
3815.56468	0.98144
3813.50777	0.98098
3811.45086	0.98110
3809.39396	0.98142
3807.33705	0.98158
3805.28014	0.98168
3803.22323	0.98210
3801.16632	0.98274
3799.10941	0.98311
3797.05251	0.98298
3794.99560	0.98253
3792.93869	0.98227
3790.88178	0.98211
3788.82487	0.98182
3786.76796	0.98168
3784.71106	0.98157
3782.65415	0.98156
3780.59724	0.98175
3778.54033	0.98171
3776.48342	0.98164
3774.42652	0.98176
3772.36961	0.98163
3770.31270	0.98121
3768.25579	0.98140
3766.19888	0.98182
3764.14197	0.98143
3762.08507	0.98110
3760.02816	0.98144
3757.97125	0.98199
3755.91434	0.98241
3753.85743	0.98274
3751.80053	0.98293
3749.74362	0.98274
3747.68671	0.98260
3745.62980	0.98299
3743.57289	0.98332
3741.51598	0.98298
3739.45908	0.98198
3737.40217	0.98023
3735.34526	0.97920
3733.28835	0.98054
3731.23144	0.98239
3729.17454	0.98315
3727.11763	0.98276
3725.06072	0.98225
3723.00381	0.98284
3720.94690	0.98366
3718.88999	0.98347
3716.83309	0.98242
3714.77618	0.98123
3712.71927	0.98057
3710.66236	0.98101
3708.60545	0.98242
3706.54855	0.98343
3704.49164	0.98324
3702.43473	0.98226
3700.37782	0.98186
3698.32091	0.98235
3696.26400	0.98282
3694.20710	0.98296
3692.15019	0.98289
3690.09328	0.98299
3688.03637	0.98299
3685.97946	0.98294
3683.92256	0.98312
3681.86565	0.98282
3679.80874	0.98221
3677.75183	0.98245
3675.69492	0.98306
3673.63801	0.98232
3671.58111	0.98113
3669.52420	0.98006
3667.46729	0.98006
3665.41038	0.98146
3663.35347	0.98256
3661.29657	0.98232
3659.23966	0.98170
3657.18275	0.98155
3655.12584	0.98180
3653.06893	0.98235
3651.01202	0.98202
3648.95512	0.98023
3646.89821	0.97943
3644.84130	0.97957
3642.78439	0.97974
3640.72748	0.98018
3638.67058	0.98057
3636.61367	0.98042
3634.55676	0.98059
3632.49985	0.98140
3630.44294	0.98108
3628.38603	0.97915
3626.32913	0.97849
3624.27222	0.97951
3622.21531	0.98058
3620.15840	0.98056
3618.10149	0.97992
3616.04459	0.97960
3613.98768	0.97926
3611.93077	0.97926
3609.87386	0.97986
3607.81695	0.97965
3605.76004	0.97873
3603.70314	0.97839
3601.64623	0.97853
3599.58932	0.97867
3597.53241	0.97843
3595.47550	0.97791
3593.41860	0.97778
3591.36169	0.97806
3589.30478	0.97839
3587.24787	0.97847
3585.19096	0.97819
3583.13405	0.97793
3581.07715	0.97775
3579.02024	0.97739
3576.96333	0.97706
3574.90642	0.97709
3572.84951	0.97712
3570.79261	0.97678
3568.73570	0.97618
3566.67879	0.97559
3564.62188	0.97531
3562.56497	0.97524
3560.50806	0.97519
3558.45116	0.97499
3556.39425	0.97445
3554.33734	0.97381
3552.28043	0.97330
3550.22352	0.97306
3548.16662	0.97318
3546.10971	0.97338
3544.05280	0.97315
3541.99589	0.97230
3539.93898	0.97109
3537.88207	0.97033
3535.82517	0.97036
3533.76826	0.97043
3531.71135	0.97029
3529.65444	0.97014
3527.59753	0.97009
3525.54063	0.96984
3523.48372	0.96906
3521.42681	0.96838
3519.36990	0.96816
3517.31299	0.96793
3515.25608	0.96760
3513.19918	0.96738
3511.14227	0.96735
3509.08536	0.96742
3507.02845	0.96739
3504.97154	0.96696
3502.91464	0.96666
3500.85773	0.96704
3498.80082	0.96713
3496.74391	0.96635
3494.68700	0.96557
3492.63009	0.96554
3490.57319	0.96570
3488.51628	0.96550
3486.45937	0.96540
3484.40246	0.96543
3482.34555	0.96525
3480.28865	0.96547
3478.23174	0.96615
3476.17483	0.96682
3474.11792	0.96747
3472.06101	0.96763
3470.00410	0.96679
3467.94720	0.96581
3465.89029	0.96576
3463.83338	0.96615
3461.77647	0.96610
3459.71956	0.96581
3457.66266	0.96573
3455.60575	0.96603
3453.54884	0.96614
3451.49193	0.96579
3449.43502	0.96604
3447.37811	0.96705
3445.32121	0.96738
3443.26430	0.96680
3441.20739	0.96679
3439.15048	0.96758
3437.09357	0.96797
3435.03667	0.96818
3432.97976	0.96915
3430.92285	0.96971
3428.86594	0.96927
3426.80903	0.96933
3424.75212	0.97008
3422.69522	0.97014
3420.63831	0.96929
3418.58140	0.96922
3416.52449	0.96999
3414.46758	0.96989
3412.41068	0.96927
3410.35377	0.96916
3408.29686	0.96936
3406.23995	0.96993
3404.18304	0.97049
3402.12613	0.97059
3400.06923	0.97072
3398.01232	0.97076
3395.95541	0.97072
3393.89850	0.97106
3391.84159	0.97139
3389.78469	0.97139
3387.72778	0.97147
3385.67087	0.97177
3383.61396	0.97184
3381.55705	0.97181
3379.50014	0.97189
3377.44324	0.97199
3375.38633	0.97220
3373.32942	0.97221
3371.27251	0.97210
3369.21560	0.97246
3367.15870	0.97288
3365.10179	0.97285
3363.04488	0.97276
3360.98797	0.97294
3358.93106	0.97334
3356.87415	0.97371
3354.81725	0.97385
3352.76034	0.97382
3350.70343	0.97379
3348.64652	0.97377
3346.58961	0.97371
3344.53271	0.97420
3342.47580	0.97513
3340.41889	0.97533
3338.36198	0.97478
3336.30507	0.97452
3334.24816	0.97487
3332.19126	0.97508
3330.13435	0.97466
3328.07744	0.97429
3326.02053	0.97460
3323.96362	0.97499
3321.90672	0.97507
3319.84981	0.97551
3317.79290	0.97620
3315.73599	0.97645
3313.67908	0.97604
3311.62217	0.97543
3309.56527	0.97523
3307.50836	0.97496
3305.45145	0.97447
3303.39454	0.97464
3301.33763	0.97532
3299.28073	0.97584
3297.22382	0.97613
3295.16691	0.97633
3293.11000	0.97645
3291.05309	0.97650
3288.99618	0.97646
3286.93928	0.97642
3284.88237	0.97651
3282.82546	0.97668
3280.76855	0.97684
3278.71164	0.97686
3276.65474	0.97668
3274.59783	0.97650
3272.54092	0.97674
3270.48401	0.97708
3268.42710	0.97715
3266.37019	0.97714
3264.31329	0.97716
3262.25638	0.97706
3260.19947	0.97681
3258.14256	0.97701
3256.08565	0.97756
3254.02875	0.97774
3251.97184	0.97777
3249.91493	0.97807
3247.85802	0.97806
3245.80111	0.97764
3243.74420	0.97740
3241.68730	0.97721
3239.63039	0.97681
3237.57348	0.97672
3235.51657	0.97708
3233.45966	0.97762
3231.40276	0.97836
3229.34585	0.97907
3227.28894	0.97919
3225.23203	0.97873
3223.17512	0.97837
3221.11821	0.97833
3219.06131	0.97806
3217.00440	0.97766
3214.94749	0.97758
3212.89058	0.97778
3210.83367	0.97807
3208.77677	0.97827
3206.71986	0.97819
3204.66295	0.97831
3202.60604	0.97902
3200.54913	0.97949
3198.49222	0.97928
3196.43532	0.97921
3194.37841	0.97954
3192.32150	0.97985
3190.26459	0.97976
3188.20768	0.97910
3186.15078	0.97839
3184.09387	0.97815
3182.03696	0.97831
3179.98005	0.97856
3177.92314	0.97851
3175.86623	0.97814
3173.80933	0.97811
3171.75242	0.97870
3169.69551	0.97942
3167.63860	0.97934
3165.58169	0.97858
3163.52479	0.97848
3161.46788	0.97886
3159.41097	0.97862
3157.35406	0.97801
3155.29715	0.97780
3153.24024	0.97803
3151.18334	0.97843
3149.12643	0.97886
3147.06952	0.97889
3145.01261	0.97876
3142.95570	0.97922
3140.89880	0.97955
3138.84189	0.97933
3136.78498	0.97933
3134.72807	0.97949
3132.67116	0.97950
3130.61425	0.97939
3128.55735	0.97924
3126.50044	0.97920
3124.44353	0.97915
3122.38662	0.97874
3120.32971	0.97835
3118.27281	0.97867
3116.21590	0.97939
3114.15899	0.98017
3112.10208	0.98051
3110.04517	0.98000
3107.98826	0.97932
3105.93136	0.97898
3103.87445	0.97899
3101.81754	0.97919
3099.76063	0.97967
3097.70372	0.98037
3095.64682	0.98045
3093.58991	0.98012
3091.53300	0.98013
3089.47609	0.98018
3087.41918	0.98015
3085.36227	0.98022
3083.30537	0.98009
3081.24846	0.97971
3079.19155	0.97973
3077.13464	0.98001
3075.07773	0.97971
3073.02083	0.97914
3070.96392	0.97916
3068.90701	0.97957
3066.85010	0.97955
3064.79319	0.97921
3062.73628	0.97927
3060.67938	0.97955
3058.62247	0.97924
3056.56556	0.97858
3054.50865	0.97836
3052.45174	0.97856
3050.39484	0.97886
3048.33793	0.97908
3046.28102	0.97934
3044.22411	0.97958
3042.16720	0.97945
3040.11029	0.97887
3038.05339	0.97835
3035.99648	0.97813
3033.93957	0.97804
3031.88266	0.97808
3029.82575	0.97817
3027.76885	0.97806
3025.71194	0.97767
3023.65503	0.97734
3021.59812	0.97741
3019.54121	0.97785
3017.48430	0.97806
3015.42740	0.97767
3013.37049	0.97716
3011.31358	0.97705
3009.25667	0.97705
3007.19976	0.97683
3005.14286	0.97667
3003.08595	0.97683
3001.02904	0.97700
2998.97213	0.97687
2996.91522	0.97667
2994.85831	0.97664
2992.80141	0.97663
2990.74450	0.97665
2988.68759	0.97670
2986.63068	0.97652
2984.57377	0.97628
2982.51687	0.97639
2980.45996	0.97657
2978.40305	0.97633
2976.34614	0.97588
2974.28923	0.97534
2972.23232	0.97460
2970.17542	0.97400
2968.11851	0.97393
2966.06160	0.97380
2964.00469	0.97306
2961.94778	0.97247
2959.89088	0.97246
2957.83397	0.97246
2955.77706	0.97210
2953.72015	0.97159
2951.66324	0.97123
2949.60633	0.97131
2947.54943	0.97165
2945.49252	0.97168
2943.43561	0.97144
2941.37870	0.97114
2939.32179	0.97079
2937.26489	0.97078
2935.20798	0.97120
2933.15107	0.97139
2931.09416	0.97124
2929.03725	0.97154
2926.98034	0.97235
2924.92344	0.97291
2922.86653	0.97279
2920.80962	0.97253
2918.75271	0.97264
2916.69580	0.97281
2914.63890	0.97276
2912.58199	0.97268
2910.52508	0.97287
2908.46817	0.97297
2906.41126	0.97256
2904.35435	0.97205
2902.29745	0.97202
2900.24054	0.97231
2898.18363	0.97221
2896.12672	0.97180
2894.06981	0.97161
2892.01291	0.97146
2889.95600	0.97124
2887.89909	0.97126
2885.84218	0.97143
2883.78527	0.97152
2881.72836	0.97164
2879.67146	0.97181
2877.61455	0.97187
2875.55764	0.97199
2873.50073	0.97206
2871.44382	0.97186
2869.38692	0.97194
2867.33001	0.97265
2865.27310	0.97340
2863.21619	0.97353
2861.15928	0.97344
2859.10237	0.97399
2857.04547	0.97477
2854.98856	0.97497
2852.93165	0.97496
2850.87474	0.97518
2848.81783	0.97530
2846.76093	0.97535
2844.70402	0.97554
2842.64711	0.97585
2840.59020	0.97618
2838.53329	0.97626
2836.47638	0.97624
2834.41948	0.97655
2832.36257	0.97697
2830.30566	0.97723
2828.24875	0.97743
2826.19184	0.97745
2824.13494	0.97740
2822.07803	0.97744
2820.02112	0.97752
2817.96421	0.97775
2815.90730	0.97792
2813.85039	0.97763
2811.79349	0.97731
2809.73658	0.97746
2807.67967	0.97757
2805.62276	0.97743
2803.56585	0.97749
2801.50895	0.97777
2799.45204	0.97802
2797.39513	0.97821
2795.33822	0.97810
2793.28131	0.97783
2791.22440	0.97787
2789.16750	0.97796
2787.11059	0.97806
2785.05368	0.97841
2782.99677	0.97867
2780.93986	0.97877
2778.88296	0.97910
2776.82605	0.97956
2774.76914	0.97955
2772.71223	0.97906
2770.65532	0.97882
2768.59841	0.97881
2766.54151	0.97875
2764.48460	0.97894
2762.42769	0.97898
2760.37078	0.97850
2758.31387	0.97820
2756.25697	0.97815
2754.20006	0.97818
2752.14315	0.97846
2750.08624	0.97871
2748.02933	0.97878
2745.97242	0.97880
2743.91552	0.97872
2741.85861	0.97868
2739.80170	0.97877
2737.74479	0.97865
2735.68788	0.97833
2733.63098	0.97831
2731.57407	0.97850
2729.51716	0.97877
2727.46025	0.97907
2725.40334	0.97904
2723.34643	0.97875
2721.28953	0.97868
2719.23262	0.97882
2717.17571	0.97889
2715.11880	0.97893
2713.06189	0.97885
2711.00499	0.97867
2708.94808	0.97865
2706.89117	0.97880
2704.83426	0.97889
2702.77735	0.97898
2700.72044	0.97926
2698.66354	0.97939
2696.60663	0.97923
2694.54972	0.97915
2692.49281	0.97928
2690.43590	0.97941
2688.37900	0.97937
2686.32209	0.97919
2684.26518	0.97918
2682.20827	0.97938
2680.15136	0.97938
2678.09445	0.97908
2676.03755	0.97892
2673.98064	0.97902
2671.92373	0.97911
2669.86682	0.97908
2667.80991	0.97897
2665.75301	0.97887
2663.69610	0.97878
2661.63919	0.97861
2659.58228	0.97861
2657.52537	0.97879
2655.46846	0.97873
2653.41156	0.97870
2651.35465	0.97888
2649.29774	0.97886
2647.24083	0.97853
2645.18392	0.97826
2643.12702	0.97842
2641.07011	0.97890
2639.01320	0.97919
2636.95629	0.97910
2634.89938	0.97866
2632.84247	0.97841
2630.78557	0.97895
2628.72866	0.97964
2626.67175	0.97970
2624.61484	0.97926
2622.55793	0.97901
2620.50103	0.97959
2618.44412	0.98014
2616.38721	0.97951
2614.33030	0.97870
2612.27339	0.97894
2610.21648	0.97960
2608.15958	0.97978
2606.10267	0.97970
2604.04576	0.97980
2601.98885	0.97988
2599.93194	0.97968
2597.87504	0.97945
2595.81813	0.97945
2593.76122	0.97949
2591.70431	0.97945
2589.64740	0.97965
2587.59049	0.98009
2585.53359	0.98049
2583.47668	0.98078
2581.41977	0.98104
2579.36286	0.98089
2577.30595	0.98053
2575.24905	0.98069
2573.19214	0.98112
2571.13523	0.98133
2569.07832	0.98112
2567.02141	0.98054
2564.96450	0.98008
2562.90760	0.98002
2560.85069	0.98022
2558.79378	0.98029
2556.73687	0.98004
2554.67996	0.98017
2552.62306	0.98081
2550.56615	0.98088
2548.50924	0.98019
2546.45233	0.97948
2544.39542	0.97945
2542.33851	0.98028
2540.28161	0.98094
2538.22470	0.98080
2536.16779	0.98055
2534.11088	0.98080
2532.05397	0.98141
2529.99707	0.98162
2527.94016	0.98118
2525.88325	0.98071
2523.82634	0.98059
2521.76943	0.98052
2519.71252	0.98062
2517.65562	0.98107
2515.59871	0.98144
2513.54180	0.98146
2511.48489	0.98144
2509.42798	0.98172
2507.37108	0.98215
2505.31417	0.98242
2503.25726	0.98206
2501.20035	0.98116
2499.14344	0.98084
2497.08653	0.98142
2495.02963	0.98204
2492.97272	0.98214
2490.91581	0.98211
2488.85890	0.98219
2486.80199	0.98176
2484.74509	0.98099
2482.68818	0.98066
2480.63127	0.98052
2478.57436	0.98020
2476.51745	0.98005
2474.46054	0.98047
2472.40364	0.98123
2470.34673	0.98167
2468.28982	0.98157
2466.23291	0.98103
2464.17600	0.98044
2462.11910	0.98033
2460.06219	0.98074
2458.00528	0.98134
2455.94837	0.98171
2453.89146	0.98152
2451.83455	0.98112
2449.77765	0.98073
2447.72074	0.98044
2445.66383	0.98042
2443.60692	0.98042
2441.55001	0.98043
2439.49311	0.98070
2437.43620	0.98099
2435.37929	0.98090
2433.32238	0.98041
2431.26547	0.98040
2429.20856	0.98136
2427.15166	0.98214
2425.09475	0.98224
2423.03784	0.98229
2420.98093	0.98223
2418.92402	0.98164
2416.86712	0.98087
2414.81021	0.98047
2412.75330	0.98058
2410.69639	0.98104
2408.63948	0.98150
2406.58257	0.98149
2404.52567	0.98081
2402.46876	0.98043
2400.41185	0.98108
2398.35494	0.98199
2396.29803	0.98243
2394.24113	0.98239
2392.18422	0.98202
2390.12731	0.98170
2388.07040	0.98217
2386.01349	0.98312
2383.95658	0.98336
2381.89968	0.98283
2379.84277	0.98255
2377.78586	0.98277
2375.72895	0.98282
2373.67204	0.98270
2371.61514	0.98250
2369.55823	0.98172
2367.50132	0.98096
2365.44441	0.98092
2363.38750	0.98106
2361.33059	0.98087
2359.27369	0.98131
2357.21678	0.98315
2355.15987	0.98433
2353.10296	0.98373
2351.04605	0.98252
2348.98915	0.98145
2346.93224	0.98060
2344.87533	0.98000
2342.81842	0.98002
2340.76151	0.98095
2338.70460	0.98240
2336.64770	0.98287
2334.59079	0.98181
2332.53388	0.98061
2330.47697	0.98017
2328.42006	0.98033
2326.36316	0.97992
2324.30625	0.97896
2322.24934	0.97892
2320.19243	0.97985
2318.13552	0.98040
2316.07861	0.98062
2314.02171	0.98091
2311.96480	0.98075
2309.90789	0.98047
2307.85098	0.98056
2305.79407	0.98079
2303.73717	0.98081
2301.68026	0.98050
2299.62335	0.98039
2297.56644	0.98080
2295.50953	0.98087
2293.45262	0.98028
2291.39572	0.97994
2289.33881	0.97982
2287.28190	0.97974
2285.22499	0.98006
2283.16808	0.98056
2281.11117	0.98062
2279.05427	0.97988
2276.99736	0.97940
2274.94045	0.98013
2272.88354	0.98078
2270.82663	0.98082
2268.76973	0.98149
2266.71282	0.98250
2264.65591	0.98238
2262.59900	0.98110
2260.54209	0.98036
2258.48518	0.98098
2256.42828	0.98184
2254.37137	0.98203
2252.31446	0.98168
2250.25755	0.98182
2248.20064	0.98270
2246.14374	0.98269
2244.08683	0.98170
2242.02992	0.98066
2239.97301	0.98002
2237.91610	0.98073
2235.85919	0.98191
2233.80229	0.98170
2231.74538	0.98130
2229.68847	0.98209
2227.63156	0.98239
2225.57465	0.98189
2223.51775	0.98269
2221.46084	0.98398
2219.40393	0.98374
2217.34702	0.98332
2215.29011	0.98410
2213.23320	0.98470
2211.17630	0.98431
2209.11939	0.98383
2207.06248	0.98299
2205.00557	0.98185
2202.94866	0.98170
2200.89176	0.98195
2198.83485	0.98197
2196.77794	0.98277
2194.72103	0.98421
2192.66412	0.98545
2190.60721	0.98609
2188.55031	0.98552
2186.49340	0.98400
2184.43649	0.98249
2182.37958	0.98259
2180.32267	0.98490
2178.26577	0.98701
2176.20886	0.98591
2174.15195	0.98343
2172.09504	0.98342
2170.03813	0.98439
2167.98122	0.98340
2165.92432	0.98153
2163.86741	0.98159
2161.81050	0.98294
2159.75359	0.98491
2157.69668	0.98878
2155.63978	0.99089
2153.58287	0.98906
2151.52596	0.98618
2149.46905	0.98523
2147.41214	0.98654
2145.35523	0.98701
2143.29833	0.98511
2141.24142	0.98386
2139.18451	0.98454
2137.12760	0.98505
2135.07069	0.98428
2133.01379	0.98336
2130.95688	0.98373
2128.89997	0.98458
2126.84306	0.98450
2124.78615	0.98444
2122.72924	0.98484
2120.67234	0.98425
2118.61543	0.98283
2116.55852	0.98185
2114.50161	0.98195
2112.44470	0.98241
2110.38780	0.98192
2108.33089	0.98135
2106.27398	0.98190
2104.21707	0.98226
2102.16016	0.98190
2100.10325	0.98243
2098.04635	0.98328
2095.98944	0.98331
2093.93253	0.98325
2091.87562	0.98353
2089.81871	0.98375
2087.76181	0.98335
2085.70490	0.98325
2083.64799	0.98387
2081.59108	0.98347
2079.53417	0.98216
2077.47726	0.98163
2075.42036	0.98128
2073.36345	0.98078
2071.30654	0.98136
2069.24963	0.98190
2067.19272	0.98133
2065.13582	0.98071
2063.07891	0.98101
2061.02200	0.98232
2058.96509	0.98371
2056.90818	0.98388
2054.85127	0.98326
2052.79437	0.98300
2050.73746	0.98305
2048.68055	0.98329
2046.62364	0.98380
2044.56673	0.98466
2042.50983	0.98514
2040.45292	0.98508
2038.39601	0.98599
2036.33910	0.98702
2034.28219	0.98623
2032.22528	0.98547
2030.16838	0.98606
2028.11147	0.98578
2026.05456	0.98466
2023.99765	0.98509
2021.94074	0.98595
2019.88384	0.98579
2017.82693	0.98686
2015.77002	0.98812
2013.71311	0.98761
2011.65620	0.98684
2009.59929	0.98659
2007.54239	0.98643
2005.48548	0.98578
2003.42857	0.98500
2001.37166	0.98488
1999.31475	0.98528
1997.25785	0.98598
1995.20094	0.98623
1993.14403	0.98478
1991.08712	0.98333
1989.03021	0.98403
1986.97330	0.98575
1984.91640	0.98661
1982.85949	0.98543
1980.80258	0.98354
1978.74567	0.98405
1976.68876	0.98674
1974.63186	0.98811
1972.57495	0.98755
1970.51804	0.98636
1968.46113	0.98496
1966.40422	0.98472
1964.34731	0.98642
1962.29041	0.98766
1960.23350	0.98720
1958.17659	0.98647
1956.11968	0.98623
1954.06277	0.98649
1952.00587	0.98628
1949.94896	0.98591
1947.89205	0.98744
1945.83514	0.98919
1943.77823	0.98867
1941.72132	0.98724
1939.66442	0.98662
1937.60751	0.98604
1935.55060	0.98494
1933.49369	0.98451
1931.43678	0.98459
1929.37988	0.98454
1927.32297	0.98559
1925.26606	0.98746
1923.20915	0.98774
1921.15224	0.98641
1919.09533	0.98565
1917.03843	0.98581
1914.98152	0.98582
1912.92461	0.98526
1910.86770	0.98516
1908.81079	0.98586
1906.75389	0.98634
1904.69698	0.98616
1902.64007	0.98543
1900.58316	0.98466
1898.52625	0.98474
1896.46934	0.98550
1894.41244	0.98620
1892.35553	0.98662
1890.29862	0.98645
1888.24171	0.98583
1886.18480	0.98551
1884.12790	0.98576
1882.07099	0.98603
1880.01408	0.98603
1877.95717	0.98621
1875.90026	0.98643
1873.84335	0.98626
1871.78645	0.98613
1869.72954	0.98626
1867.67263	0.98621
1865.61572	0.98608
1863.55881	0.98614
1861.50191	0.98657
1859.44500	0.98740
1857.38809	0.98813
1855.33118	0.98790
1853.27427	0.98684
1851.21736	0.98619
1849.16046	0.98642
1847.10355	0.98701
1845.04664	0.98731
1842.98973	0.98714
1840.93282	0.98707
1838.87592	0.98697
1836.81901	0.98622
1834.76210	0.98556
1832.70519	0.98571
1830.64828	0.98614
1828.59137	0.98640
1826.53447	0.98665
1824.47756	0.98646
1822.42065	0.98572
1820.36374	0.98555
1818.30683	0.98613
1816.24993	0.98623
1814.19302	0.98552
1812.13611	0.98505
1810.07920	0.98502
1808.02229	0.98494
1805.96538	0.98497
1803.90848	0.98520
1801.85157	0.98519
1799.79466	0.98476
1797.73775	0.98415
1795.68084	0.98363
1793.62394	0.98331
1791.56703	0.98293
1789.51012	0.98253
1787.45321	0.98212
1785.39630	0.98143
1783.33939	0.98029
1781.28249	0.97883
1779.22558	0.97706
1777.16867	0.97478
1775.11176	0.97174
1773.05485	0.96754
1770.99795	0.96203
1768.94104	0.95546
1766.88413	0.94775
1764.82722	0.93940
1762.77031	0.92900
1760.71340	0.91638
1758.65650	0.90495
1756.59959	0.89418
1754.54268	0.88471
1752.48577	0.87652
1750.42886	0.86703
1748.37196	0.85764
1746.31505	0.85047
1744.25814	0.84460
1742.20123	0.83940
1740.14432	0.83480
1738.08741	0.83212
1736.03051	0.83148
1733.97360	0.83085
1731.91669	0.83181
1729.85978	0.83558
1727.80287	0.84043
1725.74597	0.84585
1723.68906	0.85235
1721.63215	0.85937
1719.57524	0.86652
1717.51833	0.87477
1715.46142	0.88419
1713.40452	0.89317
1711.34761	0.90121
1709.29070	0.90858
1707.23379	0.91555
1705.17688	0.92202
1703.11998	0.92722
1701.06307	0.93181
1699.00616	0.93649
1696.94925	0.94069
1694.89234	0.94470
1692.83543	0.94793
1690.77853	0.95036
1688.72162	0.95228
1686.66471	0.95370
1684.60780	0.95518
1682.55089	0.95702
1680.49399	0.95871
1678.43708	0.95992
1676.38017	0.96061
1674.32326	0.96129
1672.26635	0.96222
1670.20944	0.96283
1668.15254	0.96314
1666.09563	0.96377
1664.03872	0.96441
1661.98181	0.96470
1659.92490	0.96493
1657.86800	0.96529
1655.81109	0.96565
1653.75418	0.96539
1651.69727	0.96453
1649.64036	0.96467
1647.58345	0.96517
1645.52655	0.96514
1643.46964	0.96502
1641.41273	0.96534
1639.35582	0.96597
1637.29891	0.96660
1635.24201	0.96709
1633.18510	0.96744
1631.12819	0.96765
1629.07128	0.96784
1627.01437	0.96812
1624.95746	0.96847
1622.90056	0.96891
1620.84365	0.96946
1618.78674	0.96988
1616.72983	0.97027
1614.67292	0.97089
1612.61602	0.97150
1610.55911	0.97209
1608.50220	0.97264
1606.44529	0.97290
1604.38838	0.97306
1602.33147	0.97332
1600.27457	0.97371
1598.21766	0.97420
1596.16075	0.97467
1594.10384	0.97506
1592.04693	0.97525
1589.99003	0.97522
1587.93312	0.97515
1585.87621	0.97524
1583.81930	0.97563
1581.76239	0.97612
1579.70548	0.97644
1577.64858	0.97643
1575.59167	0.97623
1573.53476	0.97648
1571.47785	0.97711
1569.42094	0.97741
1567.36404	0.97722
1565.30713	0.97706
1563.25022	0.97707
1561.19331	0.97731
1559.13640	0.97749
1557.07949	0.97726
1555.02259	0.97731
1552.96568	0.97757
1550.90877	0.97773
1548.85186	0.97777
1546.79495	0.97780
1544.73805	0.97790
1542.68114	0.97803
1540.62423	0.97803
1538.56732	0.97802
1536.51041	0.97798
1534.45350	0.97777
1532.39660	0.97783
1530.33969	0.97828
1528.28278	0.97862
1526.22587	0.97882
1524.16896	0.97890
1522.11206	0.97874
1520.05515	0.97870
1517.99824	0.97876
1515.94133	0.97858
1513.88442	0.97858
1511.82751	0.97891
1509.77061	0.97928
1507.71370	0.97945
1505.65679	0.97935
1503.59988	0.97930
1501.54297	0.97947
1499.48607	0.97992
1497.42916	0.98025
1495.37225	0.98003
1493.31534	0.97981
1491.25843	0.97959
1489.20152	0.97909
1487.14462	0.97888
1485.08771	0.97920
1483.03080	0.97939
1480.97389	0.97885
1478.91698	0.97809
1476.86008	0.97785
1474.80317	0.97775
1472.74626	0.97674
1470.68935	0.97517
1468.63244	0.97399
1466.57553	0.97274
1464.51863	0.97113
1462.46172	0.96975
1460.40481	0.96884
1458.34790	0.96772
1456.29099	0.96594
1454.23409	0.96454
1452.17718	0.96331
1450.12027	0.96199
1448.06336	0.96067
1446.00645	0.95924
1443.94954	0.95791
1441.89264	0.95662
1439.83573	0.95531
1437.77882	0.95386
1435.72191	0.95244
1433.66500	0.95187
1431.60810	0.95182
1429.55119	0.95214
1427.49428	0.95306
1425.43737	0.95416
1423.38046	0.95510
1421.32355	0.95617
1419.26665	0.95747
1417.20974	0.95857
1415.15283	0.95946
1413.09592	0.96021
1411.03901	0.96081
1408.98211	0.96138
1406.92520	0.96185
1404.86829	0.96193
1402.81138	0.96186
1400.75447	0.96185
1398.69756	0.96143
1396.64066	0.96007
1394.58375	0.95762
1392.52684	0.95456
1390.46993	0.95123
1388.41302	0.94664
1386.35612	0.94053
1384.29921	0.93440
1382.24230	0.92849
1380.18539	0.92206
1378.12848	0.91530
1376.07157	0.90876
1374.01467	0.90239
1371.95776	0.89696
1369.90085	0.89312
1367.84394	0.89118
1365.78703	0.89205
1363.73013	0.89633
1361.67322	0.90444
1359.61631	0.91460
1357.55940	0.92472
1355.50249	0.93406
1353.44558	0.94190
1351.38868	0.94772
1349.33177	0.95184
1347.27486	0.95475
1345.21795	0.95675
1343.16104	0.95815
1341.10414	0.95917
1339.04723	0.96004
1336.99032	0.96080
1334.93341	0.96130
1332.87650	0.96154
1330.81959	0.96158
1328.76269	0.96150
1326.70578	0.96130
1324.64887	0.96079
1322.59196	0.96020
1320.53505	0.96004
1318.47815	0.96022
1316.42124	0.96062
1314.36433	0.96119
1312.30742	0.96152
1310.25051	0.96160
1308.19360	0.96178
1306.13670	0.96200
1304.07979	0.96216
1302.02288	0.96230
1299.96597	0.96216
1297.90906	0.96150
1295.85216	0.96041
1293.79525	0.95905
1291.73834	0.95761
1289.68143	0.95616
1287.62452	0.95453
1285.56761	0.95251
1283.51071	0.95011
1281.45380	0.94755
1279.39689	0.94487
1277.33998	0.94164
1275.28307	0.93774
1273.22617	0.93355
1271.16926	0.92919
1269.11235	0.92478
1267.05544	0.92019
1264.99853	0.91497
1262.94162	0.90918
1260.88472	0.90288
1258.82781	0.89614
1256.77090	0.88904
1254.71399	0.88164
1252.65708	0.87414
1250.60018	0.86659
1248.54327	0.85885
1246.48636	0.85075
1244.42945	0.84230
1242.37254	0.83386
1240.31563	0.82553
1238.25873	0.81724
1236.20182	0.80904
1234.14491	0.80120
1232.08800	0.79411
1230.03109	0.78786
1227.97419	0.78242
1225.91728	0.77771
1223.86037	0.77372
1221.80346	0.77086
1219.74655	0.76930
1217.68964	0.76897
1215.63274	0.77020
1213.57583	0.77326
1211.51892	0.77816
1209.46201	0.78518
1207.40510	0.79451
1205.34820	0.80583
1203.29129	0.81888
1201.23438	0.83320
1199.17747	0.84789
1197.12056	0.86204
1195.06365	0.87474
1193.00675	0.88548
1190.94984	0.89423
1188.89293	0.90070
1186.83602	0.90482
1184.77911	0.90727
1182.72221	0.90855
1180.66530	0.90866
1178.60839	0.90779
1176.55148	0.90632
1174.49457	0.90452
1172.43766	0.90271
1170.38076	0.90109
1168.32385	0.89979
1166.26694	0.89895
1164.21003	0.89874
1162.15312	0.89925
1160.09622	0.90030
1158.03931	0.90179
1155.98240	0.90366
1153.92549	0.90583
1151.86858	0.90827
1149.81167	0.91061
1147.75477	0.91239
1145.69786	0.91352
1143.64095	0.91403
1141.58404	0.91390
1139.52713	0.91313
1137.47023	0.91181
1135.41332	0.90997
1133.35641	0.90777
1131.29950	0.90538
1129.24259	0.90294
1127.18568	0.90056
1125.12878	0.89854
1123.07187	0.89717
1121.01496	0.89632
1118.95805	0.89578
1116.90114	0.89548
1114.84424	0.89516
1112.78733	0.89476
1110.73042	0.89424
1108.67351	0.89357
1106.61660	0.89269
1104.55969	0.89145
1102.50279	0.88999
1100.44588	0.88848
1098.38897	0.88653
1096.33206	0.88399
1094.27515	0.88104
1092.21825	0.87775
1090.16134	0.87382
1088.10443	0.86922
1086.04752	0.86449
1083.99061	0.85978
1081.93370	0.85502
1079.87680	0.84999
1077.81989	0.84474
1075.76298	0.83987
1073.70607	0.83553
1071.64916	0.83131
1069.59226	0.82721
1067.53535	0.82339
1065.47844	0.81966
1063.42153	0.81564
1061.36462	0.81121
1059.30771	0.80659
1057.25081	0.80177
1055.19390	0.79665
1053.13699	0.79130
1051.08008	0.78600
1049.02317	0.78085
1046.96627	0.77575
1044.90936	0.77103
1042.85245	0.76696
1040.79554	0.76300
1038.73863	0.75867
1036.68172	0.75431
1034.62482	0.75040
1032.56791	0.74700
1030.51100	0.74453
1028.45409	0.74358
1026.39718	0.74399
1024.34028	0.74581
1022.28337	0.74930
1020.22646	0.75395
1018.16955	0.75919
1016.11264	0.76505
1014.05573	0.77125
1011.99883	0.77752
1009.94192	0.78390
1007.88501	0.79033
1005.82810	0.79638
1003.77119	0.80200
1001.71429	0.80764
999.65738	0.81313
997.60047	0.81806
995.54356	0.82269
993.48665	0.82725
991.42974	0.83134
989.37284	0.83465
987.31593	0.83770
985.25902	0.84093
983.20211	0.84423
981.14520	0.84738
979.08830	0.85037
977.03139	0.85359
974.97448	0.85744
972.91757	0.86186
970.86066	0.86657
968.80375	0.87120
966.74685	0.87541
964.68994	0.87920
962.63303	0.88244
960.57612	0.88491
958.51921	0.88675
956.46231	0.88845
954.40540	0.89026
952.34849	0.89205
950.29158	0.89369
948.23467	0.89532
946.17776	0.89690
944.12086	0.89819
942.06395	0.89967
940.00704	0.90145
937.95013	0.90276
935.89322	0.90359
933.83632	0.90446
931.77941	0.90533
929.72250	0.90546
927.66559	0.90455
925.60868	0.90332
923.55177	0.90236
921.49487	0.90154
919.43796	0.90078
917.38105	0.89969
915.32414	0.89797
913.26723	0.89613
911.21033	0.89465
909.15342	0.89362
907.09651	0.89272
905.03960	0.89162
902.98269	0.89049
900.92578	0.89000
898.86888	0.89052
896.81197	0.89176
894.75506	0.89330
892.69815	0.89486
890.64124	0.89669
888.58434	0.89890
886.52743	0.90104
884.47052	0.90312
882.41361	0.90524
880.35670	0.90711
878.29979	0.90908
876.24289	0.91118
874.18598	0.91302
872.12907	0.91518
870.07216	0.91782
868.01525	0.92033
865.95835	0.92266
863.90144	0.92509
861.84453	0.92737
859.78762	0.92872
857.73071	0.92953
855.67380	0.93111
853.61690	0.93249
851.55999	0.93236
849.50308	0.93169
847.44617	0.93112
845.38926	0.93054
843.33236	0.93011
841.27545	0.92992
839.21854	0.92970
837.16163	0.92949
835.10472	0.92996
833.04781	0.93119
830.99091	0.93278
828.93400	0.93432
826.87709	0.93577
824.82018	0.93748
822.76327	0.93896
820.70637	0.93962
818.64946	0.94006
816.59255	0.94084
814.53564	0.94205
812.47873	0.94363
810.42182	0.94467
808.36492	0.94494
806.30801	0.94540
804.25110	0.94558
802.19419	0.94506
800.13728	0.94503
798.08038	0.94594
796.02347	0.94684
793.96656	0.94712
791.90965	0.94743
789.85274	0.94819
787.79583	0.94892
785.73893	0.94919
783.68202	0.94882
781.62511	0.94828
779.56820	0.94800
777.51129	0.94784
775.45439	0.94794
773.39748	0.94836
771.34057	0.94869
769.28366	0.94940
767.22675	0.95071
765.16984	0.95151
763.11294	0.95169
761.05603	0.95180
758.99912	0.95151
756.94221	0.95131
754.88530	0.95192
752.82839	0.95230
750.77149	0.95202
748.71458	0.95223
746.65767	0.95283
744.60076	0.95292
742.54385	0.95251
740.48695	0.95206
738.43004	0.95160
736.37313	0.95118
734.31622	0.95092
732.25931	0.95046
730.20240	0.94996
728.14550	0.95015
726.08859	0.95059
724.03168	0.94981
721.97477	0.94840
719.91786	0.94783
717.86096	0.94733
715.80405	0.94647
713.74714	0.94654
711.69023	0.94744
709.63332	0.94778
707.57641	0.94728
705.51951	0.94644
703.46260	0.94570
701.40569	0.94518
699.34878	0.94419
697.29187	0.94256
695.23497	0.94166
693.17806	0.94168
691.12115	0.94111
689.06424	0.93987
687.00733	0.93918
684.95042	0.93935
682.89352	0.93984
680.83661	0.94030
678.77970	0.93998
676.72279	0.93898
674.66588	0.93862
672.60898	0.93904
670.55207	0.93964
668.49516	0.93984
666.43825	0.93930
664.38134	0.93915
662.32443	0.93941
660.26753	0.93927
658.21062	0.93832
656.15371	0.93706
654.09680	0.93626
652.03989	0.93568
649.98299	0.93425
647.92608	0.93196
645.86917	0.92984
643.81226	0.92851
641.75535	0.92809
639.69844	0.92812
637.64154	0.92728
635.58463	0.92562
633.52772	0.92448
631.47081	0.92347
629.41390	0.92224
627.35700	0.92179
625.30009	0.92162
623.24318	0.92050
621.18627	0.91877
619.12936	0.91683
617.07245	0.91461
615.01555	0.91164
612.95864	0.90737
610.90173	0.90224
608.84482	0.89630
606.78791	0.88940
604.73101	0.88366
602.67410	0.88191
600.61719	0.88335
598.56028	0.88565
596.50337	0.88927
594.44646	0.89470
592.38956	0.90045
590.33265	0.90516
588.27574	0.90845
586.21883	0.91059
584.16192	0.91207
582.10502	0.91320
580.04811	0.91439
577.99120	0.91559
575.93429	0.91624
573.87738	0.91590
571.82047	0.91491
569.76357	0.91455
567.70666	0.91444
565.64975	0.91306
563.59284	0.91119
561.53593	0.91001
559.47903	0.91006
557.42212	0.91172
555.36521	0.91312
553.30830	0.91241
551.25139	0.91186
549.19448	0.91292
547.13758	0.91413
545.08067	0.91507
543.02376	0.91589
540.96685	0.91631
538.90994	0.91585
536.85304	0.91499
534.79613	0.91495
532.73922	0.91596
530.68231	0.91712
528.62540	0.91658
526.56849	0.91435
524.51159	0.91269
522.45468	0.91225
520.39777	0.91222
518.34086	0.91265
516.28395	0.91280
514.22705	0.91203
512.17014	0.91114
510.11323	0.90988
508.05632	0.90798
505.99941	0.90606
503.94250	0.90544
501.88560	0.90597
499.82869	0.90531
497.77178	0.90366
495.71487	0.90236
493.65796	0.90208
491.60106	0.90298
489.54415	0.90365
487.48724	0.90311
485.43033	0.90207
483.37342	0.90106
481.31651	0.90033
479.25961	0.89959
477.20270	0.89731
475.14579	0.89472
473.08888	0.89481
471.03197	0.89646
468.97507	0.89614
466.91816	0.89450
464.86125	0.89346
462.80434	0.89073
460.74743	0.88619
458.69052	0.88385
456.63362	0.88506
454.57671	0.88660
452.51980	0.88762
450.46289	0.88931
448.40598	0.88836
446.34908	0.88481
444.29217	0.88429
442.23526	0.88545
440.17835	0.88341
438.12144	0.88158
436.06453	0.88426
434.00763	0.88767
431.95072	0.88849
429.89381	0.88897
427.83690	0.88989
425.77999	0.89091
423.72309	0.89193
421.66618	0.89197
419.60927	0.89041
417.55236	0.88870
415.49545	0.89003
413.43854	0.89221
411.38164	0.89288
409.32473	0.89433
407.26782	0.89605
405.21091	0.89534
403.15400	0.89311
401.09710	0.88968
399.04019	0.88495
