3996.57260	0.98398
3994.51569	0.98355
3992.45878	0.98359
3990.40188	0.98423
3988.34497	0.98477
3986.28806	0.98475
3984.23115	0.98445
3982.17424	0.98436
3980.11733	0.98435
3978.06043	0.98397
3976.00352	0.98330
3973.94661	0.98292
3971.88970	0.98321
3969.83279	0.98370
3967.77589	0.98412
3965.71898	0.98456
3963.66207	0.98475
3961.60516	0.98477
3959.54825	0.98448
3957.49134	0.98337
3955.43444	0.98246
3953.37753	0.98273
3951.32062	0.98335
3949.26371	0.98326
3947.20680	0.98257
3945.14990	0.98226
3943.09299	0.98266
3941.03608	0.98301
3938.97917	0.98290
3936.92226	0.98290
3934.86535	0.98323
3932.80845	0.98320
3930.75154	0.98309
3928.69463	0.98391
3926.63772	0.98464
3924.58081	0.98428
3922.52391	0.98412
3920.46700	0.98470
3918.41009	0.98483
3916.35318	0.98438
3914.29627	0.98417
3912.23936	0.98403
3910.18246	0.98367
3908.12555	0.98351
3906.06864	0.98402
3904.01173	0.98469
3901.95482	0.98474
3899.89792	0.98436
3897.84101	0.98411
3895.78410	0.98389
3893.72719	0.98378
3891.67028	0.98411
3889.61337	0.98454
3887.55647	0.98478
3885.49956	0.98439
3883.44265	0.98347
3881.38574	0.98326
3879.32883	0.98376
3877.27193	0.98418
3875.21502	0.98427
3873.15811	0.98400
3871.10120	0.98382
3869.04429	0.98407
3866.98738	0.98416
3864.93048	0.98386
3862.87357	0.98373
3860.81666	0.98404
3858.75975	0.98433
3856.70284	0.98454
3854.64594	0.98490
3852.58903	0.98489
3850.53212	0.98484
3848.47521	0.98522
3846.41830	0.98527
3844.36139	0.98473
3842.30449	0.98420
3840.24758	0.98405
3838.19067	0.98400
3836.13376	0.98426
3834.07685	0.98494
3832.01995	0.98504
3829.96304	0.98417
3827.90613	0.98345
3825.84922	0.98336
3823.79231	0.98366
3821.73540	0.98430
3819.67850	0.98446
3817.62159	0.98394
3815.56468	0.98366
3813.50777	0.98351
3811.45086	0.98305
3809.39396	0.98268
3807.33705	0.98289
3805.28014	0.98332
3803.22323	0.98350
3801.16632	0.98374
3799.10941	0.98425
3797.05251	0.98498
3794.99560	0.98548
3792.93869	0.98518
3790.88178	0.98460
3788.82487	0.98408
3786.76796	0.98370
3784.71106	0.98371
3782.65415	0.98397
3780.59724	0.98419
3778.54033	0.98426
3776.48342	0.98421
3774.42652	0.98427
3772.36961	0.98465
3770.31270	0.98492
3768.25579	0.98471
3766.19888	0.98450
3764.14197	0.98417
3762.08507	0.98366
3760.02816	0.98342
3757.97125	0.98350
3755.91434	0.98372
3753.85743	0.98416
3751.80053	0.98466
3749.74362	0.98455
3747.68671	0.98379
3745.62980	0.98348
3743.57289	0.98396
3741.51598	0.98439
3739.45908	0.98473
3737.40217	0.98508
3735.34526	0.98539
3733.28835	0.98578
3731.23144	0.98547
3729.17454	0.98463
3727.11763	0.98407
3725.06072	0.98391
3723.00381	0.98413
3720.94690	0.98462
3718.88999	0.98482
3716.83309	0.98456
3714.77618	0.98433
3712.71927	0.98445
3710.66236	0.98462
3708.60545	0.98461
3706.54855	0.98468
3704.49164	0.98515
3702.43473	0.98583
3700.37782	0.98592
3698.32091	0.98539
3696.26400	0.98480
3694.20710	0.98417
3692.15019	0.98371
3690.09328	0.98362
3688.03637	0.98335
3685.97946	0.98305
3683.92256	0.98285
3681.86565	0.98289
3679.80874	0.98380
3677.75183	0.98481
3675.69492	0.98455
3673.63801	0.98390
3671.58111	0.98388
3669.52420	0.98374
3667.46729	0.98325
3665.41038	0.98284
3663.35347	0.98240
3661.29657	0.98222
3659.23966	0.98276
3657.18275	0.98328
3655.12584	0.98311
3653.06893	0.98297
3651.01202	0.98327
3648.95512	0.98320
3646.89821	0.98233
3644.84130	0.98151
3642.78439	0.98105
3640.72748	0.98140
3638.67058	0.98231
3636.61367	0.98314
3634.55676	0.98364
3632.49985	0.98344
3630.44294	0.98300
3628.38603	0.98294
3626.32913	0.98281
3624.27222	0.98245
3622.21531	0.98219
3620.15840	0.98181
3618.10149	0.98145
3616.04459	0.98139
3613.98768	0.98121
3611.93077	0.98117
3609.87386	0.98149
3607.81695	0.98218
3605.76004	0.98302
3603.70314	0.98312
3601.64623	0.98245
3599.58932	0.98190
3597.53241	0.98167
3595.47550	0.98162
3593.41860	0.98224
3591.36169	0.98313
3589.30478	0.98342
3587.24787	0.98310
3585.19096	0.98249
3583.13405	0.98193
3581.07715	0.98166
3579.02024	0.98170
3576.96333	0.98202
3574.90642	0.98220
3572.84951	0.98214
3570.79261	0.98215
3568.73570	0.98172
3566.67879	0.98085
3564.62188	0.98080
3562.56497	0.98125
3560.50806	0.98164
3558.45116	0.98178
3556.39425	0.98130
3554.33734	0.98074
3552.28043	0.98093
3550.22352	0.98175
3548.16662	0.98237
3546.10971	0.98237
3544.05280	0.98211
3541.99589	0.98224
3539.93898	0.98268
3537.88207	0.98280
3535.82517	0.98249
3533.76826	0.98219
3531.71135	0.98206
3529.65444	0.98194
3527.59753	0.98181
3525.54063	0.98188
3523.48372	0.98232
3521.42681	0.98285
3519.36990	0.98292
3517.31299	0.98248
3515.25608	0.98176
3513.19918	0.98125
3511.14227	0.98117
3509.08536	0.98125
3507.02845	0.98149
3504.97154	0.98142
3502.91464	0.98071
3500.85773	0.98025
3498.80082	0.98041
3496.74391	0.98060
3494.68700	0.98074
3492.63009	0.98118
3490.57319	0.98158
3488.51628	0.98140
3486.45937	0.98124
3484.40246	0.98154
3482.34555	0.98171
3480.28865	0.98165
3478.23174	0.98176
3476.17483	0.98193
3474.11792	0.98207
3472.06101	0.98215
3470.00410	0.98186
3467.94720	0.98154
3465.89029	0.98163
3463.83338	0.98162
3461.77647	0.98144
3459.71956	0.98152
3457.66266	0.98143
3455.60575	0.98099
3453.54884	0.98088
3451.49193	0.98134
3449.43502	0.98183
3447.37811	0.98188
3445.32121	0.98185
3443.26430	0.98199
3441.20739	0.98199
3439.15048	0.98200
3437.09357	0.98207
3435.03667	0.98185
3432.97976	0.98168
3430.92285	0.98194
3428.86594	0.98221
3426.80903	0.98216
3424.75212	0.98214
3422.69522	0.98222
3420.63831	0.98219
3418.58140	0.98235
3416.52449	0.98266
3414.46758	0.98281
3412.41068	0.98270
3410.35377	0.98248
3408.29686	0.98246
3406.23995	0.98268
3404.18304	0.98327
3402.12613	0.98391
3400.06923	0.98382
3398.01232	0.98356
3395.95541	0.98363
3393.89850	0.98333
3391.84159	0.98272
3389.78469	0.98235
3387.72778	0.98272
3385.67087	0.98386
3383.61396	0.98456
3381.55705	0.98428
3379.50014	0.98362
3377.44324	0.98318
3375.38633	0.98323
3373.32942	0.98322
3371.27251	0.98286
3369.21560	0.98251
3367.15870	0.98222
3365.10179	0.98217
3363.04488	0.98264
3360.98797	0.98294
3358.93106	0.98280
3356.87415	0.98292
3354.81725	0.98330
3352.76034	0.98327
3350.70343	0.98256
3348.64652	0.98179
3346.58961	0.98183
3344.53271	0.98250
3342.47580	0.98316
3340.41889	0.98328
3338.36198	0.98306
3336.30507	0.98298
3334.24816	0.98261
3332.19126	0.98198
3330.13435	0.98198
3328.07744	0.98239
3326.02053	0.98256
3323.96362	0.98290
3321.90672	0.98362
3319.84981	0.98397
3317.79290	0.98336
3315.73599	0.98237
3313.67908	0.98240
3311.62217	0.98315
3309.56527	0.98321
3307.50836	0.98256
3305.45145	0.98207
3303.39454	0.98191
3301.33763	0.98157
3299.28073	0.98106
3297.22382	0.98098
3295.16691	0.98155
3293.11000	0.98223
3291.05309	0.98262
3288.99618	0.98281
3286.93928	0.98299
3284.88237	0.98321
3282.82546	0.98318
3280.76855	0.98297
3278.71164	0.98286
3276.65474	0.98280
3274.59783	0.98300
3272.54092	0.98343
3270.48401	0.98332
3268.42710	0.98288
3266.37019	0.98298
3264.31329	0.98319
3262.25638	0.98316
3260.19947	0.98379
3258.14256	0.98476
3256.08565	0.98472
3254.02875	0.98382
3251.97184	0.98314
3249.91493	0.98319
3247.85802	0.98341
3245.80111	0.98309
3243.74420	0.98274
3241.68730	0.98276
3239.63039	0.98293
3237.57348	0.98312
3235.51657	0.98293
3233.45966	0.98270
3231.40276	0.98287
3229.34585	0.98283
3227.28894	0.98253
3225.23203	0.98221
3223.17512	0.98202
3221.11821	0.98204
3219.06131	0.98202
3217.00440	0.98213
3214.94749	0.98241
3212.89058	0.98274
3210.83367	0.98308
3208.77677	0.98324
3206.71986	0.98325
3204.66295	0.98328
3202.60604	0.98344
3200.54913	0.98349
3198.49222	0.98317
3196.43532	0.98273
3194.37841	0.98250
3192.32150	0.98290
3190.26459	0.98372
3188.20768	0.98368
3186.15078	0.98261
3184.09387	0.98200
3182.03696	0.98247
3179.98005	0.98293
3177.92314	0.98277
3175.86623	0.98264
3173.80933	0.98300
3171.75242	0.98338
3169.69551	0.98346
3167.63860	0.98350
3165.58169	0.98324
3163.52479	0.98241
3161.46788	0.98186
3159.41097	0.98210
3157.35406	0.98240
3155.29715	0.98257
3153.24024	0.98305
3151.18334	0.98328
3149.12643	0.98266
3147.06952	0.98211
3145.01261	0.98233
3142.95570	0.98256
3140.89880	0.98249
3138.84189	0.98253
3136.78498	0.98271
3134.72807	0.98275
3132.67116	0.98263
3130.61425	0.98242
3128.55735	0.98211
3126.50044	0.98193
3124.44353	0.98193
3122.38662	0.98220
3120.32971	0.98282
3118.27281	0.98328
3116.21590	0.98320
3114.15899	0.98311
3112.10208	0.98308
3110.04517	0.98283
3107.98826	0.98261
3105.93136	0.98234
3103.87445	0.98205
3101.81754	0.98225
3099.76063	0.98261
3097.70372	0.98226
3095.64682	0.98183
3093.58991	0.98213
3091.53300	0.98255
3089.47609	0.98260
3087.41918	0.98218
3085.36227	0.98150
3083.30537	0.98145
3081.24846	0.98199
3079.19155	0.98228
3077.13464	0.98228
3075.07773	0.98246
3073.02083	0.98245
3070.96392	0.98187
3068.90701	0.98144
3066.85010	0.98169
3064.79319	0.98197
3062.73628	0.98202
3060.67938	0.98191
3058.62247	0.98151
3056.56556	0.98133
3054.50865	0.98175
3052.45174	0.98198
3050.39484	0.98164
3048.33793	0.98135
3046.28102	0.98132
3044.22411	0.98134
3042.16720	0.98131
3040.11029	0.98140
3038.05339	0.98156
3035.99648	0.98159
3033.93957	0.98145
3031.88266	0.98106
3029.82575	0.98062
3027.76885	0.98043
3025.71194	0.98059
3023.65503	0.98083
3021.59812	0.98075
3019.54121	0.98040
3017.48430	0.97998
3015.42740	0.97982
3013.37049	0.98008
3011.31358	0.98034
3009.25667	0.98048
3007.19976	0.98062
3005.14286	0.98040
3003.08595	0.97973
3001.02904	0.97907
2998.97213	0.97864
2996.91522	0.97851
2994.85831	0.97879
2992.80141	0.97926
2990.74450	0.97963
2988.68759	0.97948
2986.63068	0.97890
2984.57377	0.97870
2982.51687	0.97885
2980.45996	0.97886
2978.40305	0.97887
2976.34614	0.97892
2974.28923	0.97880
2972.23232	0.97823
2970.17542	0.97721
2968.11851	0.97626
2966.06160	0.97551
2964.00469	0.97515
2961.94778	0.97535
2959.89088	0.97553
2957.83397	0.97527
2955.77706	0.97495
2953.72015	0.97502
2951.66324	0.97526
2949.60633	0.97533
2947.54943	0.97517
2945.49252	0.97502
2943.43561	0.97501
2941.37870	0.97510
2939.32179	0.97545
2937.26489	0.97597
2935.20798	0.97625
2933.15107	0.97620
2931.09416	0.97606
2929.03725	0.97615
2926.98034	0.97688
2924.92344	0.97775
2922.86653	0.97787
2920.80962	0.97769
2918.75271	0.97792
2916.69580	0.97817
2914.63890	0.97772
2912.58199	0.97697
2910.52508	0.97683
2908.46817	0.97721
2906.41126	0.97766
2904.35435	0.97799
2902.29745	0.97800
2900.24054	0.97761
2898.18363	0.97715
2896.12672	0.97701
2894.06981	0.97719
2892.01291	0.97736
2889.95600	0.97733
2887.89909	0.97710
2885.84218	0.97695
2883.78527	0.97703
2881.72836	0.97710
2879.67146	0.97715
2877.61455	0.97724
2875.55764	0.97711
2873.50073	0.97673
2871.44382	0.97658
2869.38692	0.97685
2867.33001	0.97731
2865.27310	0.97767
2863.21619	0.97774
2861.15928	0.97767
2859.10237	0.97767
2857.04547	0.97766
2854.98856	0.97768
2852.93165	0.97810
2850.87474	0.97877
2848.81783	0.97928
2846.76093	0.97958
2844.70402	0.97973
2842.64711	0.97991
2840.59020	0.98025
2838.53329	0.98046
2836.47638	0.98021
2834.41948	0.97990
2832.36257	0.98001
2830.30566	0.98020
2828.24875	0.98042
2826.19184	0.98076
2824.13494	0.98086
2822.07803	0.98060
2820.02112	0.98029
2817.96421	0.98014
2815.90730	0.98013
2813.85039	0.98020
2811.79349	0.98036
2809.73658	0.98048
2807.67967	0.98050
2805.62276	0.98065
2803.56585	0.98106
2801.50895	0.98136
2799.45204	0.98147
2797.39513	0.98160
2795.33822	0.98152
2793.28131	0.98114
2791.22440	0.98085
2789.16750	0.98067
2787.11059	0.98038
2785.05368	0.98016
2782.99677	0.98020
2780.93986	0.98056
2778.88296	0.98110
2776.82605	0.98138
2774.76914	0.98120
2772.71223	0.98093
2770.65532	0.98078
2768.59841	0.98078
2766.54151	0.98109
2764.48460	0.98131
2762.42769	0.98119
2760.37078	0.98121
2758.31387	0.98144
2756.25697	0.98156
2754.20006	0.98144
2752.14315	0.98106
2750.08624	0.98069
2748.02933	0.98068
2745.97242	0.98100
2743.91552	0.98125
2741.85861	0.98120
2739.80170	0.98102
2737.74479	0.98095
2735.68788	0.98100
2733.63098	0.98083
2731.57407	0.98054
2729.51716	0.98063
2727.46025	0.98089
2725.40334	0.98105
2723.34643	0.98139
2721.28953	0.98178
2719.23262	0.98162
2717.17571	0.98129
2715.11880	0.98136
2713.06189	0.98132
2711.00499	0.98102
2708.94808	0.98092
2706.89117	0.98094
2704.83426	0.98112
2702.77735	0.98148
2700.72044	0.98157
2698.66354	0.98150
2696.60663	0.98162
2694.54972	0.98164
2692.49281	0.98127
2690.43590	0.98088
2688.37900	0.98078
2686.32209	0.98072
2684.26518	0.98070
2682.20827	0.98082
2680.15136	0.98087
2678.09445	0.98089
2676.03755	0.98099
2673.98064	0.98104
2671.92373	0.98111
2669.86682	0.98116
2667.80991	0.98108
2665.75301	0.98103
2663.69610	0.98093
2661.63919	0.98061
2659.58228	0.98046
2657.52537	0.98084
2655.46846	0.98139
2653.41156	0.98147
2651.35465	0.98117
2649.29774	0.98108
2647.24083	0.98124
2645.18392	0.98123
2643.12702	0.98105
2641.07011	0.98089
2639.01320	0.98076
2636.95629	0.98080
2634.89938	0.98102
2632.84247	0.98116
2630.78557	0.98121
2628.72866	0.98130
2626.67175	0.98164
2624.61484	0.98194
2622.55793	0.98196
2620.50103	0.98197
2618.44412	0.98174
2616.38721	0.98127
2614.33030	0.98108
2612.27339	0.98105
2610.21648	0.98094
2608.15958	0.98107
2606.10267	0.98146
2604.04576	0.98166
2601.98885	0.98137
2599.93194	0.98104
2597.87504	0.98152
2595.81813	0.98230
2593.76122	0.98243
2591.70431	0.98206
2589.64740	0.98164
2587.59049	0.98137
2585.53359	0.98147
2583.47668	0.98198
2581.41977	0.98227
2579.36286	0.98206
2577.30595	0.98200
2575.24905	0.98258
2573.19214	0.98311
2571.13523	0.98268
2569.07832	0.98207
2567.02141	0.98198
2564.96450	0.98196
2562.90760	0.98206
2560.85069	0.98239
2558.79378	0.98247
2556.73687	0.98255
2554.67996	0.98272
2552.62306	0.98256
2550.56615	0.98261
2548.50924	0.98288
2546.45233	0.98292
2544.39542	0.98327
2542.33851	0.98353
2540.28161	0.98278
2538.22470	0.98190
2536.16779	0.98189
2534.11088	0.98205
2532.05397	0.98176
2529.99707	0.98155
2527.94016	0.98156
2525.88325	0.98150
2523.82634	0.98155
2521.76943	0.98187
2519.71252	0.98251
2517.65562	0.98308
2515.59871	0.98248
2513.54180	0.98110
2511.48489	0.98070
2509.42798	0.98120
2507.37108	0.98168
2505.31417	0.98221
2503.25726	0.98240
2501.20035	0.98208
2499.14344	0.98223
2497.08653	0.98295
2495.02963	0.98326
2492.97272	0.98328
2490.91581	0.98372
2488.85890	0.98400
2486.80199	0.98353
2484.74509	0.98288
2482.68818	0.98228
2480.63127	0.98176
2478.57436	0.98187
2476.51745	0.98252
2474.46054	0.98290
2472.40364	0.98265
2470.34673	0.98212
2468.28982	0.98198
2466.23291	0.98218
2464.17600	0.98210
2462.11910	0.98218
2460.06219	0.98256
2458.00528	0.98247
2455.94837	0.98216
2453.89146	0.98215
2451.83455	0.98250
2449.77765	0.98292
2447.72074	0.98277
2445.66383	0.98216
2443.60692	0.98200
2441.55001	0.98256
2439.49311	0.98263
2437.43620	0.98183
2435.37929	0.98137
2433.32238	0.98123
2431.26547	0.98135
2429.20856	0.98229
2427.15166	0.98327
2425.09475	0.98353
2423.03784	0.98340
2420.98093	0.98334
2418.92402	0.98355
2416.86712	0.98373
2414.81021	0.98349
2412.75330	0.98285
2410.69639	0.98208
2408.63948	0.98178
2406.58257	0.98202
2404.52567	0.98210
2402.46876	0.98202
2400.41185	0.98250
2398.35494	0.98318
2396.29803	0.98298
2394.24113	0.98249
2392.18422	0.98245
2390.12731	0.98232
2388.07040	0.98183
2386.01349	0.98160
2383.95658	0.98193
2381.89968	0.98220
2379.84277	0.98234
2377.78586	0.98267
2375.72895	0.98286
2373.67204	0.98260
2371.61514	0.98221
2369.55823	0.98287
2367.50132	0.98456
2365.44441	0.98476
2363.38750	0.98300
2361.33059	0.98213
2359.27369	0.98262
2357.21678	0.98200
2355.15987	0.98062
2353.10296	0.98073
2351.04605	0.98176
2348.98915	0.98222
2346.93224	0.98223
2344.87533	0.98225
2342.81842	0.98234
2340.76151	0.98274
2338.70460	0.98319
2336.64770	0.98332
2334.59079	0.98312
2332.53388	0.98256
2330.47697	0.98220
2328.42006	0.98215
2326.36316	0.98226
2324.30625	0.98287
2322.24934	0.98298
2320.19243	0.98209
2318.13552	0.98152
2316.07861	0.98159
2314.02171	0.98156
2311.96480	0.98137
2309.90789	0.98141
2307.85098	0.98172
2305.79407	0.98194
2303.73717	0.98192
2301.68026	0.98199
2299.62335	0.98225
2297.56644	0.98285
2295.50953	0.98344
2293.45262	0.98304
2291.39572	0.98201
2289.33881	0.98164
2287.28190	0.98230
2285.22499	0.98320
2283.16808	0.98364
2281.11117	0.98396
2279.05427	0.98409
2276.99736	0.98348
2274.94045	0.98292
2272.88354	0.98328
2270.82663	0.98402
2268.76973	0.98392
2266.71282	0.98302
2264.65591	0.98266
2262.59900	0.98285
2260.54209	0.98229
2258.48518	0.98141
2256.42828	0.98159
2254.37137	0.98238
2252.31446	0.98280
2250.25755	0.98246
2248.20064	0.98211
2246.14374	0.98250
2244.08683	0.98262
2242.02992	0.98234
2239.97301	0.98262
2237.91610	0.98322
2235.85919	0.98337
2233.80229	0.98289
2231.74538	0.98279
2229.68847	0.98305
2227.63156	0.98228
2225.57465	0.98138
2223.51775	0.98205
2221.46084	0.98325
2219.40393	0.98362
2217.34702	0.98333
2215.29011	0.98290
2213.23320	0.98272
2211.17630	0.98271
2209.11939	0.98321
2207.06248	0.98425
2205.00557	0.98484
2202.94866	0.98421
2200.89176	0.98335
2198.83485	0.98373
2196.77794	0.98421
2194.72103	0.98357
2192.66412	0.98334
2190.60721	0.98444
2188.55031	0.98487
2186.49340	0.98393
2184.43649	0.98268
2182.37958	0.98179
2180.32267	0.98210
2178.26577	0.98295
2176.20886	0.98364
2174.15195	0.98398
2172.09504	0.98308
2170.03813	0.98164
2167.98122	0.98168
2165.92432	0.98275
2163.86741	0.98242
2161.81050	0.98091
2159.75359	0.98192
2157.69668	0.98554
2155.63978	0.98655
2153.58287	0.98496
2151.52596	0.98383
2149.46905	0.98407
2147.41214	0.98493
2145.35523	0.98457
2143.29833	0.98302
2141.24142	0.98164
2139.18451	0.98156
2137.12760	0.98279
2135.07069	0.98358
2133.01379	0.98386
2130.95688	0.98411
2128.89997	0.98393
2126.84306	0.98363
2124.78615	0.98349
2122.72924	0.98383
2120.67234	0.98483
2118.61543	0.98542
2116.55852	0.98460
2114.50161	0.98338
2112.44470	0.98325
2110.38780	0.98346
2108.33089	0.98312
2106.27398	0.98299
2104.21707	0.98255
2102.16016	0.98131
2100.10325	0.98101
2098.04635	0.98204
2095.98944	0.98321
2093.93253	0.98419
2091.87562	0.98470
2089.81871	0.98471
2087.76181	0.98418
2085.70490	0.98303
2083.64799	0.98228
2081.59108	0.98214
2079.53417	0.98186
2077.47726	0.98217
2075.42036	0.98346
2073.36345	0.98466
2071.30654	0.98489
2069.24963	0.98430
2067.19272	0.98379
2065.13582	0.98356
2063.07891	0.98351
2061.02200	0.98310
2058.96509	0.98217
2056.90818	0.98237
2054.85127	0.98307
2052.79437	0.98269
2050.73746	0.98254
2048.68055	0.98224
2046.62364	0.98143
2044.56673	0.98231
2042.50983	0.98386
2040.45292	0.98494
2038.39601	0.98650
2036.33910	0.98673
2034.28219	0.98461
2032.22528	0.98197
2030.16838	0.98100
2028.11147	0.98329
2026.05456	0.98711
2023.99765	0.98941
2021.94074	0.98839
2019.88384	0.98583
2017.82693	0.98559
2015.77002	0.98697
2013.71311	0.98742
2011.65620	0.98675
2009.59929	0.98556
2007.54239	0.98471
2005.48548	0.98449
2003.42857	0.98462
2001.37166	0.98517
1999.31475	0.98604
1997.25785	0.98621
1995.20094	0.98541
1993.14403	0.98428
1991.08712	0.98370
1989.03021	0.98507
1986.97330	0.98715
1984.91640	0.98713
1982.85949	0.98596
1980.80258	0.98551
1978.74567	0.98530
1976.68876	0.98532
1974.63186	0.98550
1972.57495	0.98630
1970.51804	0.98768
1968.46113	0.98638
1966.40422	0.98336
1964.34731	0.98289
1962.29041	0.98371
1960.23350	0.98387
1958.17659	0.98426
1956.11968	0.98496
1954.06277	0.98571
1952.00587	0.98613
1949.94896	0.98546
1947.89205	0.98510
1945.83514	0.98557
1943.77823	0.98515
1941.72132	0.98450
1939.66442	0.98456
1937.60751	0.98429
1935.55060	0.98412
1933.49369	0.98464
1931.43678	0.98535
1929.37988	0.98602
1927.32297	0.98623
1925.26606	0.98599
1923.20915	0.98551
1921.15224	0.98457
1919.09533	0.98409
1917.03843	0.98464
1914.98152	0.98507
1912.92461	0.98508
1910.86770	0.98496
1908.81079	0.98485
1906.75389	0.98543
1904.69698	0.98640
1902.64007	0.98682
1900.58316	0.98639
1898.52625	0.98548
1896.46934	0.98472
1894.41244	0.98481
1892.35553	0.98580
1890.29862	0.98658
1888.24171	0.98674
1886.18480	0.98687
1884.12790	0.98668
1882.07099	0.98578
1880.01408	0.98532
1877.95717	0.98572
1875.90026	0.98609
1873.84335	0.98641
1871.78645	0.98686
1869.72954	0.98671
1867.67263	0.98606
1865.61572	0.98594
1863.55881	0.98607
1861.50191	0.98623
1859.44500	0.98647
1857.38809	0.98641
1855.33118	0.98615
1853.27427	0.98637
1851.21736	0.98682
1849.16046	0.98683
1847.10355	0.98651
1845.04664	0.98624
1842.98973	0.98607
1840.93282	0.98587
1838.87592	0.98597
1836.81901	0.98656
1834.76210	0.98719
1832.70519	0.98733
1830.64828	0.98721
1828.59137	0.98717
1826.53447	0.98693
1824.47756	0.98633
1822.42065	0.98606
1820.36374	0.98632
1818.30683	0.98639
1816.24993	0.98602
1814.19302	0.98554
1812.13611	0.98535
1810.07920	0.98570
1808.02229	0.98612
1805.96538	0.98612
1803.90848	0.98610
1801.85157	0.98611
1799.79466	0.98582
1797.73775	0.98523
1795.68084	0.98452
1793.62394	0.98398
1791.56703	0.98320
1789.51012	0.98210
1787.45321	0.98122
1785.39630	0.98067
1783.33939	0.97980
1781.28249	0.97820
1779.22558	0.97568
1777.16867	0.97249
1775.11176	0.96884
1773.05485	0.96345
1770.99795	0.95586
1768.94104	0.94753
1766.88413	0.93768
1764.82722	0.92668
1762.77031	0.91382
1760.71340	0.89948
1758.65650	0.88756
1756.59959	0.87678
1754.54268	0.86759
1752.48577	0.86041
1750.42886	0.85288
1748.37196	0.84567
1746.31505	0.84002
1744.25814	0.83503
1742.20123	0.83042
1740.14432	0.82676
1738.08741	0.82529
1736.03051	0.82611
1733.97360	0.82874
1731.91669	0.83421
1729.85978	0.84203
1727.80287	0.85147
1725.74597	0.86189
1723.68906	0.87299
1721.63215	0.88338
1719.57524	0.89304
1717.51833	0.90339
1715.46142	0.91244
1713.40452	0.91907
1711.34761	0.92457
1709.29070	0.92896
1707.23379	0.93270
1705.17688	0.93646
1703.11998	0.93991
1701.06307	0.94316
1699.00616	0.94622
1696.94925	0.94842
1694.89234	0.95003
1692.83543	0.95152
1690.77853	0.95312
1688.72162	0.95487
1686.66471	0.95669
1684.60780	0.95838
1682.55089	0.95930
1680.49399	0.96002
1678.43708	0.96075
1676.38017	0.96131
1674.32326	0.96211
1672.26635	0.96320
1670.20944	0.96397
1668.15254	0.96431
1666.09563	0.96464
1664.03872	0.96489
1661.98181	0.96505
1659.92490	0.96534
1657.86800	0.96567
1655.81109	0.96598
1653.75418	0.96594
1651.69727	0.96550
1649.64036	0.96544
1647.58345	0.96541
1645.52655	0.96541
1643.46964	0.96573
1641.41273	0.96608
1639.35582	0.96648
1637.29891	0.96702
1635.24201	0.96749
1633.18510	0.96776
1631.12819	0.96817
1629.07128	0.96873
1627.01437	0.96918
1624.95746	0.96967
1622.90056	0.97019
1620.84365	0.97043
1618.78674	0.97059
1616.72983	0.97090
1614.67292	0.97127
1612.61602	0.97173
1610.55911	0.97217
1608.50220	0.97255
1606.44529	0.97307
1604.38838	0.97349
1602.33147	0.97367
1600.27457	0.97391
1598.21766	0.97420
1596.16075	0.97453
1594.10384	0.97490
1592.04693	0.97513
1589.99003	0.97506
1587.93312	0.97494
1585.87621	0.97525
1583.81930	0.97576
1581.76239	0.97595
1579.70548	0.97599
1577.64858	0.97610
1575.59167	0.97605
1573.53476	0.97605
1571.47785	0.97627
1569.42094	0.97646
1567.36404	0.97656
1565.30713	0.97669
1563.25022	0.97693
1561.19331	0.97727
1559.13640	0.97763
1557.07949	0.97722
1555.02259	0.97663
1552.96568	0.97652
1550.90877	0.97679
1548.85186	0.97703
1546.79495	0.97716
1544.73805	0.97755
1542.68114	0.97822
1540.62423	0.97838
1538.56732	0.97808
1536.51041	0.97805
1534.45350	0.97792
1532.39660	0.97770
1530.33969	0.97774
1528.28278	0.97790
1526.22587	0.97798
1524.16896	0.97792
1522.11206	0.97775
1520.05515	0.97784
1517.99824	0.97839
1515.94133	0.97886
1513.88442	0.97883
1511.82751	0.97865
1509.77061	0.97872
1507.71370	0.97894
1505.65679	0.97914
1503.59988	0.97941
1501.54297	0.97970
1499.48607	0.97982
1497.42916	0.97964
1495.37225	0.97946
1493.31534	0.97944
1491.25843	0.97946
1489.20152	0.97954
1487.14462	0.97970
1485.08771	0.97983
1483.03080	0.97973
1480.97389	0.97946
1478.91698	0.97924
1476.86008	0.97893
1474.80317	0.97842
1472.74626	0.97771
1470.68935	0.97677
1468.63244	0.97579
1466.57553	0.97470
1464.51863	0.97342
1462.46172	0.97233
1460.40481	0.97163
1458.34790	0.97079
1456.29099	0.96931
1454.23409	0.96830
1452.17718	0.96785
1450.12027	0.96719
1448.06336	0.96598
1446.00645	0.96473
1443.94954	0.96372
1441.89264	0.96244
1439.83573	0.96104
1437.77882	0.95985
1435.72191	0.95875
1433.66500	0.95793
1431.60810	0.95755
1429.55119	0.95785
1427.49428	0.95873
1425.43737	0.95976
1423.38046	0.96108
1421.32355	0.96265
1419.26665	0.96413
1417.20974	0.96518
1415.15283	0.96599
1413.09592	0.96693
1411.03901	0.96802
1408.98211	0.96899
1406.92520	0.96959
1404.86829	0.96987
1402.81138	0.97003
1400.75447	0.97007
1398.69756	0.96959
1396.64066	0.96826
1394.58375	0.96588
1392.52684	0.96255
1390.46993	0.95868
1388.41302	0.95361
1386.35612	0.94686
1384.29921	0.94000
1382.24230	0.93372
1380.18539	0.92784
1378.12848	0.92246
1376.07157	0.91702
1374.01467	0.91059
1371.95776	0.90417
1369.90085	0.89903
1367.84394	0.89535
1365.78703	0.89410
1363.73013	0.89650
1361.67322	0.90357
1359.61631	0.91398
1357.55940	0.92548
1355.50249	0.93672
1353.44558	0.94638
1351.38868	0.95357
1349.33177	0.95839
1347.27486	0.96161
1345.21795	0.96387
1343.16104	0.96549
1341.10414	0.96692
1339.04723	0.96822
1336.99032	0.96893
1334.93341	0.96919
1332.87650	0.96921
1330.81959	0.96903
1328.76269	0.96869
1326.70578	0.96823
1324.64887	0.96791
1322.59196	0.96793
1320.53505	0.96816
1318.47815	0.96860
1316.42124	0.96931
1314.36433	0.97010
1312.30742	0.97083
1310.25051	0.97154
1308.19360	0.97221
1306.13670	0.97287
1304.07979	0.97328
1302.02288	0.97310
1299.96597	0.97245
1297.90906	0.97178
1295.85216	0.97131
1293.79525	0.97074
1291.73834	0.96988
1289.68143	0.96901
1287.62452	0.96820
1285.56761	0.96722
1283.51071	0.96588
1281.45380	0.96410
1279.39689	0.96188
1277.33998	0.95914
1275.28307	0.95581
1273.22617	0.95218
1271.16926	0.94836
1269.11235	0.94419
1267.05544	0.93956
1264.99853	0.93430
1262.94162	0.92824
1260.88472	0.92165
1258.82781	0.91481
1256.77090	0.90756
1254.71399	0.89980
1252.65708	0.89170
1250.60018	0.88319
1248.54327	0.87406
1246.48636	0.86422
1244.42945	0.85399
1242.37254	0.84368
1240.31563	0.83319
1238.25873	0.82268
1236.20182	0.81283
1234.14491	0.80399
1232.08800	0.79616
1230.03109	0.78935
1227.97419	0.78393
1225.91728	0.78032
1223.86037	0.77815
1221.80346	0.77642
1219.74655	0.77433
1217.68964	0.77178
1215.63274	0.76928
1213.57583	0.76747
1211.51892	0.76695
1209.46201	0.76821
1207.40510	0.77204
1205.34820	0.77923
1203.29129	0.78984
1201.23438	0.80326
1199.17747	0.81838
1197.12056	0.83363
1195.06365	0.84772
1193.00675	0.86000
1190.94984	0.87053
1188.89293	0.87943
1186.83602	0.88628
1184.77911	0.89093
1182.72221	0.89383
1180.66530	0.89542
1178.60839	0.89583
1176.55148	0.89532
1174.49457	0.89471
1172.43766	0.89434
1170.38076	0.89357
1168.32385	0.89272
1166.26694	0.89261
1164.21003	0.89295
1162.15312	0.89354
1160.09622	0.89479
1158.03931	0.89671
1155.98240	0.89902
1153.92549	0.90175
1151.86858	0.90472
1149.81167	0.90766
1147.75477	0.91047
1145.69786	0.91292
1143.64095	0.91463
1141.58404	0.91547
1139.52713	0.91561
1137.47023	0.91500
1135.41332	0.91371
1133.35641	0.91237
1131.29950	0.91088
1129.24259	0.90875
1127.18568	0.90662
1125.12878	0.90553
1123.07187	0.90534
1121.01496	0.90560
1118.95805	0.90629
1116.90114	0.90710
1114.84424	0.90792
1112.78733	0.90885
1110.73042	0.90956
1108.67351	0.90988
1106.61660	0.91026
1104.55969	0.91078
1102.50279	0.91046
1100.44588	0.90824
1098.38897	0.90452
1096.33206	0.90026
1094.27515	0.89568
1092.21825	0.89061
1090.16134	0.88535
1088.10443	0.88055
1086.04752	0.87606
1083.99061	0.87146
1081.93370	0.86692
1079.87680	0.86255
1077.81989	0.85812
1075.76298	0.85351
1073.70607	0.84901
1071.64916	0.84498
1069.59226	0.84141
1067.53535	0.83797
1065.47844	0.83434
1063.42153	0.83015
1061.36462	0.82545
1059.30771	0.82019
1057.25081	0.81406
1055.19390	0.80734
1053.13699	0.80033
1051.08008	0.79305
1049.02317	0.78608
1046.96627	0.78035
1044.90936	0.77600
1042.85245	0.77248
1040.79554	0.76920
1038.73863	0.76578
1036.68172	0.76230
1034.62482	0.75944
1032.56791	0.75779
1030.51100	0.75759
1028.45409	0.75946
1026.39718	0.76357
1024.34028	0.76917
1022.28337	0.77499
1020.22646	0.78050
1018.16955	0.78648
1016.11264	0.79305
1014.05573	0.79974
1011.99883	0.80665
1009.94192	0.81353
1007.88501	0.81988
1005.82810	0.82579
1003.77119	0.83141
1001.71429	0.83684
999.65738	0.84210
997.60047	0.84680
995.54356	0.85049
993.48665	0.85313
991.42974	0.85525
989.37284	0.85747
987.31593	0.85975
985.25902	0.86186
983.20211	0.86413
981.14520	0.86695
979.08830	0.87020
977.03139	0.87361
974.97448	0.87709
972.91757	0.88056
970.86066	0.88410
968.80375	0.88762
966.74685	0.89072
964.68994	0.89304
962.63303	0.89461
960.57612	0.89570
958.51921	0.89642
956.46231	0.89667
954.40540	0.89668
952.34849	0.89705
950.29158	0.89799
948.23467	0.89922
946.17776	0.90065
944.12086	0.90252
942.06395	0.90461
940.00704	0.90621
937.95013	0.90738
935.89322	0.90844
933.83632	0.90936
931.77941	0.90994
929.72250	0.90985
927.66559	0.90922
925.60868	0.90857
923.55177	0.90787
921.49487	0.90694
919.43796	0.90613
917.38105	0.90568
915.32414	0.90488
913.26723	0.90308
911.21033	0.90064
909.15342	0.89775
907.09651	0.89442
905.03960	0.89103
902.98269	0.88785
900.92578	0.88520
898.86888	0.88377
896.81197	0.88434
894.75506	0.88692
892.69815	0.89066
890.64124	0.89450
888.58434	0.89774
886.52743	0.90030
884.47052	0.90216
882.41361	0.90296
880.35670	0.90311
878.29979	0.90344
876.24289	0.90379
874.18598	0.90382
872.12907	0.90448
870.07216	0.90689
868.01525	0.91049
865.95835	0.91399
863.90144	0.91698
861.84453	0.91937
859.78762	0.92104
857.73071	0.92226
855.67380	0.92338
853.61690	0.92473
851.55999	0.92595
849.50308	0.92637
847.44617	0.92636
845.38926	0.92651
843.33236	0.92627
841.27545	0.92522
839.21854	0.92417
837.16163	0.92379
835.10472	0.92427
833.04781	0.92548
830.99091	0.92671
828.93400	0.92772
826.87709	0.92910
824.82018	0.93086
822.76327	0.93225
820.70637	0.93333
818.64946	0.93436
816.59255	0.93552
814.53564	0.93716
812.47873	0.93847
810.42182	0.93864
808.36492	0.93853
806.30801	0.93886
804.25110	0.93901
802.19419	0.93901
800.13728	0.93969
798.08038	0.94066
796.02347	0.94144
793.96656	0.94203
791.90965	0.94214
789.85274	0.94188
787.79583	0.94217
785.73893	0.94297
783.68202	0.94342
781.62511	0.94340
779.56820	0.94331
777.51129	0.94366
775.45439	0.94407
773.39748	0.94440
771.34057	0.94483
769.28366	0.94488
767.22675	0.94476
765.16984	0.94525
763.11294	0.94626
761.05603	0.94688
758.99912	0.94699
756.94221	0.94693
754.88530	0.94676
752.82839	0.94661
750.77149	0.94654
748.71458	0.94676
746.65767	0.94730
744.60076	0.94780
742.54385	0.94849
740.48695	0.94938
738.43004	0.94945
736.37313	0.94892
734.31622	0.94870
732.25931	0.94833
730.20240	0.94747
728.14550	0.94651
726.08859	0.94600
724.03168	0.94600
721.97477	0.94572
719.91786	0.94531
717.86096	0.94568
715.80405	0.94651
713.74714	0.94681
711.69023	0.94620
709.63332	0.94515
707.57641	0.94428
705.51951	0.94344
703.46260	0.94225
701.40569	0.94123
699.34878	0.94119
697.29187	0.94151
695.23497	0.94090
693.17806	0.94041
691.12115	0.94110
689.06424	0.94165
687.00733	0.94192
684.95042	0.94251
682.89352	0.94283
680.83661	0.94289
678.77970	0.94302
676.72279	0.94308
674.66588	0.94304
672.60898	0.94336
670.55207	0.94438
668.49516	0.94520
666.43825	0.94447
664.38134	0.94369
662.32443	0.94312
660.26753	0.94171
658.21062	0.94032
656.15371	0.94011
654.09680	0.93998
652.03989	0.93917
649.98299	0.93802
647.92608	0.93587
645.86917	0.93308
643.81226	0.93188
641.75535	0.93237
639.69844	0.93304
637.64154	0.93396
635.58463	0.93479
633.52772	0.93489
631.47081	0.93476
629.41390	0.93408
627.35700	0.93200
625.30009	0.92925
623.24318	0.92744
621.18627	0.92655
619.12936	0.92539
617.07245	0.92392
615.01555	0.92229
612.95864	0.91890
610.90173	0.91376
608.84482	0.90846
606.78791	0.90265
604.73101	0.89682
602.67410	0.89284
600.61719	0.89139
598.56028	0.89294
596.50337	0.89739
594.44646	0.90221
592.38956	0.90481
590.33265	0.90623
588.27574	0.90938
586.21883	0.91469
584.16192	0.92017
582.10502	0.92416
580.04811	0.92708
577.99120	0.92964
575.93429	0.93067
573.87738	0.93037
571.82047	0.93081
569.76357	0.93124
567.70666	0.93071
565.64975	0.93031
563.59284	0.92951
561.53593	0.92777
559.47903	0.92622
557.42212	0.92519
555.36521	0.92477
553.30830	0.92459
551.25139	0.92481
549.19448	0.92690
547.13758	0.92973
545.08067	0.93091
543.02376	0.93097
540.96685	0.93145
538.90994	0.93243
536.85304	0.93321
534.79613	0.93375
532.73922	0.93398
530.68231	0.93376
528.62540	0.93415
526.56849	0.93499
524.51159	0.93579
522.45468	0.93757
520.39777	0.93897
518.34086	0.93847
516.28395	0.93699
514.22705	0.93576
512.17014	0.93533
510.11323	0.93563
508.05632	0.93655
505.99941	0.93759
503.94250	0.93725
501.88560	0.93473
499.82869	0.93181
497.77178	0.92945
495.71487	0.92688
493.65796	0.92562
491.60106	0.92567
489.54415	0.92498
487.48724	0.92446
485.43033	0.92394
483.37342	0.92281
481.31651	0.92232
479.25961	0.92249
477.20270	0.92280
475.14579	0.92293
473.08888	0.92328
471.03197	0.92352
468.97507	0.92238
466.91816	0.92214
464.86125	0.92488
462.80434	0.92700
460.74743	0.92569
458.69052	0.92279
456.63362	0.91859
454.57671	0.91422
452.51980	0.91213
450.46289	0.91271
448.40598	0.91399
446.34908	0.91340
444.29217	0.91369
442.23526	0.91686
440.17835	0.91729
438.12144	0.91547
436.06453	0.91808
434.00763	0.92194
431.95072	0.92122
429.89381	0.92032
427.83690	0.92245
425.77999	0.92492
423.72309	0.92565
421.66618	0.92362
419.60927	0.91911
417.55236	0.91618
415.49545	0.91749
413.43854	0.92096
411.38164	0.92427
409.32473	0.92545
407.26782	0.92364
405.21091	0.91876
403.15400	0.91396
401.09710	0.91169
399.04019	0.91269
