3996.57260	0.99073
3994.51569	0.99107
3992.45878	0.99112
3990.40188	0.99098
3988.34497	0.99092
3986.28806	0.99128
3984.23115	0.99221
3982.17424	0.99287
3980.11733	0.99234
3978.06043	0.99135
3976.00352	0.99089
3973.94661	0.99088
3971.88970	0.99110
3969.83279	0.99129
3967.77589	0.99145
3965.71898	0.99154
3963.66207	0.99152
3961.60516	0.99165
3959.54825	0.99186
3957.49134	0.99215
3955.43444	0.99251
3953.37753	0.99242
3951.32062	0.99217
3949.26371	0.99285
3947.20680	0.99349
3945.14990	0.99250
3943.09299	0.99132
3941.03608	0.99147
3938.97917	0.99177
3936.92226	0.99147
3934.86535	0.99120
3932.80845	0.99152
3930.75154	0.99239
3928.69463	0.99265
3926.63772	0.99186
3924.58081	0.99095
3922.52391	0.99090
3920.46700	0.99164
3918.41009	0.99247
3916.35318	0.99253
3914.29627	0.99186
3912.23936	0.99167
3910.18246	0.99212
3908.12555	0.99183
3906.06864	0.99077
3904.01173	0.99065
3901.95482	0.99184
3899.89792	0.99296
3897.84101	0.99294
3895.78410	0.99230
3893.72719	0.99234
3891.67028	0.99291
3889.61337	0.99290
3887.55647	0.99251
3885.49956	0.99197
3883.44265	0.99157
3881.38574	0.99176
3879.32883	0.99219
3877.27193	0.99239
3875.21502	0.99219
3873.15811	0.99188
3871.10120	0.99177
3869.04429	0.99155
3866.98738	0.99083
3864.93048	0.99039
3862.87357	0.99128
3860.81666	0.99244
3858.75975	0.99257
3856.70284	0.99149
3854.64594	0.98978
3852.58903	0.98946
3850.53212	0.99049
3848.47521	0.99102
3846.41830	0.99093
3844.36139	0.99063
3842.30449	0.99072
3840.24758	0.99120
3838.19067	0.99127
3836.13376	0.99108
3834.07685	0.99109
3832.01995	0.99103
3829.96304	0.99124
3827.90613	0.99185
3825.84922	0.99242
3823.79231	0.99265
3821.73540	0.99238
3819.67850	0.99152
3817.62159	0.99046
3815.56468	0.99024
3813.50777	0.99109
3811.45086	0.99175
3809.39396	0.99183
3807.33705	0.99153
3805.28014	0.99137
3803.22323	0.99166
3801.16632	0.99197
3799.10941	0.99182
3797.05251	0.99173
3794.99560	0.99219
3792.93869	0.99286
3790.88178	0.99340
3788.82487	0.99325
3786.76796	0.99252
3784.71106	0.99230
3782.65415	0.99227
3780.59724	0.99178
3778.54033	0.99165
3776.48342	0.99232
3774.42652	0.99305
3772.36961	0.99339
3770.31270	0.99318
3768.25579	0.99287
3766.19888	0.99294
3764.14197	0.99230
3762.08507	0.99128
3760.02816	0.99159
3757.97125	0.99246
3755.91434	0.99241
3753.85743	0.99236
3751.80053	0.99314
3749.74362	0.99376
3747.68671	0.99345
3745.62980	0.99299
3743.57289	0.99242
3741.51598	0.99204
3739.45908	0.99194
3737.40217	0.99176
3735.34526	0.99205
3733.28835	0.99283
3731.23144	0.99251
3729.17454	0.99178
3727.11763	0.99194
3725.06072	0.99273
3723.00381	0.99307
3720.94690	0.99290
3718.88999	0.99255
3716.83309	0.99234
3714.77618	0.99262
3712.71927	0.99299
3710.66236	0.99252
3708.60545	0.99171
3706.54855	0.99163
3704.49164	0.99204
3702.43473	0.99233
3700.37782	0.99242
3698.32091	0.99259
3696.26400	0.99271
3694.20710	0.99231
3692.15019	0.99178
3690.09328	0.99202
3688.03637	0.99259
3685.97946	0.99290
3683.92256	0.99319
3681.86565	0.99304
3679.80874	0.99214
3677.75183	0.99085
3675.69492	0.98988
3673.63801	0.99026
3671.58111	0.99098
3669.52420	0.99087
3667.46729	0.99075
3665.41038	0.99099
3663.35347	0.99079
3661.29657	0.99066
3659.23966	0.99107
3657.18275	0.99138
3655.12584	0.99152
3653.06893	0.99166
3651.01202	0.99148
3648.95512	0.99072
3646.89821	0.99038
3644.84130	0.99111
3642.78439	0.99181
3640.72748	0.99181
3638.67058	0.99144
3636.61367	0.99121
3634.55676	0.99099
3632.49985	0.99062
3630.44294	0.99076
3628.38603	0.99114
3626.32913	0.99068
3624.27222	0.99026
3622.21531	0.99055
3620.15840	0.99103
3618.10149	0.99096
3616.04459	0.99075
3613.98768	0.99085
3611.93077	0.99099
3609.87386	0.99132
3607.81695	0.99182
3605.76004	0.99158
3603.70314	0.99059
3601.64623	0.98961
3599.58932	0.98946
3597.53241	0.99026
3595.47550	0.99123
3593.41860	0.99146
3591.36169	0.99106
3589.30478	0.99066
3587.24787	0.99009
3585.19096	0.98962
3583.13405	0.98949
3581.07715	0.98943
3579.02024	0.98960
3576.96333	0.99027
3574.90642	0.99096
3572.84951	0.99106
3570.79261	0.99081
3568.73570	0.99028
3566.67879	0.98957
3564.62188	0.98941
3562.56497	0.98959
3560.50806	0.98930
3558.45116	0.98891
3556.39425	0.98946
3554.33734	0.99021
3552.28043	0.98986
3550.22352	0.98927
3548.16662	0.98962
3546.10971	0.99018
3544.05280	0.99014
3541.99589	0.98979
3539.93898	0.98960
3537.88207	0.98962
3535.82517	0.98940
3533.76826	0.98868
3531.71135	0.98827
3529.65444	0.98861
3527.59753	0.98906
3525.54063	0.98921
3523.48372	0.98943
3521.42681	0.98969
3519.36990	0.98964
3517.31299	0.98957
3515.25608	0.98976
3513.19918	0.99037
3511.14227	0.99081
3509.08536	0.99000
3507.02845	0.98883
3504.97154	0.98898
3502.91464	0.99014
3500.85773	0.99061
3498.80082	0.99008
3496.74391	0.98956
3494.68700	0.98968
3492.63009	0.98999
3490.57319	0.99011
3488.51628	0.99016
3486.45937	0.98990
3484.40246	0.98937
3482.34555	0.98905
3480.28865	0.98912
3478.23174	0.98951
3476.17483	0.98972
3474.11792	0.98930
3472.06101	0.98908
3470.00410	0.98951
3467.94720	0.98979
3465.89029	0.98977
3463.83338	0.98958
3461.77647	0.98952
3459.71956	0.98984
3457.66266	0.98982
3455.60575	0.98951
3453.54884	0.98936
3451.49193	0.98888
3449.43502	0.98834
3447.37811	0.98841
3445.32121	0.98863
3443.26430	0.98868
3441.20739	0.98888
3439.15048	0.98913
3437.09357	0.98921
3435.03667	0.98929
3432.97976	0.98941
3430.92285	0.98952
3428.86594	0.98998
3426.80903	0.99054
3424.75212	0.99082
3422.69522	0.99094
3420.63831	0.99076
3418.58140	0.99046
3416.52449	0.99030
3414.46758	0.99013
3412.41068	0.98996
3410.35377	0.98981
3408.29686	0.98989
3406.23995	0.99017
3404.18304	0.99055
3402.12613	0.99067
3400.06923	0.99024
3398.01232	0.99013
3395.95541	0.99082
3393.89850	0.99154
3391.84159	0.99201
3389.78469	0.99241
3387.72778	0.99242
3385.67087	0.99197
3383.61396	0.99150
3381.55705	0.99100
3379.50014	0.99049
3377.44324	0.99045
3375.38633	0.99062
3373.32942	0.99075
3371.27251	0.99100
3369.21560	0.99095
3367.15870	0.99064
3365.10179	0.99069
3363.04488	0.99093
3360.98797	0.99107
3358.93106	0.99144
3356.87415	0.99194
3354.81725	0.99214
3352.76034	0.99193
3350.70343	0.99144
3348.64652	0.99104
3346.58961	0.99075
3344.53271	0.99034
3342.47580	0.98988
3340.41889	0.99002
3338.36198	0.99108
3336.30507	0.99206
3334.24816	0.99211
3332.19126	0.99157
3330.13435	0.99105
3328.07744	0.99103
3326.02053	0.99128
3323.96362	0.99136
3321.90672	0.99129
3319.84981	0.99146
3317.79290	0.99184
3315.73599	0.99170
3313.67908	0.99157
3311.62217	0.99185
3309.56527	0.99150
3307.50836	0.99064
3305.45145	0.99013
3303.39454	0.99023
3301.33763	0.99069
3299.28073	0.99098
3297.22382	0.99108
3295.16691	0.99133
3293.11000	0.99147
3291.05309	0.99134
3288.99618	0.99115
3286.93928	0.99108
3284.88237	0.99107
3282.82546	0.99098
3280.76855	0.99095
3278.71164	0.99101
3276.65474	0.99118
3274.59783	0.99134
3272.54092	0.99166
3270.48401	0.99212
3268.42710	0.99203
3266.37019	0.99147
3264.31329	0.99122
3262.25638	0.99135
3260.19947	0.99149
3258.14256	0.99158
3256.08565	0.99161
3254.02875	0.99164
3251.97184	0.99156
3249.91493	0.99148
3247.85802	0.99165
3245.80111	0.99161
3243.74420	0.99132
3241.68730	0.99138
3239.63039	0.99171
3237.57348	0.99215
3235.51657	0.99242
3233.45966	0.99211
3231.40276	0.99162
3229.34585	0.99114
3227.28894	0.99092
3225.23203	0.99128
3223.17512	0.99160
3221.11821	0.99149
3219.06131	0.99111
3217.00440	0.99081
3214.94749	0.99087
3212.89058	0.99125
3210.83367	0.99171
3208.77677	0.99214
3206.71986	0.99271
3204.66295	0.99306
3202.60604	0.99268
3200.54913	0.99207
3198.49222	0.99168
3196.43532	0.99145
3194.37841	0.99137
3192.32150	0.99150
3190.26459	0.99183
3188.20768	0.99212
3186.15078	0.99221
3184.09387	0.99212
3182.03696	0.99187
3179.98005	0.99178
3177.92314	0.99196
3175.86623	0.99224
3173.80933	0.99231
3171.75242	0.99215
3169.69551	0.99205
3167.63860	0.99190
3165.58169	0.99186
3163.52479	0.99210
3161.46788	0.99230
3159.41097	0.99236
3157.35406	0.99230
3155.29715	0.99223
3153.24024	0.99206
3151.18334	0.99134
3149.12643	0.99063
3147.06952	0.99095
3145.01261	0.99168
3142.95570	0.99173
3140.89880	0.99133
3138.84189	0.99108
3136.78498	0.99107
3134.72807	0.99141
3132.67116	0.99203
3130.61425	0.99228
3128.55735	0.99199
3126.50044	0.99178
3124.44353	0.99180
3122.38662	0.99185
3120.32971	0.99195
3118.27281	0.99192
3116.21590	0.99193
3114.15899	0.99221
3112.10208	0.99238
3110.04517	0.99233
3107.98826	0.99228
3105.93136	0.99229
3103.87445	0.99236
3101.81754	0.99214
3099.76063	0.99149
3097.70372	0.99094
3095.64682	0.99091
3093.58991	0.99141
3091.53300	0.99222
3089.47609	0.99273
3087.41918	0.99215
3085.36227	0.99101
3083.30537	0.99058
3081.24846	0.99088
3079.19155	0.99117
3077.13464	0.99088
3075.07773	0.99051
3073.02083	0.99070
3070.96392	0.99096
3068.90701	0.99125
3066.85010	0.99177
3064.79319	0.99204
3062.73628	0.99190
3060.67938	0.99150
3058.62247	0.99099
3056.56556	0.99075
3054.50865	0.99081
3052.45174	0.99089
3050.39484	0.99111
3048.33793	0.99142
3046.28102	0.99133
3044.22411	0.99094
3042.16720	0.99090
3040.11029	0.99121
3038.05339	0.99132
3035.99648	0.99132
3033.93957	0.99128
3031.88266	0.99104
3029.82575	0.99087
3027.76885	0.99086
3025.71194	0.99055
3023.65503	0.98989
3021.59812	0.98956
3019.54121	0.98981
3017.48430	0.99020
3015.42740	0.99043
3013.37049	0.99041
3011.31358	0.99016
3009.25667	0.99008
3007.19976	0.99015
3005.14286	0.99017
3003.08595	0.99033
3001.02904	0.99062
2998.97213	0.99066
2996.91522	0.99037
2994.85831	0.99013
2992.80141	0.99002
2990.74450	0.98990
2988.68759	0.98963
2986.63068	0.98897
2984.57377	0.98847
2982.51687	0.98869
2980.45996	0.98907
2978.40305	0.98906
2976.34614	0.98901
2974.28923	0.98888
2972.23232	0.98812
2970.17542	0.98748
2968.11851	0.98762
2966.06160	0.98758
2964.00469	0.98690
2961.94778	0.98618
2959.89088	0.98583
2957.83397	0.98597
2955.77706	0.98639
2953.72015	0.98694
2951.66324	0.98752
2949.60633	0.98771
2947.54943	0.98740
2945.49252	0.98703
2943.43561	0.98680
2941.37870	0.98676
2939.32179	0.98691
2937.26489	0.98705
2935.20798	0.98723
2933.15107	0.98746
2931.09416	0.98773
2929.03725	0.98796
2926.98034	0.98816
2924.92344	0.98833
2922.86653	0.98856
2920.80962	0.98890
2918.75271	0.98882
2916.69580	0.98832
2914.63890	0.98813
2912.58199	0.98836
2910.52508	0.98824
2908.46817	0.98776
2906.41126	0.98775
2904.35435	0.98810
2902.29745	0.98807
2900.24054	0.98767
2898.18363	0.98745
2896.12672	0.98761
2894.06981	0.98796
2892.01291	0.98846
2889.95600	0.98884
2887.89909	0.98879
2885.84218	0.98869
2883.78527	0.98882
2881.72836	0.98905
2879.67146	0.98915
2877.61455	0.98892
2875.55764	0.98859
2873.50073	0.98836
2871.44382	0.98815
2869.38692	0.98789
2867.33001	0.98781
2865.27310	0.98826
2863.21619	0.98893
2861.15928	0.98932
2859.10237	0.98945
2857.04547	0.98960
2854.98856	0.98995
2852.93165	0.99021
2850.87474	0.99020
2848.81783	0.99007
2846.76093	0.99000
2844.70402	0.99029
2842.64711	0.99049
2840.59020	0.99016
2838.53329	0.98986
2836.47638	0.99014
2834.41948	0.99063
2832.36257	0.99088
2830.30566	0.99116
2828.24875	0.99137
2826.19184	0.99107
2824.13494	0.99073
2822.07803	0.99081
2820.02112	0.99102
2817.96421	0.99117
2815.90730	0.99132
2813.85039	0.99121
2811.79349	0.99087
2809.73658	0.99084
2807.67967	0.99116
2805.62276	0.99143
2803.56585	0.99144
2801.50895	0.99126
2799.45204	0.99112
2797.39513	0.99110
2795.33822	0.99103
2793.28131	0.99075
2791.22440	0.99069
2789.16750	0.99133
2787.11059	0.99194
2785.05368	0.99175
2782.99677	0.99123
2780.93986	0.99109
2778.88296	0.99136
2776.82605	0.99157
2774.76914	0.99160
2772.71223	0.99169
2770.65532	0.99175
2768.59841	0.99149
2766.54151	0.99099
2764.48460	0.99073
2762.42769	0.99113
2760.37078	0.99196
2758.31387	0.99245
2756.25697	0.99226
2754.20006	0.99186
2752.14315	0.99153
2750.08624	0.99110
2748.02933	0.99086
2745.97242	0.99104
2743.91552	0.99119
2741.85861	0.99140
2739.80170	0.99166
2737.74479	0.99153
2735.68788	0.99132
2733.63098	0.99126
2731.57407	0.99118
2729.51716	0.99113
2727.46025	0.99139
2725.40334	0.99172
2723.34643	0.99160
2721.28953	0.99132
2719.23262	0.99127
2717.17571	0.99123
2715.11880	0.99113
2713.06189	0.99122
2711.00499	0.99137
2708.94808	0.99140
2706.89117	0.99137
2704.83426	0.99140
2702.77735	0.99144
2700.72044	0.99144
2698.66354	0.99146
2696.60663	0.99152
2694.54972	0.99169
2692.49281	0.99196
2690.43590	0.99213
2688.37900	0.99209
2686.32209	0.99199
2684.26518	0.99207
2682.20827	0.99205
2680.15136	0.99177
2678.09445	0.99152
2676.03755	0.99136
2673.98064	0.99123
2671.92373	0.99110
2669.86682	0.99097
2667.80991	0.99092
2665.75301	0.99100
2663.69610	0.99117
2661.63919	0.99137
2659.58228	0.99158
2657.52537	0.99176
2655.46846	0.99177
2653.41156	0.99139
2651.35465	0.99087
2649.29774	0.99069
2647.24083	0.99092
2645.18392	0.99128
2643.12702	0.99157
2641.07011	0.99173
2639.01320	0.99160
2636.95629	0.99132
2634.89938	0.99129
2632.84247	0.99145
2630.78557	0.99147
2628.72866	0.99125
2626.67175	0.99089
2624.61484	0.99088
2622.55793	0.99147
2620.50103	0.99210
2618.44412	0.99229
2616.38721	0.99198
2614.33030	0.99161
2612.27339	0.99164
2610.21648	0.99175
2608.15958	0.99168
2606.10267	0.99178
2604.04576	0.99224
2601.98885	0.99238
2599.93194	0.99205
2597.87504	0.99201
2595.81813	0.99221
2593.76122	0.99238
2591.70431	0.99251
2589.64740	0.99219
2587.59049	0.99151
2585.53359	0.99133
2583.47668	0.99169
2581.41977	0.99212
2579.36286	0.99247
2577.30595	0.99251
2575.24905	0.99217
2573.19214	0.99210
2571.13523	0.99263
2569.07832	0.99290
2567.02141	0.99251
2564.96450	0.99197
2562.90760	0.99169
2560.85069	0.99183
2558.79378	0.99211
2556.73687	0.99218
2554.67996	0.99212
2552.62306	0.99200
2550.56615	0.99189
2548.50924	0.99191
2546.45233	0.99178
2544.39542	0.99190
2542.33851	0.99281
2540.28161	0.99331
2538.22470	0.99253
2536.16779	0.99161
2534.11088	0.99143
2532.05397	0.99180
2529.99707	0.99234
2527.94016	0.99257
2525.88325	0.99185
2523.82634	0.99092
2521.76943	0.99125
2519.71252	0.99221
2517.65562	0.99271
2515.59871	0.99290
2513.54180	0.99294
2511.48489	0.99287
2509.42798	0.99269
2507.37108	0.99239
2505.31417	0.99219
2503.25726	0.99245
2501.20035	0.99262
2499.14344	0.99210
2497.08653	0.99169
2495.02963	0.99161
2492.97272	0.99141
2490.91581	0.99156
2488.85890	0.99212
2486.80199	0.99256
2484.74509	0.99269
2482.68818	0.99271
2480.63127	0.99286
2478.57436	0.99300
2476.51745	0.99279
2474.46054	0.99216
2472.40364	0.99177
2470.34673	0.99212
2468.28982	0.99274
2466.23291	0.99297
2464.17600	0.99287
2462.11910	0.99307
2460.06219	0.99337
2458.00528	0.99312
2455.94837	0.99271
2453.89146	0.99297
2451.83455	0.99327
2449.77765	0.99269
2447.72074	0.99217
2445.66383	0.99257
2443.60692	0.99296
2441.55001	0.99289
2439.49311	0.99258
2437.43620	0.99203
2435.37929	0.99177
2433.32238	0.99194
2431.26547	0.99206
2429.20856	0.99218
2427.15166	0.99246
2425.09475	0.99270
2423.03784	0.99287
2420.98093	0.99293
2418.92402	0.99267
2416.86712	0.99251
2414.81021	0.99276
2412.75330	0.99293
2410.69639	0.99258
2408.63948	0.99202
2406.58257	0.99196
2404.52567	0.99236
2402.46876	0.99251
2400.41185	0.99234
2398.35494	0.99239
2396.29803	0.99276
2394.24113	0.99290
2392.18422	0.99257
2390.12731	0.99214
2388.07040	0.99181
2386.01349	0.99172
2383.95658	0.99231
2381.89968	0.99343
2379.84277	0.99414
2377.78586	0.99395
2375.72895	0.99305
2373.67204	0.99221
2371.61514	0.99223
2369.55823	0.99303
2367.50132	0.99341
2365.44441	0.99261
2363.38750	0.99224
2361.33059	0.99313
2359.27369	0.99315
2357.21678	0.99164
2355.15987	0.99085
2353.10296	0.99104
2351.04605	0.99129
2348.98915	0.99159
2346.93224	0.99181
2344.87533	0.99198
2342.81842	0.99229
2340.76151	0.99260
2338.70460	0.99271
2336.64770	0.99218
2334.59079	0.99170
2332.53388	0.99198
2330.47697	0.99202
2328.42006	0.99198
2326.36316	0.99259
2324.30625	0.99302
2322.24934	0.99275
2320.19243	0.99232
2318.13552	0.99195
2316.07861	0.99173
2314.02171	0.99189
2311.96480	0.99230
2309.90789	0.99282
2307.85098	0.99292
2305.79407	0.99270
2303.73717	0.99287
2301.68026	0.99302
2299.62335	0.99282
2297.56644	0.99290
2295.50953	0.99325
2293.45262	0.99331
2291.39572	0.99309
2289.33881	0.99287
2287.28190	0.99269
2285.22499	0.99240
2283.16808	0.99225
2281.11117	0.99252
2279.05427	0.99261
2276.99736	0.99239
2274.94045	0.99247
2272.88354	0.99278
2270.82663	0.99293
2268.76973	0.99276
2266.71282	0.99230
2264.65591	0.99216
2262.59900	0.99235
2260.54209	0.99251
2258.48518	0.99274
2256.42828	0.99292
2254.37137	0.99320
2252.31446	0.99369
2250.25755	0.99352
2248.20064	0.99300
2246.14374	0.99302
2244.08683	0.99302
2242.02992	0.99259
2239.97301	0.99256
2237.91610	0.99393
2235.85919	0.99462
2233.80229	0.99223
2231.74538	0.98985
2229.68847	0.99060
2227.63156	0.99277
2225.57465	0.99399
2223.51775	0.99435
2221.46084	0.99406
2219.40393	0.99295
2217.34702	0.99285
2215.29011	0.99364
2213.23320	0.99258
2211.17630	0.99165
2209.11939	0.99291
2207.06248	0.99330
2205.00557	0.99259
2202.94866	0.99285
2200.89176	0.99302
2198.83485	0.99252
2196.77794	0.99250
2194.72103	0.99355
2192.66412	0.99557
2190.60721	0.99751
2188.55031	0.99763
2186.49340	0.99573
2184.43649	0.99322
2182.37958	0.99116
2180.32267	0.99110
2178.26577	0.99283
2176.20886	0.99402
2174.15195	0.99409
2172.09504	0.99368
2170.03813	0.99271
2167.98122	0.99097
2165.92432	0.99036
2163.86741	0.99154
2161.81050	0.99275
2159.75359	0.99342
2157.69668	0.99293
2155.63978	0.99228
2153.58287	0.99292
2151.52596	0.99356
2149.46905	0.99332
2147.41214	0.99302
2145.35523	0.99355
2143.29833	0.99444
2141.24142	0.99425
2139.18451	0.99342
2137.12760	0.99289
2135.07069	0.99271
2133.01379	0.99295
2130.95688	0.99308
2128.89997	0.99291
2126.84306	0.99281
2124.78615	0.99284
2122.72924	0.99248
2120.67234	0.99221
2118.61543	0.99282
2116.55852	0.99307
2114.50161	0.99242
2112.44470	0.99206
2110.38780	0.99247
2108.33089	0.99293
2106.27398	0.99229
2104.21707	0.99080
2102.16016	0.99050
2100.10325	0.99235
2098.04635	0.99439
2095.98944	0.99461
2093.93253	0.99353
2091.87562	0.99277
2089.81871	0.99294
2087.76181	0.99324
2085.70490	0.99353
2083.64799	0.99394
2081.59108	0.99402
2079.53417	0.99436
2077.47726	0.99454
2075.42036	0.99382
2073.36345	0.99351
2071.30654	0.99431
2069.24963	0.99490
2067.19272	0.99444
2065.13582	0.99438
2063.07891	0.99549
2061.02200	0.99595
2058.96509	0.99504
2056.90818	0.99387
2054.85127	0.99293
2052.79437	0.99229
2050.73746	0.99252
2048.68055	0.99380
2046.62364	0.99468
2044.56673	0.99470
2042.50983	0.99490
2040.45292	0.99457
2038.39601	0.99337
2036.33910	0.99190
2034.28219	0.99096
2032.22528	0.99130
2030.16838	0.99306
2028.11147	0.99543
2026.05456	0.99654
2023.99765	0.99600
2021.94074	0.99402
2019.88384	0.99185
2017.82693	0.99183
2015.77002	0.99359
2013.71311	0.99494
2011.65620	0.99418
2009.59929	0.99119
2007.54239	0.98979
2005.48548	0.99226
2003.42857	0.99456
2001.37166	0.99474
1999.31475	0.99455
1997.25785	0.99503
1995.20094	0.99575
1993.14403	0.99508
1991.08712	0.99290
1989.03021	0.99225
1986.97330	0.99356
1984.91640	0.99406
1982.85949	0.99427
1980.80258	0.99496
1978.74567	0.99367
1976.68876	0.99103
1974.63186	0.99062
1972.57495	0.99146
1970.51804	0.99194
1968.46113	0.99320
1966.40422	0.99422
1964.34731	0.99313
1962.29041	0.99191
1960.23350	0.99204
1958.17659	0.99221
1956.11968	0.99291
1954.06277	0.99440
1952.00587	0.99520
1949.94896	0.99436
1947.89205	0.99268
1945.83514	0.99204
1943.77823	0.99222
1941.72132	0.99250
1939.66442	0.99355
1937.60751	0.99478
1935.55060	0.99477
1933.49369	0.99365
1931.43678	0.99235
1929.37988	0.99185
1927.32297	0.99273
1925.26606	0.99431
1923.20915	0.99504
1921.15224	0.99419
1919.09533	0.99310
1917.03843	0.99328
1914.98152	0.99434
1912.92461	0.99530
1910.86770	0.99601
1908.81079	0.99595
1906.75389	0.99485
1904.69698	0.99362
1902.64007	0.99337
1900.58316	0.99423
1898.52625	0.99491
1896.46934	0.99422
1894.41244	0.99304
1892.35553	0.99303
1890.29862	0.99378
1888.24171	0.99422
1886.18480	0.99418
1884.12790	0.99385
1882.07099	0.99352
1880.01408	0.99361
1877.95717	0.99364
1875.90026	0.99326
1873.84335	0.99304
1871.78645	0.99298
1869.72954	0.99299
1867.67263	0.99314
1865.61572	0.99323
1863.55881	0.99348
1861.50191	0.99379
1859.44500	0.99363
1857.38809	0.99365
1855.33118	0.99437
1853.27427	0.99449
1851.21736	0.99373
1849.16046	0.99339
1847.10355	0.99345
1845.04664	0.99333
1842.98973	0.99341
1840.93282	0.99363
1838.87592	0.99386
1836.81901	0.99398
1834.76210	0.99369
1832.70519	0.99349
1830.64828	0.99374
1828.59137	0.99356
1826.53447	0.99286
1824.47756	0.99216
1822.42065	0.99191
1820.36374	0.99222
1818.30683	0.99254
1816.24993	0.99263
1814.19302	0.99233
1812.13611	0.99185
1810.07920	0.99160
1808.02229	0.99168
1805.96538	0.99164
1803.90848	0.99128
1801.85157	0.99092
1799.79466	0.99099
1797.73775	0.99108
1795.68084	0.99057
1793.62394	0.98959
1791.56703	0.98855
1789.51012	0.98779
1787.45321	0.98708
1785.39630	0.98636
1783.33939	0.98534
1781.28249	0.98349
1779.22558	0.98095
1777.16867	0.97837
1775.11176	0.97544
1773.05485	0.97052
1770.99795	0.96314
1768.94104	0.95478
1766.88413	0.94495
1764.82722	0.93408
1762.77031	0.92171
1760.71340	0.90769
1758.65650	0.89563
1756.59959	0.88547
1754.54268	0.87776
1752.48577	0.87258
1750.42886	0.86804
1748.37196	0.86389
1746.31505	0.86076
1744.25814	0.85874
1742.20123	0.85798
1740.14432	0.85854
1738.08741	0.86099
1736.03051	0.86579
1733.97360	0.87396
1731.91669	0.88394
1729.85978	0.89393
1727.80287	0.90483
1725.74597	0.91550
1723.68906	0.92551
1721.63215	0.93414
1719.57524	0.94130
1717.51833	0.94850
1715.46142	0.95523
1713.40452	0.95981
1711.34761	0.96319
1709.29070	0.96610
1707.23379	0.96841
1705.17688	0.97015
1703.11998	0.97175
1701.06307	0.97368
1699.00616	0.97562
1696.94925	0.97672
1694.89234	0.97772
1692.83543	0.97875
1690.77853	0.97941
1688.72162	0.97992
1686.66471	0.98034
1684.60780	0.98086
1682.55089	0.98169
1680.49399	0.98262
1678.43708	0.98324
1676.38017	0.98345
1674.32326	0.98360
1672.26635	0.98394
1670.20944	0.98463
1668.15254	0.98523
1666.09563	0.98515
1664.03872	0.98484
1661.98181	0.98479
1659.92490	0.98483
1657.86800	0.98476
1655.81109	0.98484
1653.75418	0.98506
1651.69727	0.98490
1649.64036	0.98491
1647.58345	0.98512
1645.52655	0.98514
1643.46964	0.98503
1641.41273	0.98496
1639.35582	0.98488
1637.29891	0.98468
1635.24201	0.98453
1633.18510	0.98476
1631.12819	0.98525
1629.07128	0.98560
1627.01437	0.98551
1624.95746	0.98552
1622.90056	0.98599
1620.84365	0.98643
1618.78674	0.98674
1616.72983	0.98700
1614.67292	0.98725
1612.61602	0.98752
1610.55911	0.98774
1608.50220	0.98789
1606.44529	0.98803
1604.38838	0.98819
1602.33147	0.98831
1600.27457	0.98847
1598.21766	0.98867
1596.16075	0.98859
1594.10384	0.98852
1592.04693	0.98881
1589.99003	0.98914
1587.93312	0.98920
1585.87621	0.98919
1583.81930	0.98941
1581.76239	0.98987
1579.70548	0.99032
1577.64858	0.99051
1575.59167	0.99030
1573.53476	0.98989
1571.47785	0.98961
1569.42094	0.98952
1567.36404	0.98961
1565.30713	0.98987
1563.25022	0.99021
1561.19331	0.99043
1559.13640	0.99009
1557.07949	0.98938
1555.02259	0.98937
1552.96568	0.98967
1550.90877	0.98991
1548.85186	0.98989
1546.79495	0.98974
1544.73805	0.98975
1542.68114	0.98987
1540.62423	0.98975
1538.56732	0.98982
1536.51041	0.99025
1534.45350	0.99052
1532.39660	0.99042
1530.33969	0.99016
1528.28278	0.98980
1526.22587	0.98955
1524.16896	0.98981
1522.11206	0.99021
1520.05515	0.99035
1517.99824	0.99043
1515.94133	0.99043
1513.88442	0.99032
1511.82751	0.99025
1509.77061	0.99002
1507.71370	0.98930
1505.65679	0.98905
1503.59988	0.98967
1501.54297	0.99008
1499.48607	0.99011
1497.42916	0.99012
1495.37225	0.99036
1493.31534	0.99047
1491.25843	0.99042
1489.20152	0.99047
1487.14462	0.99036
1485.08771	0.99000
1483.03080	0.98968
1480.97389	0.98937
1478.91698	0.98915
1476.86008	0.98883
1474.80317	0.98822
1472.74626	0.98765
1470.68935	0.98716
1468.63244	0.98652
1466.57553	0.98554
1464.51863	0.98420
1462.46172	0.98322
1460.40481	0.98280
1458.34790	0.98222
1456.29099	0.98092
1454.23409	0.97996
1452.17718	0.97958
1450.12027	0.97910
1448.06336	0.97820
1446.00645	0.97711
1443.94954	0.97602
1441.89264	0.97502
1439.83573	0.97413
1437.77882	0.97305
1435.72191	0.97205
1433.66500	0.97188
1431.60810	0.97205
1429.55119	0.97231
1427.49428	0.97290
1425.43737	0.97368
1423.38046	0.97452
1421.32355	0.97536
1419.26665	0.97615
1417.20974	0.97689
1415.15283	0.97767
1413.09592	0.97863
1411.03901	0.97965
1408.98211	0.98015
1406.92520	0.98000
1404.86829	0.97985
1402.81138	0.97998
1400.75447	0.97981
1398.69756	0.97898
1396.64066	0.97745
1394.58375	0.97488
1392.52684	0.97142
1390.46993	0.96765
1388.41302	0.96306
1386.35612	0.95734
1384.29921	0.95158
1382.24230	0.94607
1380.18539	0.94059
1378.12848	0.93539
1376.07157	0.93044
1374.01467	0.92542
1371.95776	0.92129
1369.90085	0.91896
1367.84394	0.91861
1365.78703	0.92065
1363.73013	0.92562
1361.67322	0.93394
1359.61631	0.94377
1357.55940	0.95336
1355.50249	0.96174
1353.44558	0.96808
1351.38868	0.97261
1349.33177	0.97567
1347.27486	0.97755
1345.21795	0.97873
1343.16104	0.97944
1341.10414	0.97992
1339.04723	0.98036
1336.99032	0.98052
1334.93341	0.98028
1332.87650	0.97996
1330.81959	0.97959
1328.76269	0.97909
1326.70578	0.97857
1324.64887	0.97808
1322.59196	0.97772
1320.53505	0.97756
1318.47815	0.97778
1316.42124	0.97843
1314.36433	0.97902
1312.30742	0.97942
1310.25051	0.97986
1308.19360	0.98028
1306.13670	0.98039
1304.07979	0.98008
1302.02288	0.97946
1299.96597	0.97882
1297.90906	0.97841
1295.85216	0.97786
1293.79525	0.97689
1291.73834	0.97587
1289.68143	0.97487
1287.62452	0.97347
1285.56761	0.97169
1283.51071	0.96977
1281.45380	0.96746
1279.39689	0.96470
1277.33998	0.96175
1275.28307	0.95842
1273.22617	0.95445
1271.16926	0.94978
1269.11235	0.94452
1267.05544	0.93895
1264.99853	0.93306
1262.94162	0.92648
1260.88472	0.91921
1258.82781	0.91145
1256.77090	0.90307
1254.71399	0.89395
1252.65708	0.88426
1250.60018	0.87416
1248.54327	0.86379
1246.48636	0.85326
1244.42945	0.84245
1242.37254	0.83163
1240.31563	0.82141
1238.25873	0.81186
1236.20182	0.80305
1234.14491	0.79565
1232.08800	0.79032
1230.03109	0.78719
1227.97419	0.78627
1225.91728	0.78703
1223.86037	0.78844
1221.80346	0.78989
1219.74655	0.79164
1217.68964	0.79403
1215.63274	0.79728
1213.57583	0.80228
1211.51892	0.81012
1209.46201	0.82145
1207.40510	0.83614
1205.34820	0.85295
1203.29129	0.87039
1201.23438	0.88722
1199.17747	0.90234
1197.12056	0.91506
1195.06365	0.92495
1193.00675	0.93219
1190.94984	0.93761
1188.89293	0.94152
1186.83602	0.94390
1184.77911	0.94505
1182.72221	0.94502
1180.66530	0.94389
1178.60839	0.94220
1176.55148	0.94015
1174.49457	0.93792
1172.43766	0.93595
1170.38076	0.93443
1168.32385	0.93339
1166.26694	0.93292
1164.21003	0.93311
1162.15312	0.93384
1160.09622	0.93501
1158.03931	0.93652
1155.98240	0.93829
1153.92549	0.94037
1151.86858	0.94251
1149.81167	0.94451
1147.75477	0.94628
1145.69786	0.94735
1143.64095	0.94749
1141.58404	0.94698
1139.52713	0.94599
1137.47023	0.94446
1135.41332	0.94264
1133.35641	0.94073
1131.29950	0.93839
1129.24259	0.93550
1127.18568	0.93281
1125.12878	0.93116
1123.07187	0.93044
1121.01496	0.93018
1118.95805	0.93033
1116.90114	0.93092
1114.84424	0.93167
1112.78733	0.93200
1110.73042	0.93189
1108.67351	0.93154
1106.61660	0.93085
1104.55969	0.92964
1102.50279	0.92769
1100.44588	0.92481
1098.38897	0.92075
1096.33206	0.91573
1094.27515	0.91017
1092.21825	0.90396
1090.16134	0.89762
1088.10443	0.89188
1086.04752	0.88680
1083.99061	0.88240
1081.93370	0.87853
1079.87680	0.87483
1077.81989	0.87103
1075.76298	0.86728
1073.70607	0.86391
1071.64916	0.86054
1069.59226	0.85707
1067.53535	0.85389
1065.47844	0.85071
1063.42153	0.84679
1061.36462	0.84186
1059.30771	0.83595
1057.25081	0.82922
1055.19390	0.82255
1053.13699	0.81644
1051.08008	0.81053
1049.02317	0.80539
1046.96627	0.80201
1044.90936	0.79988
1042.85245	0.79847
1040.79554	0.79768
1038.73863	0.79701
1036.68172	0.79687
1034.62482	0.79839
1032.56791	0.80209
1030.51100	0.80831
1028.45409	0.81726
1026.39718	0.82812
1024.34028	0.83950
1022.28337	0.85079
1020.22646	0.86178
1018.16955	0.87167
1016.11264	0.88034
1014.05573	0.88830
1011.99883	0.89541
1009.94192	0.90162
1007.88501	0.90736
1005.82810	0.91265
1003.77119	0.91709
1001.71429	0.92073
999.65738	0.92407
997.60047	0.92701
995.54356	0.92923
993.48665	0.93097
991.42974	0.93239
989.37284	0.93343
987.31593	0.93451
985.25902	0.93613
983.20211	0.93835
981.14520	0.94071
979.08830	0.94267
977.03139	0.94436
974.97448	0.94643
972.91757	0.94899
970.86066	0.95172
968.80375	0.95418
966.74685	0.95601
964.68994	0.95709
962.63303	0.95755
960.57612	0.95777
958.51921	0.95775
956.46231	0.95744
954.40540	0.95750
952.34849	0.95829
950.29158	0.95908
948.23467	0.95948
946.17776	0.96007
944.12086	0.96100
942.06395	0.96191
940.00704	0.96267
937.95013	0.96313
935.89322	0.96312
933.83632	0.96254
931.77941	0.96138
929.72250	0.96046
927.66559	0.95999
925.60868	0.95922
923.55177	0.95790
921.49487	0.95623
919.43796	0.95463
917.38105	0.95339
915.32414	0.95224
913.26723	0.95083
911.21033	0.94897
909.15342	0.94674
907.09651	0.94449
905.03960	0.94254
902.98269	0.94097
900.92578	0.94023
898.86888	0.94136
896.81197	0.94431
894.75506	0.94790
892.69815	0.95132
890.64124	0.95423
888.58434	0.95642
886.52743	0.95801
884.47052	0.95919
882.41361	0.96000
880.35670	0.96044
878.29979	0.96045
876.24289	0.96067
874.18598	0.96212
872.12907	0.96436
870.07216	0.96653
868.01525	0.96882
865.95835	0.97082
863.90144	0.97211
861.84453	0.97326
859.78762	0.97439
857.73071	0.97514
855.67380	0.97557
853.61690	0.97569
851.55999	0.97544
849.50308	0.97509
847.44617	0.97472
845.38926	0.97424
843.33236	0.97373
841.27545	0.97344
839.21854	0.97351
837.16163	0.97379
835.10472	0.97424
833.04781	0.97494
830.99091	0.97603
828.93400	0.97710
826.87709	0.97768
824.82018	0.97811
822.76327	0.97867
820.70637	0.97905
818.64946	0.97908
816.59255	0.97934
814.53564	0.97991
812.47873	0.98033
810.42182	0.98108
808.36492	0.98229
806.30801	0.98307
804.25110	0.98314
802.19419	0.98325
800.13728	0.98347
798.08038	0.98307
796.02347	0.98251
793.96656	0.98241
791.90965	0.98258
789.85274	0.98317
787.79583	0.98400
785.73893	0.98416
783.68202	0.98345
781.62511	0.98278
779.56820	0.98274
777.51129	0.98288
775.45439	0.98272
773.39748	0.98259
771.34057	0.98272
769.28366	0.98290
767.22675	0.98332
765.16984	0.98398
763.11294	0.98426
761.05603	0.98398
758.99912	0.98368
756.94221	0.98376
754.88530	0.98406
752.82839	0.98421
750.77149	0.98409
748.71458	0.98396
746.65767	0.98395
744.60076	0.98387
742.54385	0.98384
740.48695	0.98408
738.43004	0.98431
736.37313	0.98420
734.31622	0.98410
732.25931	0.98392
730.20240	0.98300
728.14550	0.98176
726.08859	0.98077
724.03168	0.98000
721.97477	0.97976
719.91786	0.98021
717.86096	0.98047
715.80405	0.98011
713.74714	0.97968
711.69023	0.97963
709.63332	0.97967
707.57641	0.97915
705.51951	0.97823
703.46260	0.97755
701.40569	0.97718
699.34878	0.97707
697.29187	0.97745
695.23497	0.97744
693.17806	0.97677
691.12115	0.97620
689.06424	0.97546
687.00733	0.97502
684.95042	0.97563
682.89352	0.97645
680.83661	0.97661
678.77970	0.97637
676.72279	0.97622
674.66588	0.97636
672.60898	0.97673
670.55207	0.97697
668.49516	0.97661
666.43825	0.97542
664.38134	0.97457
662.32443	0.97462
660.26753	0.97480
658.21062	0.97422
656.15371	0.97360
654.09680	0.97283
652.03989	0.97159
649.98299	0.97048
647.92608	0.96932
645.86917	0.96785
643.81226	0.96646
641.75535	0.96605
639.69844	0.96665
637.64154	0.96718
635.58463	0.96694
633.52772	0.96607
631.47081	0.96514
629.41390	0.96464
627.35700	0.96404
625.30009	0.96258
623.24318	0.96137
621.18627	0.96126
619.12936	0.96050
617.07245	0.95775
615.01555	0.95437
612.95864	0.95175
610.90173	0.94893
608.84482	0.94435
606.78791	0.93851
604.73101	0.93399
602.67410	0.93308
600.61719	0.93534
598.56028	0.93875
596.50337	0.94250
594.44646	0.94665
592.38956	0.95091
590.33265	0.95504
588.27574	0.95891
586.21883	0.96252
584.16192	0.96556
582.10502	0.96723
580.04811	0.96810
577.99120	0.96956
575.93429	0.97068
573.87738	0.97024
571.82047	0.96902
569.76357	0.96809
567.70666	0.96784
565.64975	0.96755
563.59284	0.96640
561.53593	0.96490
559.47903	0.96393
557.42212	0.96386
555.36521	0.96489
553.30830	0.96603
551.25139	0.96631
549.19448	0.96668
547.13758	0.96804
545.08067	0.96913
543.02376	0.96908
540.96685	0.96940
538.90994	0.96960
536.85304	0.96917
534.79613	0.96988
532.73922	0.97056
530.68231	0.96989
528.62540	0.96874
526.56849	0.96815
524.51159	0.96857
522.45468	0.96930
520.39777	0.96908
518.34086	0.96686
516.28395	0.96448
514.22705	0.96399
512.17014	0.96439
510.11323	0.96521
508.05632	0.96674
505.99941	0.96787
503.94250	0.96726
501.88560	0.96564
499.82869	0.96411
497.77178	0.96285
495.71487	0.96203
493.65796	0.96155
491.60106	0.96071
489.54415	0.95950
487.48724	0.95851
485.43033	0.95825
483.37342	0.95893
481.31651	0.95955
479.25961	0.95810
477.20270	0.95555
475.14579	0.95578
473.08888	0.95906
471.03197	0.96130
468.97507	0.96145
466.91816	0.96211
464.86125	0.96216
462.80434	0.96014
460.74743	0.95775
458.69052	0.95488
456.63362	0.95169
454.57671	0.95093
452.51980	0.95272
450.46289	0.95388
448.40598	0.95197
446.34908	0.95004
444.29217	0.95152
442.23526	0.95347
440.17835	0.95353
438.12144	0.95289
436.06453	0.95181
434.00763	0.95290
431.95072	0.95643
429.89381	0.95716
427.83690	0.95491
425.77999	0.95429
423.72309	0.95511
421.66618	0.95596
419.60927	0.95939
417.55236	0.96384
415.49545	0.96319
413.43854	0.96026
411.38164	0.96116
409.32473	0.96298
407.26782	0.95947
405.21091	0.95756
403.15400	0.96010
401.09710	0.95742
399.04019	0.94838
