3996.57260	0.97701
3994.51569	0.97688
3992.45878	0.97671
3990.40188	0.97653
3988.34497	0.97653
3986.28806	0.97692
3984.23115	0.97711
3982.17424	0.97700
3980.11733	0.97679
3978.06043	0.97645
3976.00352	0.97597
3973.94661	0.97586
3971.88970	0.97653
3969.83279	0.97707
3967.77589	0.97732
3965.71898	0.97780
3963.66207	0.97779
3961.60516	0.97702
3959.54825	0.97671
3957.49134	0.97694
3955.43444	0.97672
3953.37753	0.97643
3951.32062	0.97679
3949.26371	0.97743
3947.20680	0.97790
3945.14990	0.97789
3943.09299	0.97708
3941.03608	0.97621
3938.97917	0.97627
3936.92226	0.97665
3934.86535	0.97639
3932.80845	0.97584
3930.75154	0.97620
3928.69463	0.97695
3926.63772	0.97662
3924.58081	0.97584
3922.52391	0.97604
3920.46700	0.97684
3918.41009	0.97709
3916.35318	0.97678
3914.29627	0.97697
3912.23936	0.97733
3910.18246	0.97686
3908.12555	0.97647
3906.06864	0.97682
3904.01173	0.97660
3901.95482	0.97583
3899.89792	0.97606
3897.84101	0.97664
3895.78410	0.97648
3893.72719	0.97597
3891.67028	0.97633
3889.61337	0.97759
3887.55647	0.97804
3885.49956	0.97767
3883.44265	0.97775
3881.38574	0.97821
3879.32883	0.97888
3877.27193	0.97977
3875.21502	0.97994
3873.15811	0.97897
3871.10120	0.97787
3869.04429	0.97732
3866.98738	0.97702
3864.93048	0.97690
3862.87357	0.97759
3860.81666	0.97844
3858.75975	0.97836
3856.70284	0.97727
3854.64594	0.97540
3852.58903	0.97436
3850.53212	0.97543
3848.47521	0.97651
3846.41830	0.97696
3844.36139	0.97725
3842.30449	0.97737
3840.24758	0.97681
3838.19067	0.97559
3836.13376	0.97542
3834.07685	0.97675
3832.01995	0.97789
3829.96304	0.97835
3827.90613	0.97848
3825.84922	0.97798
3823.79231	0.97690
3821.73540	0.97581
3819.67850	0.97579
3817.62159	0.97651
3815.56468	0.97680
3813.50777	0.97696
3811.45086	0.97698
3809.39396	0.97683
3807.33705	0.97714
3805.28014	0.97748
3803.22323	0.97693
3801.16632	0.97631
3799.10941	0.97693
3797.05251	0.97813
3794.99560	0.97902
3792.93869	0.97915
3790.88178	0.97868
3788.82487	0.97833
3786.76796	0.97866
3784.71106	0.97912
3782.65415	0.97898
3780.59724	0.97831
3778.54033	0.97792
3776.48342	0.97856
3774.42652	0.97929
3772.36961	0.97915
3770.31270	0.97857
3768.25579	0.97834
3766.19888	0.97832
3764.14197	0.97836
3762.08507	0.97827
3760.02816	0.97792
3757.97125	0.97786
3755.91434	0.97833
3753.85743	0.97862
3751.80053	0.97699
3749.74362	0.97448
3747.68671	0.97457
3745.62980	0.97593
3743.57289	0.97733
3741.51598	0.97819
3739.45908	0.97803
3737.40217	0.97706
3735.34526	0.97578
3733.28835	0.97511
3731.23144	0.97615
3729.17454	0.97751
3727.11763	0.97793
3725.06072	0.97767
3723.00381	0.97742
3720.94690	0.97789
3718.88999	0.97850
3716.83309	0.97857
3714.77618	0.97871
3712.71927	0.97865
3710.66236	0.97780
3708.60545	0.97781
3706.54855	0.97911
3704.49164	0.98006
3702.43473	0.97994
3700.37782	0.97972
3698.32091	0.97970
3696.26400	0.97958
3694.20710	0.97959
3692.15019	0.97906
3690.09328	0.97799
3688.03637	0.97849
3685.97946	0.97973
3683.92256	0.97964
3681.86565	0.97885
3679.80874	0.97872
3677.75183	0.97935
3675.69492	0.97997
3673.63801	0.98025
3671.58111	0.98018
3669.52420	0.98021
3667.46729	0.98081
3665.41038	0.98109
3663.35347	0.98077
3661.29657	0.98026
3659.23966	0.97956
3657.18275	0.97847
3655.12584	0.97795
3653.06893	0.97870
3651.01202	0.97894
3648.95512	0.97783
3646.89821	0.97737
3644.84130	0.97789
3642.78439	0.97869
3640.72748	0.97962
3638.67058	0.98047
3636.61367	0.98055
3634.55676	0.97996
3632.49985	0.97892
3630.44294	0.97729
3628.38603	0.97652
3626.32913	0.97727
3624.27222	0.97745
3622.21531	0.97667
3620.15840	0.97579
3618.10149	0.97587
3616.04459	0.97674
3613.98768	0.97713
3611.93077	0.97677
3609.87386	0.97666
3607.81695	0.97711
3605.76004	0.97714
3603.70314	0.97661
3601.64623	0.97623
3599.58932	0.97598
3597.53241	0.97529
3595.47550	0.97426
3593.41860	0.97376
3591.36169	0.97381
3589.30478	0.97339
3587.24787	0.97263
3585.19096	0.97267
3583.13405	0.97311
3581.07715	0.97354
3579.02024	0.97370
3576.96333	0.97351
3574.90642	0.97366
3572.84951	0.97342
3570.79261	0.97193
3568.73570	0.97014
3566.67879	0.96928
3564.62188	0.96930
3562.56497	0.96909
3560.50806	0.96844
3558.45116	0.96805
3556.39425	0.96851
3554.33734	0.96882
3552.28043	0.96791
3550.22352	0.96658
3548.16662	0.96589
3546.10971	0.96555
3544.05280	0.96520
3541.99589	0.96503
3539.93898	0.96471
3537.88207	0.96414
3535.82517	0.96377
3533.76826	0.96370
3531.71135	0.96302
3529.65444	0.96081
3527.59753	0.95856
3525.54063	0.95771
3523.48372	0.95749
3521.42681	0.95739
3519.36990	0.95728
3517.31299	0.95678
3515.25608	0.95575
3513.19918	0.95519
3511.14227	0.95486
3509.08536	0.95334
3507.02845	0.95139
3504.97154	0.94995
3502.91464	0.94902
3500.85773	0.94861
3498.80082	0.94810
3496.74391	0.94750
3494.68700	0.94722
3492.63009	0.94669
3490.57319	0.94575
3488.51628	0.94488
3486.45937	0.94385
3484.40246	0.94262
3482.34555	0.94161
3480.28865	0.94088
3478.23174	0.94024
3476.17483	0.93947
3474.11792	0.93842
3472.06101	0.93721
3470.00410	0.93619
3467.94720	0.93511
3465.89029	0.93385
3463.83338	0.93312
3461.77647	0.93256
3459.71956	0.93155
3457.66266	0.93025
3455.60575	0.92862
3453.54884	0.92720
3451.49193	0.92668
3449.43502	0.92655
3447.37811	0.92563
3445.32121	0.92355
3443.26430	0.92204
3441.20739	0.92205
3439.15048	0.92193
3437.09357	0.92071
3435.03667	0.91925
3432.97976	0.91829
3430.92285	0.91753
3428.86594	0.91655
3426.80903	0.91555
3424.75212	0.91463
3422.69522	0.91366
3420.63831	0.91269
3418.58140	0.91195
3416.52449	0.91157
3414.46758	0.91116
3412.41068	0.91058
3410.35377	0.90984
3408.29686	0.90901
3406.23995	0.90833
3404.18304	0.90762
3402.12613	0.90669
3400.06923	0.90571
3398.01232	0.90506
3395.95541	0.90446
3393.89850	0.90369
3391.84159	0.90305
3389.78469	0.90235
3387.72778	0.90171
3385.67087	0.90115
3383.61396	0.90040
3381.55705	0.89972
3379.50014	0.89905
3377.44324	0.89790
3375.38633	0.89652
3373.32942	0.89565
3371.27251	0.89511
3369.21560	0.89403
3367.15870	0.89258
3365.10179	0.89155
3363.04488	0.89079
3360.98797	0.89006
3358.93106	0.88935
3356.87415	0.88856
3354.81725	0.88789
3352.76034	0.88711
3350.70343	0.88602
3348.64652	0.88467
3346.58961	0.88336
3344.53271	0.88260
3342.47580	0.88201
3340.41889	0.88096
3338.36198	0.87971
3336.30507	0.87906
3334.24816	0.87902
3332.19126	0.87903
3330.13435	0.87879
3328.07744	0.87854
3326.02053	0.87865
3323.96362	0.87935
3321.90672	0.88042
3319.84981	0.88081
3317.79290	0.88042
3315.73599	0.88060
3313.67908	0.88129
3311.62217	0.88179
3309.56527	0.88227
3307.50836	0.88268
3305.45145	0.88239
3303.39454	0.88150
3301.33763	0.88129
3299.28073	0.88180
3297.22382	0.88175
3295.16691	0.88131
3293.11000	0.88133
3291.05309	0.88172
3288.99618	0.88235
3286.93928	0.88296
3284.88237	0.88324
3282.82546	0.88315
3280.76855	0.88295
3278.71164	0.88294
3276.65474	0.88268
3274.59783	0.88237
3272.54092	0.88307
3270.48401	0.88426
3268.42710	0.88495
3266.37019	0.88537
3264.31329	0.88584
3262.25638	0.88670
3260.19947	0.88811
3258.14256	0.88955
3256.08565	0.89055
3254.02875	0.89121
3251.97184	0.89205
3249.91493	0.89315
3247.85802	0.89425
3245.80111	0.89533
3243.74420	0.89622
3241.68730	0.89670
3239.63039	0.89724
3237.57348	0.89816
3235.51657	0.89906
3233.45966	0.89967
3231.40276	0.90048
3229.34585	0.90213
3227.28894	0.90388
3225.23203	0.90497
3223.17512	0.90570
3221.11821	0.90609
3219.06131	0.90636
3217.00440	0.90709
3214.94749	0.90803
3212.89058	0.90872
3210.83367	0.90940
3208.77677	0.91055
3206.71986	0.91178
3204.66295	0.91256
3202.60604	0.91324
3200.54913	0.91397
3198.49222	0.91477
3196.43532	0.91569
3194.37841	0.91670
3192.32150	0.91760
3190.26459	0.91800
3188.20768	0.91820
3186.15078	0.91863
3184.09387	0.91940
3182.03696	0.92055
3179.98005	0.92163
3177.92314	0.92245
3175.86623	0.92336
3173.80933	0.92419
3171.75242	0.92471
3169.69551	0.92490
3167.63860	0.92505
3165.58169	0.92575
3163.52479	0.92688
3161.46788	0.92749
3159.41097	0.92735
3157.35406	0.92753
3155.29715	0.92811
3153.24024	0.92896
3151.18334	0.93013
3149.12643	0.93085
3147.06952	0.93124
3145.01261	0.93186
3142.95570	0.93235
3140.89880	0.93256
3138.84189	0.93293
3136.78498	0.93344
3134.72807	0.93386
3132.67116	0.93449
3130.61425	0.93528
3128.55735	0.93529
3126.50044	0.93506
3124.44353	0.93584
3122.38662	0.93671
3120.32971	0.93702
3118.27281	0.93767
3116.21590	0.93847
3114.15899	0.93874
3112.10208	0.93897
3110.04517	0.93963
3107.98826	0.94041
3105.93136	0.94074
3103.87445	0.94075
3101.81754	0.94125
3099.76063	0.94223
3097.70372	0.94275
3095.64682	0.94275
3093.58991	0.94317
3091.53300	0.94361
3089.47609	0.94339
3087.41918	0.94324
3085.36227	0.94362
3083.30537	0.94424
3081.24846	0.94480
3079.19155	0.94510
3077.13464	0.94528
3075.07773	0.94568
3073.02083	0.94630
3070.96392	0.94705
3068.90701	0.94782
3066.85010	0.94840
3064.79319	0.94856
3062.73628	0.94850
3060.67938	0.94867
3058.62247	0.94904
3056.56556	0.94953
3054.50865	0.95006
3052.45174	0.95062
3050.39484	0.95083
3048.33793	0.95074
3046.28102	0.95084
3044.22411	0.95080
3042.16720	0.95065
3040.11029	0.95075
3038.05339	0.95097
3035.99648	0.95137
3033.93957	0.95177
3031.88266	0.95193
3029.82575	0.95208
3027.76885	0.95230
3025.71194	0.95253
3023.65503	0.95307
3021.59812	0.95391
3019.54121	0.95446
3017.48430	0.95438
3015.42740	0.95400
3013.37049	0.95394
3011.31358	0.95435
3009.25667	0.95484
3007.19976	0.95504
3005.14286	0.95493
3003.08595	0.95475
3001.02904	0.95471
2998.97213	0.95498
2996.91522	0.95551
2994.85831	0.95588
2992.80141	0.95569
2990.74450	0.95503
2988.68759	0.95452
2986.63068	0.95443
2984.57377	0.95455
2982.51687	0.95505
2980.45996	0.95568
2978.40305	0.95548
2976.34614	0.95462
2974.28923	0.95414
2972.23232	0.95402
2970.17542	0.95363
2968.11851	0.95312
2966.06160	0.95273
2964.00469	0.95197
2961.94778	0.95099
2959.89088	0.95036
2957.83397	0.95012
2955.77706	0.94994
2953.72015	0.94931
2951.66324	0.94845
2949.60633	0.94757
2947.54943	0.94660
2945.49252	0.94594
2943.43561	0.94583
2941.37870	0.94565
2939.32179	0.94509
2937.26489	0.94478
2935.20798	0.94462
2933.15107	0.94394
2931.09416	0.94285
2929.03725	0.94186
2926.98034	0.94126
2924.92344	0.94106
2922.86653	0.94068
2920.80962	0.93960
2918.75271	0.93832
2916.69580	0.93734
2914.63890	0.93643
2912.58199	0.93497
2910.52508	0.93304
2908.46817	0.93145
2906.41126	0.93057
2904.35435	0.93008
2902.29745	0.92973
2900.24054	0.92928
2898.18363	0.92858
2896.12672	0.92798
2894.06981	0.92766
2892.01291	0.92764
2889.95600	0.92781
2887.89909	0.92794
2885.84218	0.92794
2883.78527	0.92794
2881.72836	0.92816
2879.67146	0.92845
2877.61455	0.92854
2875.55764	0.92860
2873.50073	0.92890
2871.44382	0.92938
2869.38692	0.92983
2867.33001	0.93038
2865.27310	0.93116
2863.21619	0.93169
2861.15928	0.93169
2859.10237	0.93203
2857.04547	0.93323
2854.98856	0.93461
2852.93165	0.93557
2850.87474	0.93604
2848.81783	0.93641
2846.76093	0.93704
2844.70402	0.93786
2842.64711	0.93859
2840.59020	0.93925
2838.53329	0.94021
2836.47638	0.94104
2834.41948	0.94127
2832.36257	0.94140
2830.30566	0.94172
2828.24875	0.94206
2826.19184	0.94252
2824.13494	0.94325
2822.07803	0.94418
2820.02112	0.94482
2817.96421	0.94517
2815.90730	0.94558
2813.85039	0.94592
2811.79349	0.94598
2809.73658	0.94619
2807.67967	0.94679
2805.62276	0.94712
2803.56585	0.94718
2801.50895	0.94756
2799.45204	0.94804
2797.39513	0.94823
2795.33822	0.94823
2793.28131	0.94827
2791.22440	0.94846
2789.16750	0.94879
2787.11059	0.94912
2785.05368	0.94924
2782.99677	0.94955
2780.93986	0.95016
2778.88296	0.95042
2776.82605	0.95033
2774.76914	0.95025
2772.71223	0.95012
2770.65532	0.95020
2768.59841	0.95058
2766.54151	0.95078
2764.48460	0.95081
2762.42769	0.95095
2760.37078	0.95120
2758.31387	0.95147
2756.25697	0.95145
2754.20006	0.95132
2752.14315	0.95139
2750.08624	0.95149
2748.02933	0.95165
2745.97242	0.95195
2743.91552	0.95206
2741.85861	0.95184
2739.80170	0.95142
2737.74479	0.95126
2735.68788	0.95133
2733.63098	0.95123
2731.57407	0.95129
2729.51716	0.95169
2727.46025	0.95189
2725.40334	0.95176
2723.34643	0.95167
2721.28953	0.95185
2719.23262	0.95222
2717.17571	0.95245
2715.11880	0.95254
2713.06189	0.95277
2711.00499	0.95298
2708.94808	0.95290
2706.89117	0.95280
2704.83426	0.95273
2702.77735	0.95276
2700.72044	0.95282
2698.66354	0.95264
2696.60663	0.95272
2694.54972	0.95321
2692.49281	0.95339
2690.43590	0.95339
2688.37900	0.95347
2686.32209	0.95340
2684.26518	0.95334
2682.20827	0.95357
2680.15136	0.95393
2678.09445	0.95413
2676.03755	0.95418
2673.98064	0.95426
2671.92373	0.95452
2669.86682	0.95486
2667.80991	0.95480
2665.75301	0.95425
2663.69610	0.95380
2661.63919	0.95364
2659.58228	0.95355
2657.52537	0.95359
2655.46846	0.95363
2653.41156	0.95354
2651.35465	0.95358
2649.29774	0.95374
2647.24083	0.95381
2645.18392	0.95405
2643.12702	0.95453
2641.07011	0.95468
2639.01320	0.95439
2636.95629	0.95422
2634.89938	0.95433
2632.84247	0.95469
2630.78557	0.95528
2628.72866	0.95570
2626.67175	0.95559
2624.61484	0.95539
2622.55793	0.95565
2620.50103	0.95633
2618.44412	0.95693
2616.38721	0.95704
2614.33030	0.95675
2612.27339	0.95641
2610.21648	0.95637
2608.15958	0.95656
2606.10267	0.95666
2604.04576	0.95668
2601.98885	0.95680
2599.93194	0.95699
2597.87504	0.95699
2595.81813	0.95647
2593.76122	0.95593
2591.70431	0.95611
2589.64740	0.95663
2587.59049	0.95715
2585.53359	0.95753
2583.47668	0.95749
2581.41977	0.95743
2579.36286	0.95762
2577.30595	0.95763
2575.24905	0.95748
2573.19214	0.95726
2571.13523	0.95692
2569.07832	0.95709
2567.02141	0.95782
2564.96450	0.95836
2562.90760	0.95878
2560.85069	0.95869
2558.79378	0.95788
2556.73687	0.95753
2554.67996	0.95786
2552.62306	0.95861
2550.56615	0.95945
2548.50924	0.95945
2546.45233	0.95896
2544.39542	0.95855
2542.33851	0.95842
2540.28161	0.95875
2538.22470	0.95888
2536.16779	0.95843
2534.11088	0.95811
2532.05397	0.95823
2529.99707	0.95837
2527.94016	0.95824
2525.88325	0.95804
2523.82634	0.95846
2521.76943	0.95931
2519.71252	0.95940
2517.65562	0.95860
2515.59871	0.95848
2513.54180	0.95952
2511.48489	0.96023
2509.42798	0.96001
2507.37108	0.95951
2505.31417	0.95925
2503.25726	0.95888
2501.20035	0.95837
2499.14344	0.95824
2497.08653	0.95816
2495.02963	0.95824
2492.97272	0.95891
2490.91581	0.95956
2488.85890	0.95960
2486.80199	0.95951
2484.74509	0.95958
2482.68818	0.95945
2480.63127	0.95953
2478.57436	0.96021
2476.51745	0.96056
2474.46054	0.96008
2472.40364	0.95974
2470.34673	0.95994
2468.28982	0.95980
2466.23291	0.95923
2464.17600	0.95913
2462.11910	0.95930
2460.06219	0.95902
2458.00528	0.95890
2455.94837	0.95938
2453.89146	0.95982
2451.83455	0.96026
2449.77765	0.96092
2447.72074	0.96139
2445.66383	0.96121
2443.60692	0.96043
2441.55001	0.96016
2439.49311	0.96042
2437.43620	0.95998
2435.37929	0.95931
2433.32238	0.95976
2431.26547	0.96068
2429.20856	0.96079
2427.15166	0.96052
2425.09475	0.96051
2423.03784	0.96079
2420.98093	0.96106
2418.92402	0.96108
2416.86712	0.96108
2414.81021	0.96148
2412.75330	0.96214
2410.69639	0.96229
2408.63948	0.96152
2406.58257	0.96071
2404.52567	0.96084
2402.46876	0.96137
2400.41185	0.96157
2398.35494	0.96139
2396.29803	0.96107
2394.24113	0.96109
2392.18422	0.96133
2390.12731	0.96155
2388.07040	0.96181
2386.01349	0.96159
2383.95658	0.96083
2381.89968	0.96066
2379.84277	0.96140
2377.78586	0.96227
2375.72895	0.96280
2373.67204	0.96288
2371.61514	0.96303
2369.55823	0.96344
2367.50132	0.96291
2365.44441	0.96190
2363.38750	0.96178
2361.33059	0.96165
2359.27369	0.96151
2357.21678	0.96151
2355.15987	0.96152
2353.10296	0.96224
2351.04605	0.96249
2348.98915	0.96222
2346.93224	0.96248
2344.87533	0.96255
2342.81842	0.96202
2340.76151	0.96194
2338.70460	0.96203
2336.64770	0.96190
2334.59079	0.96201
2332.53388	0.96250
2330.47697	0.96292
2328.42006	0.96217
2326.36316	0.95994
2324.30625	0.95852
2322.24934	0.95947
2320.19243	0.96118
2318.13552	0.96224
2316.07861	0.96265
2314.02171	0.96278
2311.96480	0.96288
2309.90789	0.96296
2307.85098	0.96278
2305.79407	0.96245
2303.73717	0.96210
2301.68026	0.96148
2299.62335	0.96092
2297.56644	0.96059
2295.50953	0.96057
2293.45262	0.96096
2291.39572	0.96130
2289.33881	0.96168
2287.28190	0.96258
2285.22499	0.96330
2283.16808	0.96321
2281.11117	0.96307
2279.05427	0.96330
2276.99736	0.96339
2274.94045	0.96265
2272.88354	0.96210
2270.82663	0.96270
2268.76973	0.96325
2266.71282	0.96356
2264.65591	0.96365
2262.59900	0.96299
2260.54209	0.96333
2258.48518	0.96460
2256.42828	0.96435
2254.37137	0.96306
2252.31446	0.96230
2250.25755	0.96233
2248.20064	0.96297
2246.14374	0.96390
2244.08683	0.96484
2242.02992	0.96539
2239.97301	0.96576
2237.91610	0.96626
2235.85919	0.96643
2233.80229	0.96591
2231.74538	0.96452
2229.68847	0.96271
2227.63156	0.96220
2225.57465	0.96317
2223.51775	0.96438
2221.46084	0.96595
2219.40393	0.96743
2217.34702	0.96764
2215.29011	0.96712
2213.23320	0.96708
2211.17630	0.96727
2209.11939	0.96706
2207.06248	0.96666
2205.00557	0.96693
2202.94866	0.96707
2200.89176	0.96565
2198.83485	0.96453
2196.77794	0.96618
2194.72103	0.96833
2192.66412	0.96680
2190.60721	0.96241
2188.55031	0.95969
2186.49340	0.96109
2184.43649	0.96460
2182.37958	0.96629
2180.32267	0.96562
2178.26577	0.96498
2176.20886	0.96525
2174.15195	0.96597
2172.09504	0.96595
2170.03813	0.96510
2167.98122	0.96474
2165.92432	0.96461
2163.86741	0.96454
2161.81050	0.96471
2159.75359	0.96701
2157.69668	0.97062
2155.63978	0.97027
2153.58287	0.96748
2151.52596	0.96658
2149.46905	0.96782
2147.41214	0.96950
2145.35523	0.96996
2143.29833	0.96898
2141.24142	0.96884
2139.18451	0.97008
2137.12760	0.97071
2135.07069	0.96995
2133.01379	0.96811
2130.95688	0.96660
2128.89997	0.96674
2126.84306	0.96752
2124.78615	0.96756
2122.72924	0.96653
2120.67234	0.96498
2118.61543	0.96400
2116.55852	0.96334
2114.50161	0.96294
2112.44470	0.96359
2110.38780	0.96414
2108.33089	0.96386
2106.27398	0.96392
2104.21707	0.96443
2102.16016	0.96520
2100.10325	0.96635
2098.04635	0.96682
2095.98944	0.96629
2093.93253	0.96585
2091.87562	0.96540
2089.81871	0.96411
2087.76181	0.96301
2085.70490	0.96286
2083.64799	0.96321
2081.59108	0.96438
2079.53417	0.96588
2077.47726	0.96613
2075.42036	0.96548
2073.36345	0.96535
2071.30654	0.96566
2069.24963	0.96614
2067.19272	0.96631
2065.13582	0.96544
2063.07891	0.96486
2061.02200	0.96534
2058.96509	0.96585
2056.90818	0.96604
2054.85127	0.96574
2052.79437	0.96438
2050.73746	0.96343
2048.68055	0.96494
2046.62364	0.96714
2044.56673	0.96757
2042.50983	0.96764
2040.45292	0.96879
2038.39601	0.96881
2036.33910	0.96673
2034.28219	0.96561
2032.22528	0.96624
2030.16838	0.96670
2028.11147	0.96687
2026.05456	0.96741
2023.99765	0.96833
2021.94074	0.96924
2019.88384	0.97035
2017.82693	0.97119
2015.77002	0.96990
2013.71311	0.96722
2011.65620	0.96610
2009.59929	0.96715
2007.54239	0.96782
2005.48548	0.96680
2003.42857	0.96691
2001.37166	0.96913
1999.31475	0.96993
1997.25785	0.96867
1995.20094	0.96823
1993.14403	0.96802
1991.08712	0.96684
1989.03021	0.96622
1986.97330	0.96730
1984.91640	0.96917
1982.85949	0.96963
1980.80258	0.96826
1978.74567	0.96870
1976.68876	0.97272
1974.63186	0.97519
1972.57495	0.97363
1970.51804	0.97088
1968.46113	0.96845
1966.40422	0.96724
1964.34731	0.96848
1962.29041	0.97134
1960.23350	0.97300
1958.17659	0.97129
1956.11968	0.96790
1954.06277	0.96687
1952.00587	0.96831
1949.94896	0.96880
1947.89205	0.96769
1945.83514	0.96743
1943.77823	0.96901
1941.72132	0.97043
1939.66442	0.97062
1937.60751	0.97072
1935.55060	0.97044
1933.49369	0.96965
1931.43678	0.96932
1929.37988	0.96918
1927.32297	0.96882
1925.26606	0.96852
1923.20915	0.96869
1921.15224	0.96907
1919.09533	0.96872
1917.03843	0.96817
1914.98152	0.96863
1912.92461	0.96943
1910.86770	0.96928
1908.81079	0.96852
1906.75389	0.96808
1904.69698	0.96794
1902.64007	0.96801
1900.58316	0.96812
1898.52625	0.96838
1896.46934	0.96859
1894.41244	0.96804
1892.35553	0.96781
1890.29862	0.96775
1888.24171	0.96627
1886.18480	0.96504
1884.12790	0.96543
1882.07099	0.96640
1880.01408	0.96723
1877.95717	0.96793
1875.90026	0.96811
1873.84335	0.96744
1871.78645	0.96644
1869.72954	0.96594
1867.67263	0.96625
1865.61572	0.96655
1863.55881	0.96684
1861.50191	0.96742
1859.44500	0.96756
1857.38809	0.96732
1855.33118	0.96717
1853.27427	0.96712
1851.21736	0.96729
1849.16046	0.96732
1847.10355	0.96699
1845.04664	0.96671
1842.98973	0.96674
1840.93282	0.96718
1838.87592	0.96793
1836.81901	0.96832
1834.76210	0.96795
1832.70519	0.96720
1830.64828	0.96635
1828.59137	0.96600
1826.53447	0.96644
1824.47756	0.96708
1822.42065	0.96742
1820.36374	0.96735
1818.30683	0.96733
1816.24993	0.96763
1814.19302	0.96774
1812.13611	0.96733
1810.07920	0.96693
1808.02229	0.96708
1805.96538	0.96736
1803.90848	0.96700
1801.85157	0.96627
1799.79466	0.96611
1797.73775	0.96629
1795.68084	0.96603
1793.62394	0.96543
1791.56703	0.96538
1789.51012	0.96594
1787.45321	0.96634
1785.39630	0.96683
1783.33939	0.96737
1781.28249	0.96710
1779.22558	0.96657
1777.16867	0.96667
1775.11176	0.96666
1773.05485	0.96585
1770.99795	0.96516
1768.94104	0.96553
1766.88413	0.96618
1764.82722	0.96657
1762.77031	0.96638
1760.71340	0.96589
1758.65650	0.96589
1756.59959	0.96603
1754.54268	0.96573
1752.48577	0.96521
1750.42886	0.96472
1748.37196	0.96454
1746.31505	0.96477
1744.25814	0.96515
1742.20123	0.96545
1740.14432	0.96573
1738.08741	0.96588
1736.03051	0.96542
1733.97360	0.96446
1731.91669	0.96444
1729.85978	0.96520
1727.80287	0.96592
1725.74597	0.96611
1723.68906	0.96575
1721.63215	0.96552
1719.57524	0.96514
1717.51833	0.96391
1715.46142	0.96343
1713.40452	0.96433
1711.34761	0.96524
1709.29070	0.96578
1707.23379	0.96583
1705.17688	0.96536
1703.11998	0.96477
1701.06307	0.96411
1699.00616	0.96358
1696.94925	0.96377
1694.89234	0.96445
1692.83543	0.96518
1690.77853	0.96550
1688.72162	0.96513
1686.66471	0.96432
1684.60780	0.96326
1682.55089	0.96281
1680.49399	0.96328
1678.43708	0.96362
1676.38017	0.96317
1674.32326	0.96218
1672.26635	0.96168
1670.20944	0.96140
1668.15254	0.96145
1666.09563	0.96198
1664.03872	0.96221
1661.98181	0.96208
1659.92490	0.96190
1657.86800	0.96149
1655.81109	0.96079
1653.75418	0.95960
1651.69727	0.95891
1649.64036	0.95887
1647.58345	0.95863
1645.52655	0.95901
1643.46964	0.95988
1641.41273	0.96046
1639.35582	0.96055
1637.29891	0.95995
1635.24201	0.95926
1633.18510	0.95964
1631.12819	0.96028
1629.07128	0.96054
1627.01437	0.96045
1624.95746	0.96017
1622.90056	0.96018
1620.84365	0.96075
1618.78674	0.96115
1616.72983	0.96122
1614.67292	0.96191
1612.61602	0.96267
1610.55911	0.96284
1608.50220	0.96300
1606.44529	0.96347
1604.38838	0.96386
1602.33147	0.96420
1600.27457	0.96455
1598.21766	0.96458
1596.16075	0.96448
1594.10384	0.96463
1592.04693	0.96482
1589.99003	0.96511
1587.93312	0.96557
1585.87621	0.96585
1583.81930	0.96605
1581.76239	0.96632
1579.70548	0.96618
1577.64858	0.96554
1575.59167	0.96553
1573.53476	0.96637
1571.47785	0.96663
1569.42094	0.96619
1567.36404	0.96605
1565.30713	0.96622
1563.25022	0.96638
1561.19331	0.96616
1559.13640	0.96517
1557.07949	0.96544
1555.02259	0.96647
1552.96568	0.96700
1550.90877	0.96726
1548.85186	0.96739
1546.79495	0.96722
1544.73805	0.96649
1542.68114	0.96556
1540.62423	0.96499
1538.56732	0.96553
1536.51041	0.96656
1534.45350	0.96706
1532.39660	0.96742
1530.33969	0.96791
1528.28278	0.96782
1526.22587	0.96721
1524.16896	0.96662
1522.11206	0.96591
1520.05515	0.96554
1517.99824	0.96559
1515.94133	0.96598
1513.88442	0.96683
1511.82751	0.96735
1509.77061	0.96702
1507.71370	0.96608
1505.65679	0.96643
1503.59988	0.96756
1501.54297	0.96781
1499.48607	0.96740
1497.42916	0.96680
1495.37225	0.96683
1493.31534	0.96719
1491.25843	0.96677
1489.20152	0.96576
1487.14462	0.96496
1485.08771	0.96404
1483.03080	0.96276
1480.97389	0.96149
1478.91698	0.96054
1476.86008	0.95955
1474.80317	0.95812
1472.74626	0.95628
1470.68935	0.95488
1468.63244	0.95398
1466.57553	0.95248
1464.51863	0.95033
1462.46172	0.94882
1460.40481	0.94769
1458.34790	0.94552
1456.29099	0.94280
1454.23409	0.94210
1452.17718	0.94211
1450.12027	0.94168
1448.06336	0.94109
1446.00645	0.94058
1443.94954	0.93998
1441.89264	0.93924
1439.83573	0.93832
1437.77882	0.93657
1435.72191	0.93385
1433.66500	0.93191
1431.60810	0.93064
1429.55119	0.92951
1427.49428	0.92912
1425.43737	0.92931
1423.38046	0.92988
1421.32355	0.93101
1419.26665	0.93268
1417.20974	0.93509
1415.15283	0.93759
1413.09592	0.93920
1411.03901	0.93988
1408.98211	0.94039
1406.92520	0.94096
1404.86829	0.94142
1402.81138	0.94173
1400.75447	0.94181
1398.69756	0.94186
1396.64066	0.94201
1394.58375	0.94205
1392.52684	0.94191
1390.46993	0.94147
1388.41302	0.94029
1386.35612	0.93840
1384.29921	0.93638
1382.24230	0.93406
1380.18539	0.93124
1378.12848	0.92811
1376.07157	0.92465
1374.01467	0.92102
1371.95776	0.91843
1369.90085	0.91720
1367.84394	0.91675
1365.78703	0.91675
1363.73013	0.91649
1361.67322	0.91610
1359.61631	0.91649
1357.55940	0.91740
1355.50249	0.91838
1353.44558	0.91959
1351.38868	0.92078
1349.33177	0.92146
1347.27486	0.92141
1345.21795	0.92022
1343.16104	0.91803
1341.10414	0.91546
1339.04723	0.91303
1336.99032	0.91148
1334.93341	0.91080
1332.87650	0.91067
1330.81959	0.91118
1328.76269	0.91181
1326.70578	0.91159
1324.64887	0.91034
1322.59196	0.90829
1320.53505	0.90552
1318.47815	0.90260
1316.42124	0.90063
1314.36433	0.90014
1312.30742	0.90133
1310.25051	0.90424
1308.19360	0.90795
1306.13670	0.91155
1304.07979	0.91502
1302.02288	0.91847
1299.96597	0.92179
1297.90906	0.92461
1295.85216	0.92654
1293.79525	0.92782
1291.73834	0.92885
1289.68143	0.92970
1287.62452	0.93020
1285.56761	0.93012
1283.51071	0.92955
1281.45380	0.92919
1279.39689	0.92948
1277.33998	0.93010
1275.28307	0.93092
1273.22617	0.93196
1271.16926	0.93267
1269.11235	0.93269
1267.05544	0.93254
1264.99853	0.93270
1262.94162	0.93325
1260.88472	0.93411
1258.82781	0.93486
1256.77090	0.93520
1254.71399	0.93536
1252.65708	0.93534
1250.60018	0.93524
1248.54327	0.93541
1246.48636	0.93572
1244.42945	0.93617
1242.37254	0.93701
1240.31563	0.93787
1238.25873	0.93838
1236.20182	0.93850
1234.14491	0.93865
1232.08800	0.93947
1230.03109	0.94108
1227.97419	0.94292
1225.91728	0.94465
1223.86037	0.94649
1221.80346	0.94847
1219.74655	0.95016
1217.68964	0.95123
1215.63274	0.95176
1213.57583	0.95153
1211.51892	0.95009
1209.46201	0.94746
1207.40510	0.94425
1205.34820	0.94172
1203.29129	0.94052
1201.23438	0.94001
1199.17747	0.94007
1197.12056	0.94132
1195.06365	0.94348
1193.00675	0.94569
1190.94984	0.94772
1188.89293	0.94956
1186.83602	0.95053
1184.77911	0.94995
1182.72221	0.94812
1180.66530	0.94548
1178.60839	0.94193
1176.55148	0.93680
1174.49457	0.92951
1172.43766	0.92037
1170.38076	0.91002
1168.32385	0.89926
1166.26694	0.88914
1164.21003	0.88086
1162.15312	0.87560
1160.09622	0.87395
1158.03931	0.87506
1155.98240	0.87789
1153.92549	0.88192
1151.86858	0.88651
1149.81167	0.89119
1147.75477	0.89566
1145.69786	0.89990
1143.64095	0.90409
1141.58404	0.90770
1139.52713	0.90966
1137.47023	0.90946
1135.41332	0.90734
1133.35641	0.90358
1131.29950	0.89872
1129.24259	0.89284
1127.18568	0.88566
1125.12878	0.87819
1123.07187	0.87155
1121.01496	0.86516
1118.95805	0.85784
1116.90114	0.84922
1114.84424	0.84002
1112.78733	0.83150
1110.73042	0.82495
1108.67351	0.82068
1106.61660	0.81805
1104.55969	0.81672
1102.50279	0.81678
1100.44588	0.81808
1098.38897	0.82050
1096.33206	0.82369
1094.27515	0.82671
1092.21825	0.82862
1090.16134	0.82930
1088.10443	0.82947
1086.04752	0.82934
1083.99061	0.82817
1081.93370	0.82527
1079.87680	0.82061
1077.81989	0.81486
1075.76298	0.80868
1073.70607	0.80215
1071.64916	0.79499
1069.59226	0.78674
1067.53535	0.77719
1065.47844	0.76635
1063.42153	0.75439
1061.36462	0.74229
1059.30771	0.73208
1057.25081	0.72512
1055.19390	0.72116
1053.13699	0.71969
1051.08008	0.72043
1049.02317	0.72308
1046.96627	0.72677
1044.90936	0.72980
1042.85245	0.73060
1040.79554	0.72842
1038.73863	0.72344
1036.68172	0.71633
1034.62482	0.70865
1032.56791	0.70268
1030.51100	0.69953
1028.45409	0.69862
1026.39718	0.69892
1024.34028	0.69993
1022.28337	0.70128
1020.22646	0.70265
1018.16955	0.70388
1016.11264	0.70514
1014.05573	0.70671
1011.99883	0.70850
1009.94192	0.71026
1007.88501	0.71190
1005.82810	0.71320
1003.77119	0.71375
1001.71429	0.71366
999.65738	0.71390
997.60047	0.71498
995.54356	0.71665
993.48665	0.71852
991.42974	0.71983
989.37284	0.72013
987.31593	0.72008
985.25902	0.72054
983.20211	0.72251
981.14520	0.72715
979.08830	0.73458
977.03139	0.74354
974.97448	0.75241
972.91757	0.76046
970.86066	0.76787
968.80375	0.77460
966.74685	0.78078
964.68994	0.78660
962.63303	0.79220
960.57612	0.79765
958.51921	0.80306
956.46231	0.80873
954.40540	0.81425
952.34849	0.81940
950.29158	0.82442
948.23467	0.82926
946.17776	0.83386
944.12086	0.83814
942.06395	0.84191
940.00704	0.84512
937.95013	0.84813
935.89322	0.85127
933.83632	0.85441
931.77941	0.85732
929.72250	0.85982
927.66559	0.86208
925.60868	0.86448
923.55177	0.86684
921.49487	0.86894
919.43796	0.87087
917.38105	0.87206
915.32414	0.87228
913.26723	0.87234
911.21033	0.87260
909.15342	0.87251
907.09651	0.87135
905.03960	0.86956
902.98269	0.86810
900.92578	0.86671
898.86888	0.86510
896.81197	0.86387
894.75506	0.86374
892.69815	0.86497
890.64124	0.86721
888.58434	0.87029
886.52743	0.87366
884.47052	0.87668
882.41361	0.87955
880.35670	0.88216
878.29979	0.88427
876.24289	0.88623
874.18598	0.88773
872.12907	0.88888
870.07216	0.89108
868.01525	0.89405
865.95835	0.89645
863.90144	0.89830
861.84453	0.90003
859.78762	0.90184
857.73071	0.90335
855.67380	0.90411
853.61690	0.90492
851.55999	0.90656
849.50308	0.90812
847.44617	0.90867
845.38926	0.90882
843.33236	0.90960
841.27545	0.91083
839.21854	0.91160
837.16163	0.91190
835.10472	0.91202
833.04781	0.91221
830.99091	0.91285
828.93400	0.91350
826.87709	0.91357
824.82018	0.91361
822.76327	0.91392
820.70637	0.91351
818.64946	0.91229
816.59255	0.91162
814.53564	0.91209
812.47873	0.91257
810.42182	0.91237
808.36492	0.91198
806.30801	0.91190
804.25110	0.91248
802.19419	0.91367
800.13728	0.91471
798.08038	0.91542
796.02347	0.91622
793.96656	0.91684
791.90965	0.91692
789.85274	0.91645
787.79583	0.91587
785.73893	0.91570
783.68202	0.91562
781.62511	0.91518
779.56820	0.91512
777.51129	0.91592
775.45439	0.91613
773.39748	0.91511
771.34057	0.91408
769.28366	0.91409
767.22675	0.91467
765.16984	0.91435
763.11294	0.91346
761.05603	0.91312
758.99912	0.91269
756.94221	0.91152
754.88530	0.91007
752.82839	0.90914
750.77149	0.90874
748.71458	0.90804
746.65767	0.90659
744.60076	0.90487
742.54385	0.90379
740.48695	0.90343
738.43004	0.90273
736.37313	0.90172
734.31622	0.90089
732.25931	0.89938
730.20240	0.89727
728.14550	0.89518
726.08859	0.89262
724.03168	0.88983
721.97477	0.88697
719.91786	0.88385
717.86096	0.88089
715.80405	0.87839
713.74714	0.87657
711.69023	0.87547
709.63332	0.87454
707.57641	0.87334
705.51951	0.87185
703.46260	0.87003
701.40569	0.86816
699.34878	0.86732
697.29187	0.86775
695.23497	0.86809
693.17806	0.86707
691.12115	0.86489
689.06424	0.86315
687.00733	0.86263
684.95042	0.86159
682.89352	0.85872
680.83661	0.85515
678.77970	0.85156
676.72279	0.84682
674.66588	0.84035
672.60898	0.83414
670.55207	0.82988
668.49516	0.82501
666.43825	0.81989
664.38134	0.81814
662.32443	0.81800
660.26753	0.81901
658.21062	0.82174
656.15371	0.82497
654.09680	0.82701
652.03989	0.82839
649.98299	0.83042
647.92608	0.83191
645.86917	0.83127
643.81226	0.82927
641.75535	0.82750
639.69844	0.82639
637.64154	0.82515
635.58463	0.82327
633.52772	0.82077
631.47081	0.81773
629.41390	0.81433
627.35700	0.81111
625.30009	0.80811
623.24318	0.80472
621.18627	0.80055
619.12936	0.79555
617.07245	0.79152
615.01555	0.79029
612.95864	0.79017
610.90173	0.78931
608.84482	0.78885
606.78791	0.78919
604.73101	0.78930
602.67410	0.78934
600.61719	0.78926
598.56028	0.78844
596.50337	0.78664
594.44646	0.78439
592.38956	0.78290
590.33265	0.78254
588.27574	0.78321
586.21883	0.78400
584.16192	0.78364
582.10502	0.78245
580.04811	0.78097
577.99120	0.78022
575.93429	0.78131
573.87738	0.78303
571.82047	0.78319
569.76357	0.78039
567.70666	0.77534
565.64975	0.77004
563.59284	0.76416
561.53593	0.75704
559.47903	0.75121
557.42212	0.74952
555.36521	0.75095
553.30830	0.75357
551.25139	0.75666
549.19448	0.75886
547.13758	0.76017
545.08067	0.76256
543.02376	0.76633
540.96685	0.76959
538.90994	0.77144
536.85304	0.77223
534.79613	0.77270
532.73922	0.77382
530.68231	0.77470
528.62540	0.77360
526.56849	0.77057
524.51159	0.76722
522.45468	0.76551
520.39777	0.76531
518.34086	0.76520
516.28395	0.76534
514.22705	0.76628
512.17014	0.76795
510.11323	0.77062
508.05632	0.77373
505.99941	0.77610
503.94250	0.77678
501.88560	0.77498
499.82869	0.77327
497.77178	0.77444
495.71487	0.77661
493.65796	0.77870
491.60106	0.78068
489.54415	0.78100
487.48724	0.78066
485.43033	0.78120
483.37342	0.78185
481.31651	0.78325
479.25961	0.78707
477.20270	0.79031
475.14579	0.79082
473.08888	0.79160
471.03197	0.79351
468.97507	0.79519
466.91816	0.79530
464.86125	0.79377
462.80434	0.79194
460.74743	0.79097
458.69052	0.79079
456.63362	0.79017
454.57671	0.79119
452.51980	0.79361
450.46289	0.79220
448.40598	0.78679
446.34908	0.78367
444.29217	0.78377
442.23526	0.78168
440.17835	0.77887
438.12144	0.77787
436.06453	0.77503
434.00763	0.77146
431.95072	0.77272
429.89381	0.77723
427.83690	0.77989
425.77999	0.78085
423.72309	0.78223
421.66618	0.78305
419.60927	0.78154
417.55236	0.78136
415.49545	0.78642
413.43854	0.79360
411.38164	0.79862
409.32473	0.79900
407.26782	0.79723
405.21091	0.79572
403.15400	0.79512
401.09710	0.79410
399.04019	0.79153
