3996.57260	0.98482
3994.51569	0.98489
3992.45878	0.98520
3990.40188	0.98542
3988.34497	0.98556
3986.28806	0.98605
3984.23115	0.98690
3982.17424	0.98746
3980.11733	0.98702
3978.06043	0.98595
3976.00352	0.98516
3973.94661	0.98491
3971.88970	0.98524
3969.83279	0.98584
3967.77589	0.98594
3965.71898	0.98571
3963.66207	0.98630
3961.60516	0.98732
3959.54825	0.98712
3957.49134	0.98621
3955.43444	0.98618
3953.37753	0.98669
3951.32062	0.98669
3949.26371	0.98682
3947.20680	0.98750
3945.14990	0.98748
3943.09299	0.98680
3941.03608	0.98636
3938.97917	0.98582
3936.92226	0.98518
3934.86535	0.98533
3932.80845	0.98636
3930.75154	0.98719
3928.69463	0.98694
3926.63772	0.98612
3924.58081	0.98551
3922.52391	0.98546
3920.46700	0.98588
3918.41009	0.98623
3916.35318	0.98608
3914.29627	0.98578
3912.23936	0.98583
3910.18246	0.98626
3908.12555	0.98648
3906.06864	0.98616
3904.01173	0.98576
3901.95482	0.98574
3899.89792	0.98601
3897.84101	0.98601
3895.78410	0.98583
3893.72719	0.98595
3891.67028	0.98602
3889.61337	0.98602
3887.55647	0.98631
3885.49956	0.98620
3883.44265	0.98561
3881.38574	0.98561
3879.32883	0.98624
3877.27193	0.98680
3875.21502	0.98675
3873.15811	0.98605
3871.10120	0.98559
3869.04429	0.98590
3866.98738	0.98570
3864.93048	0.98524
3862.87357	0.98630
3860.81666	0.98779
3858.75975	0.98780
3856.70284	0.98644
3854.64594	0.98466
3852.58903	0.98437
3850.53212	0.98542
3848.47521	0.98582
3846.41830	0.98578
3844.36139	0.98614
3842.30449	0.98692
3840.24758	0.98753
3838.19067	0.98730
3836.13376	0.98623
3834.07685	0.98544
3832.01995	0.98551
3829.96304	0.98633
3827.90613	0.98701
3825.84922	0.98692
3823.79231	0.98652
3821.73540	0.98626
3819.67850	0.98609
3817.62159	0.98613
3815.56468	0.98641
3813.50777	0.98657
3811.45086	0.98676
3809.39396	0.98689
3807.33705	0.98682
3805.28014	0.98719
3803.22323	0.98757
3801.16632	0.98737
3799.10941	0.98705
3797.05251	0.98679
3794.99560	0.98680
3792.93869	0.98734
3790.88178	0.98798
3788.82487	0.98778
3786.76796	0.98702
3784.71106	0.98705
3782.65415	0.98759
3780.59724	0.98768
3778.54033	0.98724
3776.48342	0.98712
3774.42652	0.98769
3772.36961	0.98818
3770.31270	0.98806
3768.25579	0.98754
3766.19888	0.98712
3764.14197	0.98677
3762.08507	0.98657
3760.02816	0.98675
3757.97125	0.98658
3755.91434	0.98582
3753.85743	0.98576
3751.80053	0.98693
3749.74362	0.98737
3747.68671	0.98651
3745.62980	0.98579
3743.57289	0.98580
3741.51598	0.98619
3739.45908	0.98633
3737.40217	0.98662
3735.34526	0.98778
3733.28835	0.98855
3731.23144	0.98787
3729.17454	0.98732
3727.11763	0.98729
3725.06072	0.98745
3723.00381	0.98763
3720.94690	0.98748
3718.88999	0.98714
3716.83309	0.98674
3714.77618	0.98629
3712.71927	0.98590
3710.66236	0.98567
3708.60545	0.98583
3706.54855	0.98649
3704.49164	0.98692
3702.43473	0.98657
3700.37782	0.98640
3698.32091	0.98693
3696.26400	0.98688
3694.20710	0.98607
3692.15019	0.98563
3690.09328	0.98547
3688.03637	0.98576
3685.97946	0.98682
3683.92256	0.98720
3681.86565	0.98669
3679.80874	0.98673
3677.75183	0.98755
3675.69492	0.98785
3673.63801	0.98732
3671.58111	0.98636
3669.52420	0.98498
3667.46729	0.98476
3665.41038	0.98555
3663.35347	0.98576
3661.29657	0.98550
3659.23966	0.98553
3657.18275	0.98587
3655.12584	0.98620
3653.06893	0.98609
3651.01202	0.98539
3648.95512	0.98469
3646.89821	0.98479
3644.84130	0.98510
3642.78439	0.98485
3640.72748	0.98394
3638.67058	0.98337
3636.61367	0.98376
3634.55676	0.98441
3632.49985	0.98461
3630.44294	0.98435
3628.38603	0.98417
3626.32913	0.98424
3624.27222	0.98439
3622.21531	0.98476
3620.15840	0.98515
3618.10149	0.98514
3616.04459	0.98448
3613.98768	0.98356
3611.93077	0.98343
3609.87386	0.98457
3607.81695	0.98565
3605.76004	0.98502
3603.70314	0.98358
3601.64623	0.98296
3599.58932	0.98344
3597.53241	0.98419
3595.47550	0.98463
3593.41860	0.98463
3591.36169	0.98414
3589.30478	0.98349
3587.24787	0.98299
3585.19096	0.98293
3583.13405	0.98309
3581.07715	0.98286
3579.02024	0.98253
3576.96333	0.98299
3574.90642	0.98359
3572.84951	0.98351
3570.79261	0.98335
3568.73570	0.98335
3566.67879	0.98320
3564.62188	0.98289
3562.56497	0.98250
3560.50806	0.98189
3558.45116	0.98167
3556.39425	0.98232
3554.33734	0.98320
3552.28043	0.98362
3550.22352	0.98339
3548.16662	0.98330
3546.10971	0.98331
3544.05280	0.98266
3541.99589	0.98203
3539.93898	0.98207
3537.88207	0.98229
3535.82517	0.98211
3533.76826	0.98150
3531.71135	0.98128
3529.65444	0.98164
3527.59753	0.98143
3525.54063	0.98071
3523.48372	0.98088
3521.42681	0.98160
3519.36990	0.98162
3517.31299	0.98123
3515.25608	0.98094
3513.19918	0.98097
3511.14227	0.98144
3509.08536	0.98146
3507.02845	0.98086
3504.97154	0.98061
3502.91464	0.98094
3500.85773	0.98140
3498.80082	0.98165
3496.74391	0.98164
3494.68700	0.98148
3492.63009	0.98132
3490.57319	0.98092
3488.51628	0.98022
3486.45937	0.97992
3484.40246	0.98034
3482.34555	0.98077
3480.28865	0.98087
3478.23174	0.98066
3476.17483	0.98050
3474.11792	0.98086
3472.06101	0.98143
3470.00410	0.98150
3467.94720	0.98085
3465.89029	0.98033
3463.83338	0.98059
3461.77647	0.98139
3459.71956	0.98200
3457.66266	0.98168
3455.60575	0.98102
3453.54884	0.98085
3451.49193	0.98077
3449.43502	0.98093
3447.37811	0.98145
3445.32121	0.98174
3443.26430	0.98163
3441.20739	0.98183
3439.15048	0.98250
3437.09357	0.98260
3435.03667	0.98201
3432.97976	0.98164
3430.92285	0.98192
3428.86594	0.98285
3426.80903	0.98374
3424.75212	0.98408
3422.69522	0.98422
3420.63831	0.98420
3418.58140	0.98394
3416.52449	0.98361
3414.46758	0.98345
3412.41068	0.98376
3410.35377	0.98407
3408.29686	0.98382
3406.23995	0.98338
3404.18304	0.98339
3402.12613	0.98357
3400.06923	0.98355
3398.01232	0.98378
3395.95541	0.98457
3393.89850	0.98533
3391.84159	0.98539
3389.78469	0.98523
3387.72778	0.98528
3385.67087	0.98502
3383.61396	0.98450
3381.55705	0.98399
3379.50014	0.98332
3377.44324	0.98304
3375.38633	0.98340
3373.32942	0.98367
3371.27251	0.98329
3369.21560	0.98288
3367.15870	0.98323
3365.10179	0.98382
3363.04488	0.98388
3360.98797	0.98367
3358.93106	0.98380
3356.87415	0.98445
3354.81725	0.98489
3352.76034	0.98481
3350.70343	0.98465
3348.64652	0.98426
3346.58961	0.98384
3344.53271	0.98379
3342.47580	0.98378
3340.41889	0.98379
3338.36198	0.98408
3336.30507	0.98455
3334.24816	0.98492
3332.19126	0.98494
3330.13435	0.98456
3328.07744	0.98433
3326.02053	0.98436
3323.96362	0.98451
3321.90672	0.98514
3319.84981	0.98591
3317.79290	0.98616
3315.73599	0.98570
3313.67908	0.98493
3311.62217	0.98464
3309.56527	0.98482
3307.50836	0.98468
3305.45145	0.98435
3303.39454	0.98440
3301.33763	0.98445
3299.28073	0.98444
3297.22382	0.98489
3295.16691	0.98547
3293.11000	0.98526
3291.05309	0.98468
3288.99618	0.98470
3286.93928	0.98532
3284.88237	0.98563
3282.82546	0.98518
3280.76855	0.98497
3278.71164	0.98532
3276.65474	0.98528
3274.59783	0.98475
3272.54092	0.98470
3270.48401	0.98514
3268.42710	0.98534
3266.37019	0.98537
3264.31329	0.98536
3262.25638	0.98529
3260.19947	0.98535
3258.14256	0.98531
3256.08565	0.98503
3254.02875	0.98522
3251.97184	0.98586
3249.91493	0.98620
3247.85802	0.98619
3245.80111	0.98588
3243.74420	0.98556
3241.68730	0.98540
3239.63039	0.98507
3237.57348	0.98508
3235.51657	0.98561
3233.45966	0.98583
3231.40276	0.98566
3229.34585	0.98547
3227.28894	0.98560
3225.23203	0.98609
3223.17512	0.98630
3221.11821	0.98599
3219.06131	0.98562
3217.00440	0.98556
3214.94749	0.98554
3212.89058	0.98533
3210.83367	0.98512
3208.77677	0.98519
3206.71986	0.98571
3204.66295	0.98596
3202.60604	0.98557
3200.54913	0.98537
3198.49222	0.98559
3196.43532	0.98581
3194.37841	0.98583
3192.32150	0.98556
3190.26459	0.98536
3188.20768	0.98555
3186.15078	0.98567
3184.09387	0.98550
3182.03696	0.98537
3179.98005	0.98543
3177.92314	0.98566
3175.86623	0.98580
3173.80933	0.98553
3171.75242	0.98513
3169.69551	0.98504
3167.63860	0.98511
3165.58169	0.98525
3163.52479	0.98550
3161.46788	0.98574
3159.41097	0.98589
3157.35406	0.98588
3155.29715	0.98559
3153.24024	0.98517
3151.18334	0.98468
3149.12643	0.98452
3147.06952	0.98512
3145.01261	0.98550
3142.95570	0.98529
3140.89880	0.98548
3138.84189	0.98596
3136.78498	0.98606
3134.72807	0.98605
3132.67116	0.98612
3130.61425	0.98590
3128.55735	0.98551
3126.50044	0.98538
3124.44353	0.98560
3122.38662	0.98596
3120.32971	0.98619
3118.27281	0.98608
3116.21590	0.98616
3114.15899	0.98664
3112.10208	0.98666
3110.04517	0.98637
3107.98826	0.98621
3105.93136	0.98607
3103.87445	0.98617
3101.81754	0.98613
3099.76063	0.98564
3097.70372	0.98538
3095.64682	0.98571
3093.58991	0.98617
3091.53300	0.98621
3089.47609	0.98606
3087.41918	0.98590
3085.36227	0.98546
3083.30537	0.98527
3081.24846	0.98573
3079.19155	0.98619
3077.13464	0.98606
3075.07773	0.98564
3073.02083	0.98535
3070.96392	0.98522
3068.90701	0.98538
3066.85010	0.98565
3064.79319	0.98572
3062.73628	0.98565
3060.67938	0.98525
3058.62247	0.98461
3056.56556	0.98449
3054.50865	0.98485
3052.45174	0.98474
3050.39484	0.98419
3048.33793	0.98402
3046.28102	0.98409
3044.22411	0.98415
3042.16720	0.98455
3040.11029	0.98481
3038.05339	0.98445
3035.99648	0.98413
3033.93957	0.98401
3031.88266	0.98355
3029.82575	0.98300
3027.76885	0.98289
3025.71194	0.98288
3023.65503	0.98256
3021.59812	0.98237
3019.54121	0.98252
3017.48430	0.98271
3015.42740	0.98277
3013.37049	0.98277
3011.31358	0.98282
3009.25667	0.98290
3007.19976	0.98284
3005.14286	0.98262
3003.08595	0.98235
3001.02904	0.98232
2998.97213	0.98248
2996.91522	0.98228
2994.85831	0.98188
2992.80141	0.98160
2990.74450	0.98152
2988.68759	0.98163
2986.63068	0.98161
2984.57377	0.98138
2982.51687	0.98112
2980.45996	0.98097
2978.40305	0.98086
2976.34614	0.98078
2974.28923	0.98045
2972.23232	0.97938
2970.17542	0.97844
2968.11851	0.97833
2966.06160	0.97811
2964.00469	0.97735
2961.94778	0.97636
2959.89088	0.97569
2957.83397	0.97572
2955.77706	0.97594
2953.72015	0.97622
2951.66324	0.97671
2949.60633	0.97680
2947.54943	0.97639
2945.49252	0.97600
2943.43561	0.97578
2941.37870	0.97580
2939.32179	0.97632
2937.26489	0.97712
2935.20798	0.97774
2933.15107	0.97806
2931.09416	0.97845
2929.03725	0.97904
2926.98034	0.97952
2924.92344	0.97983
2922.86653	0.98005
2920.80962	0.98008
2918.75271	0.97977
2916.69580	0.97948
2914.63890	0.97955
2912.58199	0.97986
2910.52508	0.97990
2908.46817	0.97963
2906.41126	0.97980
2904.35435	0.98017
2902.29745	0.98003
2900.24054	0.97956
2898.18363	0.97909
2896.12672	0.97875
2894.06981	0.97890
2892.01291	0.97962
2889.95600	0.98003
2887.89909	0.97995
2885.84218	0.97989
2883.78527	0.97975
2881.72836	0.97980
2879.67146	0.98016
2877.61455	0.98027
2875.55764	0.98029
2873.50073	0.98037
2871.44382	0.98014
2869.38692	0.97966
2867.33001	0.97964
2865.27310	0.98035
2863.21619	0.98096
2861.15928	0.98117
2859.10237	0.98154
2857.04547	0.98204
2854.98856	0.98255
2852.93165	0.98301
2850.87474	0.98304
2848.81783	0.98294
2846.76093	0.98304
2844.70402	0.98329
2842.64711	0.98352
2840.59020	0.98350
2838.53329	0.98340
2836.47638	0.98362
2834.41948	0.98411
2832.36257	0.98441
2830.30566	0.98455
2828.24875	0.98476
2826.19184	0.98475
2824.13494	0.98433
2822.07803	0.98399
2820.02112	0.98421
2817.96421	0.98451
2815.90730	0.98465
2813.85039	0.98481
2811.79349	0.98483
2809.73658	0.98471
2807.67967	0.98451
2805.62276	0.98437
2803.56585	0.98442
2801.50895	0.98456
2799.45204	0.98456
2797.39513	0.98443
2795.33822	0.98430
2793.28131	0.98410
2791.22440	0.98409
2789.16750	0.98462
2787.11059	0.98518
2785.05368	0.98519
2782.99677	0.98493
2780.93986	0.98496
2778.88296	0.98522
2776.82605	0.98529
2774.76914	0.98508
2772.71223	0.98498
2770.65532	0.98515
2768.59841	0.98536
2766.54151	0.98533
2764.48460	0.98504
2762.42769	0.98497
2760.37078	0.98535
2758.31387	0.98563
2756.25697	0.98551
2754.20006	0.98537
2752.14315	0.98538
2750.08624	0.98528
2748.02933	0.98499
2745.97242	0.98473
2743.91552	0.98471
2741.85861	0.98510
2739.80170	0.98548
2737.74479	0.98531
2735.68788	0.98500
2733.63098	0.98503
2731.57407	0.98511
2729.51716	0.98499
2727.46025	0.98498
2725.40334	0.98516
2723.34643	0.98510
2721.28953	0.98504
2719.23262	0.98526
2717.17571	0.98531
2715.11880	0.98501
2713.06189	0.98469
2711.00499	0.98464
2708.94808	0.98475
2706.89117	0.98492
2704.83426	0.98541
2702.77735	0.98589
2700.72044	0.98580
2698.66354	0.98546
2696.60663	0.98536
2694.54972	0.98554
2692.49281	0.98583
2690.43590	0.98603
2688.37900	0.98597
2686.32209	0.98571
2684.26518	0.98562
2682.20827	0.98553
2680.15136	0.98525
2678.09445	0.98506
2676.03755	0.98499
2673.98064	0.98503
2671.92373	0.98522
2669.86682	0.98540
2667.80991	0.98528
2665.75301	0.98493
2663.69610	0.98472
2661.63919	0.98488
2659.58228	0.98532
2657.52537	0.98565
2655.46846	0.98560
2653.41156	0.98531
2651.35465	0.98520
2649.29774	0.98528
2647.24083	0.98522
2645.18392	0.98508
2643.12702	0.98507
2641.07011	0.98515
2639.01320	0.98515
2636.95629	0.98505
2634.89938	0.98510
2632.84247	0.98525
2630.78557	0.98541
2628.72866	0.98570
2626.67175	0.98581
2624.61484	0.98570
2622.55793	0.98573
2620.50103	0.98582
2618.44412	0.98590
2616.38721	0.98601
2614.33030	0.98600
2612.27339	0.98593
2610.21648	0.98596
2608.15958	0.98601
2606.10267	0.98626
2604.04576	0.98681
2601.98885	0.98692
2599.93194	0.98660
2597.87504	0.98632
2595.81813	0.98590
2593.76122	0.98576
2591.70431	0.98620
2589.64740	0.98636
2587.59049	0.98595
2585.53359	0.98591
2583.47668	0.98640
2581.41977	0.98682
2579.36286	0.98700
2577.30595	0.98661
2575.24905	0.98587
2573.19214	0.98586
2571.13523	0.98649
2569.07832	0.98691
2567.02141	0.98695
2564.96450	0.98651
2562.90760	0.98611
2560.85069	0.98651
2558.79378	0.98700
2556.73687	0.98723
2554.67996	0.98755
2552.62306	0.98737
2550.56615	0.98681
2548.50924	0.98671
2546.45233	0.98656
2544.39542	0.98639
2542.33851	0.98714
2540.28161	0.98783
2538.22470	0.98742
2536.16779	0.98675
2534.11088	0.98649
2532.05397	0.98621
2529.99707	0.98606
2527.94016	0.98636
2525.88325	0.98660
2523.82634	0.98663
2521.76943	0.98672
2519.71252	0.98684
2517.65562	0.98708
2515.59871	0.98735
2513.54180	0.98716
2511.48489	0.98655
2509.42798	0.98613
2507.37108	0.98625
2505.31417	0.98655
2503.25726	0.98663
2501.20035	0.98670
2499.14344	0.98683
2497.08653	0.98685
2495.02963	0.98685
2492.97272	0.98695
2490.91581	0.98709
2488.85890	0.98722
2486.80199	0.98734
2484.74509	0.98731
2482.68818	0.98712
2480.63127	0.98676
2478.57436	0.98642
2476.51745	0.98643
2474.46054	0.98667
2472.40364	0.98697
2470.34673	0.98725
2468.28982	0.98746
2466.23291	0.98742
2464.17600	0.98737
2462.11910	0.98785
2460.06219	0.98814
2458.00528	0.98756
2455.94837	0.98704
2453.89146	0.98747
2451.83455	0.98806
2449.77765	0.98779
2447.72074	0.98741
2445.66383	0.98764
2443.60692	0.98778
2441.55001	0.98763
2439.49311	0.98736
2437.43620	0.98707
2435.37929	0.98703
2433.32238	0.98688
2431.26547	0.98682
2429.20856	0.98742
2427.15166	0.98796
2425.09475	0.98770
2423.03784	0.98733
2420.98093	0.98734
2418.92402	0.98710
2416.86712	0.98678
2414.81021	0.98694
2412.75330	0.98703
2410.69639	0.98639
2408.63948	0.98572
2406.58257	0.98599
2404.52567	0.98683
2402.46876	0.98723
2400.41185	0.98697
2398.35494	0.98672
2396.29803	0.98678
2394.24113	0.98703
2392.18422	0.98750
2390.12731	0.98772
2388.07040	0.98730
2386.01349	0.98666
2383.95658	0.98645
2381.89968	0.98694
2379.84277	0.98757
2377.78586	0.98740
2375.72895	0.98658
2373.67204	0.98575
2371.61514	0.98536
2369.55823	0.98603
2367.50132	0.98693
2365.44441	0.98706
2363.38750	0.98734
2361.33059	0.98746
2359.27369	0.98632
2357.21678	0.98501
2355.15987	0.98476
2353.10296	0.98527
2351.04605	0.98588
2348.98915	0.98630
2346.93224	0.98658
2344.87533	0.98677
2342.81842	0.98683
2340.76151	0.98679
2338.70460	0.98678
2336.64770	0.98663
2334.59079	0.98620
2332.53388	0.98596
2330.47697	0.98612
2328.42006	0.98669
2326.36316	0.98740
2324.30625	0.98752
2322.24934	0.98709
2320.19243	0.98650
2318.13552	0.98584
2316.07861	0.98565
2314.02171	0.98598
2311.96480	0.98630
2309.90789	0.98675
2307.85098	0.98741
2305.79407	0.98785
2303.73717	0.98803
2301.68026	0.98796
2299.62335	0.98751
2297.56644	0.98715
2295.50953	0.98766
2293.45262	0.98838
2291.39572	0.98817
2289.33881	0.98740
2287.28190	0.98677
2285.22499	0.98627
2283.16808	0.98629
2281.11117	0.98703
2279.05427	0.98723
2276.99736	0.98676
2274.94045	0.98692
2272.88354	0.98751
2270.82663	0.98804
2268.76973	0.98875
2266.71282	0.98919
2264.65591	0.98869
2262.59900	0.98765
2260.54209	0.98715
2258.48518	0.98760
2256.42828	0.98813
2254.37137	0.98811
2252.31446	0.98792
2250.25755	0.98782
2248.20064	0.98772
2246.14374	0.98761
2244.08683	0.98753
2242.02992	0.98708
2239.97301	0.98708
2237.91610	0.98897
2235.85919	0.98997
2233.80229	0.98792
2231.74538	0.98668
2229.68847	0.98789
2227.63156	0.98875
2225.57465	0.98813
2223.51775	0.98741
2221.46084	0.98771
2219.40393	0.98824
2217.34702	0.98879
2215.29011	0.98928
2213.23320	0.98900
2211.17630	0.98891
2209.11939	0.98925
2207.06248	0.98898
2205.00557	0.98860
2202.94866	0.98860
2200.89176	0.98876
2198.83485	0.98925
2196.77794	0.98990
2194.72103	0.99040
2192.66412	0.99068
2190.60721	0.99071
2188.55031	0.99033
2186.49340	0.98953
2184.43649	0.98907
2182.37958	0.98868
2180.32267	0.98818
2178.26577	0.98855
2176.20886	0.98902
2174.15195	0.98858
2172.09504	0.98766
2170.03813	0.98713
2167.98122	0.98763
2165.92432	0.98887
2163.86741	0.99029
2161.81050	0.99113
2159.75359	0.99066
2157.69668	0.98994
2155.63978	0.98916
2153.58287	0.98741
2151.52596	0.98527
2149.46905	0.98469
2147.41214	0.98732
2145.35523	0.99091
2143.29833	0.99154
2141.24142	0.98981
2139.18451	0.98816
2137.12760	0.98681
2135.07069	0.98611
2133.01379	0.98626
2130.95688	0.98661
2128.89997	0.98652
2126.84306	0.98585
2124.78615	0.98534
2122.72924	0.98589
2120.67234	0.98720
2118.61543	0.98790
2116.55852	0.98777
2114.50161	0.98714
2112.44470	0.98684
2110.38780	0.98775
2108.33089	0.98824
2106.27398	0.98710
2104.21707	0.98593
2102.16016	0.98630
2100.10325	0.98768
2098.04635	0.98865
2095.98944	0.98850
2093.93253	0.98737
2091.87562	0.98667
2089.81871	0.98727
2087.76181	0.98793
2085.70490	0.98793
2083.64799	0.98798
2081.59108	0.98846
2079.53417	0.98899
2077.47726	0.98900
2075.42036	0.98878
2073.36345	0.98913
2071.30654	0.99021
2069.24963	0.99062
2067.19272	0.98929
2065.13582	0.98830
2063.07891	0.98907
2061.02200	0.98979
2058.96509	0.98962
2056.90818	0.98903
2054.85127	0.98847
2052.79437	0.98889
2050.73746	0.98973
2048.68055	0.99001
2046.62364	0.99027
2044.56673	0.99105
2042.50983	0.99231
2040.45292	0.99297
2038.39601	0.99233
2036.33910	0.99063
2034.28219	0.98872
2032.22528	0.98778
2030.16838	0.98788
2028.11147	0.98758
2026.05456	0.98658
2023.99765	0.98782
2021.94074	0.99008
2019.88384	0.98923
2017.82693	0.98793
2015.77002	0.98977
2013.71311	0.99147
2011.65620	0.99026
2009.59929	0.98843
2007.54239	0.98862
2005.48548	0.99088
2003.42857	0.99207
2001.37166	0.99068
1999.31475	0.98948
1997.25785	0.98988
1995.20094	0.99102
1993.14403	0.99196
1991.08712	0.99131
1989.03021	0.98989
1986.97330	0.98976
1984.91640	0.98957
1982.85949	0.98868
1980.80258	0.98842
1978.74567	0.98778
1976.68876	0.98712
1974.63186	0.98794
1972.57495	0.98917
1970.51804	0.99037
1968.46113	0.99039
1966.40422	0.98854
1964.34731	0.98753
1962.29041	0.98782
1960.23350	0.98738
1958.17659	0.98678
1956.11968	0.98812
1954.06277	0.99052
1952.00587	0.99223
1949.94896	0.99208
1947.89205	0.98954
1945.83514	0.98683
1943.77823	0.98629
1941.72132	0.98740
1939.66442	0.98878
1937.60751	0.98963
1935.55060	0.98928
1933.49369	0.98843
1931.43678	0.98836
1929.37988	0.98897
1927.32297	0.98948
1925.26606	0.98998
1923.20915	0.99013
1921.15224	0.98946
1919.09533	0.98904
1917.03843	0.98980
1914.98152	0.99027
1912.92461	0.98935
1910.86770	0.98900
1908.81079	0.98953
1906.75389	0.98926
1904.69698	0.98855
1902.64007	0.98852
1900.58316	0.98900
1898.52625	0.98924
1896.46934	0.98867
1894.41244	0.98800
1892.35553	0.98857
1890.29862	0.98999
1888.24171	0.99089
1886.18480	0.99032
1884.12790	0.98917
1882.07099	0.98883
1880.01408	0.98918
1877.95717	0.98936
1875.90026	0.98955
1873.84335	0.98994
1871.78645	0.98999
1869.72954	0.98986
1867.67263	0.99013
1865.61572	0.99046
1863.55881	0.99013
1861.50191	0.98941
1859.44500	0.98876
1857.38809	0.98848
1855.33118	0.98878
1853.27427	0.98912
1851.21736	0.98904
1849.16046	0.98923
1847.10355	0.98947
1845.04664	0.98897
1842.98973	0.98880
1840.93282	0.98927
1838.87592	0.98952
1836.81901	0.98938
1834.76210	0.98894
1832.70519	0.98835
1830.64828	0.98809
1828.59137	0.98798
1826.53447	0.98784
1824.47756	0.98783
1822.42065	0.98804
1820.36374	0.98812
1818.30683	0.98766
1816.24993	0.98714
1814.19302	0.98655
1812.13611	0.98586
1810.07920	0.98539
1808.02229	0.98533
1805.96538	0.98522
1803.90848	0.98465
1801.85157	0.98362
1799.79466	0.98255
1797.73775	0.98183
1795.68084	0.98129
1793.62394	0.98059
1791.56703	0.97917
1789.51012	0.97757
1787.45321	0.97606
1785.39630	0.97430
1783.33939	0.97207
1781.28249	0.96908
1779.22558	0.96478
1777.16867	0.95955
1775.11176	0.95339
1773.05485	0.94439
1770.99795	0.93151
1768.94104	0.91635
1766.88413	0.89824
1764.82722	0.87839
1762.77031	0.85584
1760.71340	0.83036
1758.65650	0.80845
1756.59959	0.78999
1754.54268	0.77597
1752.48577	0.76615
1750.42886	0.75683
1748.37196	0.74847
1746.31505	0.74225
1744.25814	0.73744
1742.20123	0.73458
1740.14432	0.73486
1738.08741	0.73896
1736.03051	0.74704
1733.97360	0.76182
1731.91669	0.78098
1729.85978	0.80026
1727.80287	0.82102
1725.74597	0.84139
1723.68906	0.86067
1721.63215	0.87698
1719.57524	0.89031
1717.51833	0.90387
1715.46142	0.91643
1713.40452	0.92536
1711.34761	0.93210
1709.29070	0.93759
1707.23379	0.94236
1705.17688	0.94640
1703.11998	0.94942
1701.06307	0.95244
1699.00616	0.95589
1696.94925	0.95844
1694.89234	0.96065
1692.83543	0.96267
1690.77853	0.96406
1688.72162	0.96528
1686.66471	0.96648
1684.60780	0.96752
1682.55089	0.96852
1680.49399	0.96982
1678.43708	0.97092
1676.38017	0.97127
1674.32326	0.97127
1672.26635	0.97186
1670.20944	0.97309
1668.15254	0.97390
1666.09563	0.97389
1664.03872	0.97374
1661.98181	0.97370
1659.92490	0.97362
1657.86800	0.97353
1655.81109	0.97358
1653.75418	0.97336
1651.69727	0.97263
1649.64036	0.97274
1647.58345	0.97307
1645.52655	0.97285
1643.46964	0.97272
1641.41273	0.97284
1639.35582	0.97295
1637.29891	0.97305
1635.24201	0.97353
1633.18510	0.97416
1631.12819	0.97451
1629.07128	0.97460
1627.01437	0.97474
1624.95746	0.97531
1622.90056	0.97606
1620.84365	0.97652
1618.78674	0.97693
1616.72983	0.97753
1614.67292	0.97812
1612.61602	0.97864
1610.55911	0.97909
1608.50220	0.97946
1606.44529	0.97986
1604.38838	0.98033
1602.33147	0.98057
1600.27457	0.98067
1598.21766	0.98087
1596.16075	0.98108
1594.10384	0.98135
1592.04693	0.98163
1589.99003	0.98167
1587.93312	0.98161
1585.87621	0.98182
1583.81930	0.98217
1581.76239	0.98244
1579.70548	0.98265
1577.64858	0.98285
1575.59167	0.98301
1573.53476	0.98297
1571.47785	0.98280
1569.42094	0.98267
1567.36404	0.98268
1565.30713	0.98260
1563.25022	0.98248
1561.19331	0.98254
1559.13640	0.98248
1557.07949	0.98211
1555.02259	0.98210
1552.96568	0.98236
1550.90877	0.98272
1548.85186	0.98288
1546.79495	0.98294
1544.73805	0.98321
1542.68114	0.98326
1540.62423	0.98280
1538.56732	0.98246
1536.51041	0.98253
1534.45350	0.98295
1532.39660	0.98335
1530.33969	0.98319
1528.28278	0.98299
1526.22587	0.98307
1524.16896	0.98326
1522.11206	0.98325
1520.05515	0.98306
1517.99824	0.98302
1515.94133	0.98309
1513.88442	0.98302
1511.82751	0.98306
1509.77061	0.98336
1507.71370	0.98313
1505.65679	0.98240
1503.59988	0.98235
1501.54297	0.98249
1499.48607	0.98256
1497.42916	0.98255
1495.37225	0.98264
1493.31534	0.98303
1491.25843	0.98343
1489.20152	0.98343
1487.14462	0.98296
1485.08771	0.98247
1483.03080	0.98214
1480.97389	0.98179
1478.91698	0.98138
1476.86008	0.98081
1474.80317	0.97998
1472.74626	0.97886
1470.68935	0.97738
1468.63244	0.97581
1466.57553	0.97395
1464.51863	0.97160
1462.46172	0.96960
1460.40481	0.96840
1458.34790	0.96709
1456.29099	0.96498
1454.23409	0.96335
1452.17718	0.96252
1450.12027	0.96173
1448.06336	0.96042
1446.00645	0.95869
1443.94954	0.95677
1441.89264	0.95476
1439.83573	0.95304
1437.77882	0.95135
1435.72191	0.94955
1433.66500	0.94868
1431.60810	0.94863
1429.55119	0.94915
1427.49428	0.95035
1425.43737	0.95188
1423.38046	0.95346
1421.32355	0.95493
1419.26665	0.95639
1417.20974	0.95817
1415.15283	0.96007
1413.09592	0.96161
1411.03901	0.96260
1408.98211	0.96308
1406.92520	0.96328
1404.86829	0.96349
1402.81138	0.96365
1400.75447	0.96321
1398.69756	0.96162
1396.64066	0.95876
1394.58375	0.95432
1392.52684	0.94844
1390.46993	0.94168
1388.41302	0.93308
1386.35612	0.92241
1384.29921	0.91191
1382.24230	0.90205
1380.18539	0.89213
1378.12848	0.88253
1376.07157	0.87363
1374.01467	0.86515
1371.95776	0.85796
1369.90085	0.85330
1367.84394	0.85194
1365.78703	0.85498
1363.73013	0.86360
1361.67322	0.87857
1359.61631	0.89673
1357.55940	0.91473
1355.50249	0.93071
1353.44558	0.94289
1351.38868	0.95118
1349.33177	0.95657
1347.27486	0.95989
1345.21795	0.96190
1343.16104	0.96316
1341.10414	0.96409
1339.04723	0.96480
1336.99032	0.96510
1334.93341	0.96484
1332.87650	0.96412
1330.81959	0.96330
1328.76269	0.96244
1326.70578	0.96139
1324.64887	0.96045
1322.59196	0.96001
1320.53505	0.96001
1318.47815	0.96031
1316.42124	0.96092
1314.36433	0.96160
1312.30742	0.96232
1310.25051	0.96321
1308.19360	0.96393
1306.13670	0.96413
1304.07979	0.96380
1302.02288	0.96294
1299.96597	0.96173
1297.90906	0.96063
1295.85216	0.95956
1293.79525	0.95801
1291.73834	0.95610
1289.68143	0.95409
1287.62452	0.95174
1285.56761	0.94890
1283.51071	0.94560
1281.45380	0.94160
1279.39689	0.93691
1277.33998	0.93173
1275.28307	0.92585
1273.22617	0.91886
1271.16926	0.91065
1269.11235	0.90141
1267.05544	0.89164
1264.99853	0.88158
1262.94162	0.87072
1260.88472	0.85866
1258.82781	0.84547
1256.77090	0.83104
1254.71399	0.81531
1252.65708	0.79888
1250.60018	0.78217
1248.54327	0.76496
1246.48636	0.74718
1244.42945	0.72898
1242.37254	0.71072
1240.31563	0.69299
1238.25873	0.67612
1236.20182	0.66052
1234.14491	0.64704
1232.08800	0.63652
1230.03109	0.62939
1227.97419	0.62565
1225.91728	0.62483
1223.86037	0.62586
1221.80346	0.62749
1219.74655	0.62906
1217.68964	0.63104
1215.63274	0.63467
1213.57583	0.64163
1211.51892	0.65376
1209.46201	0.67226
1207.40510	0.69722
1205.34820	0.72743
1203.29129	0.76035
1201.23438	0.79276
1199.17747	0.82174
1197.12056	0.84568
1195.06365	0.86417
1193.00675	0.87790
1190.94984	0.88798
1188.89293	0.89489
1186.83602	0.89896
1184.77911	0.90074
1182.72221	0.90058
1180.66530	0.89874
1178.60839	0.89576
1176.55148	0.89216
1174.49457	0.88838
1172.43766	0.88487
1170.38076	0.88204
1168.32385	0.88011
1166.26694	0.87922
1164.21003	0.87945
1162.15312	0.88061
1160.09622	0.88260
1158.03931	0.88540
1155.98240	0.88888
1153.92549	0.89284
1151.86858	0.89674
1149.81167	0.90007
1147.75477	0.90275
1145.69786	0.90469
1143.64095	0.90534
1141.58404	0.90453
1139.52713	0.90268
1137.47023	0.89998
1135.41332	0.89650
1133.35641	0.89232
1131.29950	0.88742
1129.24259	0.88222
1127.18568	0.87773
1125.12878	0.87485
1123.07187	0.87371
1121.01496	0.87397
1118.95805	0.87481
1116.90114	0.87566
1114.84424	0.87651
1112.78733	0.87706
1110.73042	0.87708
1108.67351	0.87663
1106.61660	0.87543
1104.55969	0.87321
1102.50279	0.86975
1100.44588	0.86458
1098.38897	0.85758
1096.33206	0.84896
1094.27515	0.83913
1092.21825	0.82852
1090.16134	0.81791
1088.10443	0.80818
1086.04752	0.79959
1083.99061	0.79194
1081.93370	0.78485
1079.87680	0.77786
1077.81989	0.77080
1075.76298	0.76426
1073.70607	0.75838
1071.64916	0.75248
1069.59226	0.74648
1067.53535	0.74068
1065.47844	0.73493
1063.42153	0.72831
1061.36462	0.72007
1059.30771	0.71015
1057.25081	0.69890
1055.19390	0.68729
1053.13699	0.67635
1051.08008	0.66631
1049.02317	0.65741
1046.96627	0.65033
1044.90936	0.64533
1042.85245	0.64205
1040.79554	0.63974
1038.73863	0.63751
1036.68172	0.63609
1034.62482	0.63743
1032.56791	0.64291
1030.51100	0.65310
1028.45409	0.66762
1026.39718	0.68543
1024.34028	0.70534
1022.28337	0.72607
1020.22646	0.74631
1018.16955	0.76498
1016.11264	0.78181
1014.05573	0.79690
1011.99883	0.81021
1009.94192	0.82218
1007.88501	0.83331
1005.82810	0.84323
1003.77119	0.85163
1001.71429	0.85894
999.65738	0.86540
997.60047	0.87080
995.54356	0.87513
993.48665	0.87861
991.42974	0.88128
989.37284	0.88319
987.31593	0.88506
985.25902	0.88779
983.20211	0.89119
981.14520	0.89486
979.08830	0.89873
977.03139	0.90262
974.97448	0.90682
972.91757	0.91165
970.86066	0.91657
968.80375	0.92078
966.74685	0.92391
964.68994	0.92605
962.63303	0.92717
960.57612	0.92739
958.51921	0.92728
956.46231	0.92697
954.40540	0.92683
952.34849	0.92742
950.29158	0.92850
948.23467	0.92978
946.17776	0.93126
944.12086	0.93271
942.06395	0.93411
940.00704	0.93536
937.95013	0.93592
935.89322	0.93558
933.83632	0.93483
931.77941	0.93384
929.72250	0.93251
927.66559	0.93090
925.60868	0.92895
923.55177	0.92635
921.49487	0.92351
919.43796	0.92119
917.38105	0.91909
915.32414	0.91659
913.26723	0.91366
911.21033	0.91022
909.15342	0.90611
907.09651	0.90193
905.03960	0.89865
902.98269	0.89677
900.92578	0.89632
898.86888	0.89778
896.81197	0.90196
894.75506	0.90814
892.69815	0.91457
890.64124	0.92031
888.58434	0.92484
886.52743	0.92764
884.47052	0.92926
882.41361	0.93042
880.35670	0.93091
878.29979	0.93063
876.24289	0.93084
874.18598	0.93312
872.12907	0.93708
870.07216	0.94127
868.01525	0.94537
865.95835	0.94954
863.90144	0.95301
861.84453	0.95523
859.78762	0.95668
857.73071	0.95801
855.67380	0.95930
853.61690	0.96003
851.55999	0.95965
849.50308	0.95873
847.44617	0.95820
845.38926	0.95770
843.33236	0.95671
841.27545	0.95574
839.21854	0.95540
837.16163	0.95596
835.10472	0.95708
833.04781	0.95815
830.99091	0.95957
828.93400	0.96152
826.87709	0.96320
824.82018	0.96457
822.76327	0.96567
820.70637	0.96603
818.64946	0.96623
816.59255	0.96740
814.53564	0.96878
812.47873	0.96930
810.42182	0.96965
808.36492	0.97024
806.30801	0.97094
804.25110	0.97154
802.19419	0.97185
800.13728	0.97171
798.08038	0.97139
796.02347	0.97172
793.96656	0.97231
791.90965	0.97244
789.85274	0.97271
787.79583	0.97323
785.73893	0.97309
783.68202	0.97212
781.62511	0.97130
779.56820	0.97141
777.51129	0.97212
775.45439	0.97245
773.39748	0.97235
771.34057	0.97255
769.28366	0.97310
767.22675	0.97365
765.16984	0.97386
763.11294	0.97375
761.05603	0.97380
758.99912	0.97399
756.94221	0.97404
754.88530	0.97396
752.82839	0.97393
750.77149	0.97394
748.71458	0.97376
746.65767	0.97339
744.60076	0.97326
742.54385	0.97372
740.48695	0.97442
738.43004	0.97459
736.37313	0.97388
734.31622	0.97264
732.25931	0.97160
730.20240	0.97117
728.14550	0.97070
726.08859	0.96978
724.03168	0.96865
721.97477	0.96730
719.91786	0.96639
717.86096	0.96644
715.80405	0.96662
713.74714	0.96640
711.69023	0.96631
709.63332	0.96612
707.57641	0.96514
705.51951	0.96387
703.46260	0.96297
701.40569	0.96212
699.34878	0.96137
697.29187	0.96101
695.23497	0.96027
693.17806	0.95910
691.12115	0.95828
689.06424	0.95759
687.00733	0.95707
684.95042	0.95750
682.89352	0.95863
680.83661	0.95900
678.77970	0.95886
676.72279	0.95933
674.66588	0.95965
672.60898	0.95992
670.55207	0.96076
668.49516	0.96059
666.43825	0.95885
664.38134	0.95802
662.32443	0.95779
660.26753	0.95691
658.21062	0.95557
656.15371	0.95503
654.09680	0.95467
652.03989	0.95308
649.98299	0.95058
647.92608	0.94781
645.86917	0.94468
643.81226	0.94243
641.75535	0.94285
639.69844	0.94447
637.64154	0.94501
635.58463	0.94415
633.52772	0.94194
631.47081	0.93908
629.41390	0.93710
627.35700	0.93598
625.30009	0.93450
623.24318	0.93240
621.18627	0.93025
619.12936	0.92818
617.07245	0.92507
615.01555	0.92055
612.95864	0.91541
610.90173	0.90911
608.84482	0.90117
606.78791	0.89278
604.73101	0.88607
602.67410	0.88370
600.61719	0.88669
598.56028	0.89340
596.50337	0.90142
594.44646	0.90870
592.38956	0.91462
590.33265	0.92067
588.27574	0.92766
586.21883	0.93411
584.16192	0.93945
582.10502	0.94355
580.04811	0.94588
577.99120	0.94735
575.93429	0.94859
573.87738	0.94969
571.82047	0.94971
569.76357	0.94740
567.70666	0.94456
565.64975	0.94264
563.59284	0.94089
561.53593	0.93923
559.47903	0.93802
557.42212	0.93773
555.36521	0.93849
553.30830	0.93960
551.25139	0.94038
549.19448	0.94114
547.13758	0.94309
545.08067	0.94500
543.02376	0.94527
540.96685	0.94638
538.90994	0.94896
536.85304	0.95047
534.79613	0.95045
532.73922	0.94928
530.68231	0.94768
528.62540	0.94787
526.56849	0.94966
524.51159	0.95001
522.45468	0.94868
520.39777	0.94741
518.34086	0.94643
516.28395	0.94573
514.22705	0.94533
512.17014	0.94515
510.11323	0.94508
508.05632	0.94499
505.99941	0.94401
503.94250	0.94181
501.88560	0.93952
499.82869	0.93786
497.77178	0.93668
495.71487	0.93577
493.65796	0.93555
491.60106	0.93527
489.54415	0.93349
487.48724	0.93125
485.43033	0.92987
483.37342	0.92993
481.31651	0.93036
479.25961	0.92912
477.20270	0.92750
475.14579	0.92753
473.08888	0.92793
471.03197	0.92742
468.97507	0.92759
466.91816	0.92981
464.86125	0.93160
462.80434	0.93074
460.74743	0.92799
458.69052	0.92371
456.63362	0.92008
454.57671	0.91921
452.51980	0.91933
450.46289	0.91928
448.40598	0.91806
446.34908	0.91551
444.29217	0.91492
442.23526	0.91823
440.17835	0.92059
438.12144	0.91926
436.06453	0.91930
434.00763	0.92373
431.95072	0.92759
429.89381	0.92842
427.83690	0.92901
425.77999	0.92874
423.72309	0.92642
421.66618	0.92619
419.60927	0.93076
417.55236	0.93474
415.49545	0.93434
413.43854	0.93324
411.38164	0.93395
409.32473	0.93415
407.26782	0.92883
405.21091	0.92318
403.15400	0.92204
401.09710	0.91894
399.04019	0.91377
