3996.57260	0.98751
3994.51569	0.98770
3992.45878	0.98733
3990.40188	0.98689
3988.34497	0.98650
3986.28806	0.98615
3984.23115	0.98646
3982.17424	0.98704
3980.11733	0.98697
3978.06043	0.98663
3976.00352	0.98651
3973.94661	0.98656
3971.88970	0.98692
3969.83279	0.98735
3967.77589	0.98720
3965.71898	0.98638
3963.66207	0.98574
3961.60516	0.98601
3959.54825	0.98646
3957.49134	0.98622
3955.43444	0.98582
3953.37753	0.98609
3951.32062	0.98684
3949.26371	0.98718
3947.20680	0.98673
3945.14990	0.98642
3943.09299	0.98643
3941.03608	0.98646
3938.97917	0.98701
3936.92226	0.98780
3934.86535	0.98804
3932.80845	0.98725
3930.75154	0.98587
3928.69463	0.98531
3926.63772	0.98573
3924.58081	0.98616
3922.52391	0.98618
3920.46700	0.98598
3918.41009	0.98554
3916.35318	0.98542
3914.29627	0.98592
3912.23936	0.98647
3910.18246	0.98714
3908.12555	0.98801
3906.06864	0.98839
3904.01173	0.98769
3901.95482	0.98677
3899.89792	0.98678
3897.84101	0.98711
3895.78410	0.98713
3893.72719	0.98702
3891.67028	0.98672
3889.61337	0.98648
3887.55647	0.98679
3885.49956	0.98733
3883.44265	0.98804
3881.38574	0.98866
3879.32883	0.98820
3877.27193	0.98748
3875.21502	0.98738
3873.15811	0.98735
3871.10120	0.98720
3869.04429	0.98723
3866.98738	0.98756
3864.93048	0.98811
3862.87357	0.98849
3860.81666	0.98837
3858.75975	0.98787
3856.70284	0.98760
3854.64594	0.98786
3852.58903	0.98762
3850.53212	0.98716
3848.47521	0.98723
3846.41830	0.98741
3844.36139	0.98742
3842.30449	0.98717
3840.24758	0.98687
3838.19067	0.98691
3836.13376	0.98723
3834.07685	0.98735
3832.01995	0.98691
3829.96304	0.98669
3827.90613	0.98757
3825.84922	0.98824
3823.79231	0.98748
3821.73540	0.98614
3819.67850	0.98572
3817.62159	0.98614
3815.56468	0.98629
3813.50777	0.98630
3811.45086	0.98654
3809.39396	0.98683
3807.33705	0.98701
3805.28014	0.98728
3803.22323	0.98812
3801.16632	0.98884
3799.10941	0.98862
3797.05251	0.98820
3794.99560	0.98802
3792.93869	0.98759
3790.88178	0.98670
3788.82487	0.98627
3786.76796	0.98677
3784.71106	0.98719
3782.65415	0.98723
3780.59724	0.98729
3778.54033	0.98706
3776.48342	0.98671
3774.42652	0.98691
3772.36961	0.98746
3770.31270	0.98746
3768.25579	0.98663
3766.19888	0.98591
3764.14197	0.98607
3762.08507	0.98654
3760.02816	0.98660
3757.97125	0.98660
3755.91434	0.98687
3753.85743	0.98735
3751.80053	0.98803
3749.74362	0.98824
3747.68671	0.98784
3745.62980	0.98758
3743.57289	0.98724
3741.51598	0.98673
3739.45908	0.98618
3737.40217	0.98538
3735.34526	0.98518
3733.28835	0.98648
3731.23144	0.98769
3729.17454	0.98777
3727.11763	0.98718
3725.06072	0.98681
3723.00381	0.98721
3720.94690	0.98766
3718.88999	0.98744
3716.83309	0.98688
3714.77618	0.98636
3712.71927	0.98614
3710.66236	0.98648
3708.60545	0.98678
3706.54855	0.98680
3704.49164	0.98688
3702.43473	0.98716
3700.37782	0.98752
3698.32091	0.98734
3696.26400	0.98675
3694.20710	0.98670
3692.15019	0.98716
3690.09328	0.98772
3688.03637	0.98806
3685.97946	0.98792
3683.92256	0.98789
3681.86565	0.98790
3679.80874	0.98733
3677.75183	0.98679
3675.69492	0.98689
3673.63801	0.98681
3671.58111	0.98651
3669.52420	0.98610
3667.46729	0.98619
3665.41038	0.98734
3663.35347	0.98829
3661.29657	0.98780
3659.23966	0.98680
3657.18275	0.98603
3655.12584	0.98546
3653.06893	0.98566
3651.01202	0.98594
3648.95512	0.98546
3646.89821	0.98545
3644.84130	0.98582
3642.78439	0.98595
3640.72748	0.98635
3638.67058	0.98696
3636.61367	0.98727
3634.55676	0.98727
3632.49985	0.98679
3630.44294	0.98579
3628.38603	0.98537
3626.32913	0.98603
3624.27222	0.98657
3622.21531	0.98675
3620.15840	0.98663
3618.10149	0.98627
3616.04459	0.98603
3613.98768	0.98607
3611.93077	0.98656
3609.87386	0.98716
3607.81695	0.98696
3605.76004	0.98584
3603.70314	0.98484
3601.64623	0.98463
3599.58932	0.98470
3597.53241	0.98445
3595.47550	0.98464
3593.41860	0.98556
3591.36169	0.98591
3589.30478	0.98592
3587.24787	0.98625
3585.19096	0.98576
3583.13405	0.98491
3581.07715	0.98493
3579.02024	0.98544
3576.96333	0.98571
3574.90642	0.98585
3572.84951	0.98591
3570.79261	0.98535
3568.73570	0.98410
3566.67879	0.98304
3564.62188	0.98279
3562.56497	0.98293
3560.50806	0.98315
3558.45116	0.98309
3556.39425	0.98270
3554.33734	0.98244
3552.28043	0.98243
3550.22352	0.98224
3548.16662	0.98190
3546.10971	0.98179
3544.05280	0.98180
3541.99589	0.98156
3539.93898	0.98124
3537.88207	0.98105
3535.82517	0.98074
3533.76826	0.98029
3531.71135	0.98027
3529.65444	0.98066
3527.59753	0.98055
3525.54063	0.97996
3523.48372	0.97963
3521.42681	0.97958
3519.36990	0.97930
3517.31299	0.97845
3515.25608	0.97763
3513.19918	0.97762
3511.14227	0.97804
3509.08536	0.97808
3507.02845	0.97767
3504.97154	0.97732
3502.91464	0.97770
3500.85773	0.97854
3498.80082	0.97862
3496.74391	0.97796
3494.68700	0.97735
3492.63009	0.97695
3490.57319	0.97655
3488.51628	0.97622
3486.45937	0.97631
3484.40246	0.97651
3482.34555	0.97657
3480.28865	0.97700
3478.23174	0.97779
3476.17483	0.97837
3474.11792	0.97867
3472.06101	0.97855
3470.00410	0.97779
3467.94720	0.97711
3465.89029	0.97715
3463.83338	0.97707
3461.77647	0.97657
3459.71956	0.97640
3457.66266	0.97684
3455.60575	0.97762
3453.54884	0.97801
3451.49193	0.97785
3449.43502	0.97779
3447.37811	0.97829
3445.32121	0.97896
3443.26430	0.97911
3441.20739	0.97871
3439.15048	0.97824
3437.09357	0.97776
3435.03667	0.97733
3432.97976	0.97770
3430.92285	0.97868
3428.86594	0.97938
3426.80903	0.97997
3424.75212	0.98035
3422.69522	0.97991
3420.63831	0.97891
3418.58140	0.97884
3416.52449	0.97949
3414.46758	0.97933
3412.41068	0.97905
3410.35377	0.97916
3408.29686	0.97908
3406.23995	0.97957
3404.18304	0.98041
3402.12613	0.98075
3400.06923	0.98098
3398.01232	0.98096
3395.95541	0.98041
3393.89850	0.98037
3391.84159	0.98098
3389.78469	0.98094
3387.72778	0.98059
3385.67087	0.98074
3383.61396	0.98096
3381.55705	0.98126
3379.50014	0.98159
3377.44324	0.98153
3375.38633	0.98133
3373.32942	0.98080
3371.27251	0.98000
3369.21560	0.98027
3367.15870	0.98132
3365.10179	0.98166
3363.04488	0.98157
3360.98797	0.98176
3358.93106	0.98205
3356.87415	0.98204
3354.81725	0.98166
3352.76034	0.98146
3350.70343	0.98171
3348.64652	0.98196
3346.58961	0.98206
3344.53271	0.98253
3342.47580	0.98322
3340.41889	0.98317
3338.36198	0.98245
3336.30507	0.98207
3334.24816	0.98234
3332.19126	0.98247
3330.13435	0.98204
3328.07744	0.98207
3326.02053	0.98313
3323.96362	0.98412
3321.90672	0.98423
3319.84981	0.98419
3317.79290	0.98449
3315.73599	0.98427
3313.67908	0.98326
3311.62217	0.98269
3309.56527	0.98294
3307.50836	0.98305
3305.45145	0.98274
3303.39454	0.98234
3301.33763	0.98229
3299.28073	0.98269
3297.22382	0.98322
3295.16691	0.98375
3293.11000	0.98413
3291.05309	0.98437
3288.99618	0.98428
3286.93928	0.98394
3284.88237	0.98416
3282.82546	0.98473
3280.76855	0.98465
3278.71164	0.98404
3276.65474	0.98380
3274.59783	0.98428
3272.54092	0.98480
3270.48401	0.98487
3268.42710	0.98476
3266.37019	0.98435
3264.31329	0.98410
3262.25638	0.98461
3260.19947	0.98510
3258.14256	0.98506
3256.08565	0.98491
3254.02875	0.98481
3251.97184	0.98488
3249.91493	0.98507
3247.85802	0.98491
3245.80111	0.98452
3243.74420	0.98438
3241.68730	0.98431
3239.63039	0.98426
3237.57348	0.98437
3235.51657	0.98448
3233.45966	0.98464
3231.40276	0.98516
3229.34585	0.98560
3227.28894	0.98547
3225.23203	0.98515
3223.17512	0.98497
3221.11821	0.98466
3219.06131	0.98430
3217.00440	0.98431
3214.94749	0.98462
3212.89058	0.98509
3210.83367	0.98516
3208.77677	0.98462
3206.71986	0.98425
3204.66295	0.98445
3202.60604	0.98504
3200.54913	0.98538
3198.49222	0.98512
3196.43532	0.98504
3194.37841	0.98522
3192.32150	0.98516
3190.26459	0.98521
3188.20768	0.98520
3186.15078	0.98494
3184.09387	0.98513
3182.03696	0.98577
3179.98005	0.98624
3177.92314	0.98588
3175.86623	0.98486
3173.80933	0.98417
3171.75242	0.98430
3169.69551	0.98494
3167.63860	0.98542
3165.58169	0.98539
3163.52479	0.98520
3161.46788	0.98525
3159.41097	0.98524
3157.35406	0.98481
3155.29715	0.98433
3153.24024	0.98421
3151.18334	0.98450
3149.12643	0.98498
3147.06952	0.98526
3145.01261	0.98542
3142.95570	0.98585
3140.89880	0.98618
3138.84189	0.98601
3136.78498	0.98577
3134.72807	0.98558
3132.67116	0.98530
3130.61425	0.98527
3128.55735	0.98551
3126.50044	0.98567
3124.44353	0.98593
3122.38662	0.98606
3120.32971	0.98571
3118.27281	0.98556
3116.21590	0.98575
3114.15899	0.98558
3112.10208	0.98519
3110.04517	0.98520
3107.98826	0.98543
3105.93136	0.98520
3103.87445	0.98463
3101.81754	0.98449
3099.76063	0.98533
3097.70372	0.98657
3095.64682	0.98693
3093.58991	0.98623
3091.53300	0.98537
3089.47609	0.98499
3087.41918	0.98519
3085.36227	0.98542
3083.30537	0.98556
3081.24846	0.98594
3079.19155	0.98633
3077.13464	0.98622
3075.07773	0.98562
3073.02083	0.98513
3070.96392	0.98505
3068.90701	0.98516
3066.85010	0.98505
3064.79319	0.98479
3062.73628	0.98481
3060.67938	0.98489
3058.62247	0.98489
3056.56556	0.98502
3054.50865	0.98508
3052.45174	0.98505
3050.39484	0.98509
3048.33793	0.98494
3046.28102	0.98472
3044.22411	0.98475
3042.16720	0.98487
3040.11029	0.98468
3038.05339	0.98428
3035.99648	0.98414
3033.93957	0.98428
3031.88266	0.98439
3029.82575	0.98456
3027.76885	0.98478
3025.71194	0.98462
3023.65503	0.98414
3021.59812	0.98382
3019.54121	0.98379
3017.48430	0.98401
3015.42740	0.98437
3013.37049	0.98461
3011.31358	0.98457
3009.25667	0.98436
3007.19976	0.98422
3005.14286	0.98418
3003.08595	0.98408
3001.02904	0.98393
2998.97213	0.98378
2996.91522	0.98366
2994.85831	0.98347
2992.80141	0.98353
2990.74450	0.98388
2988.68759	0.98381
2986.63068	0.98340
2984.57377	0.98320
2982.51687	0.98336
2980.45996	0.98365
2978.40305	0.98376
2976.34614	0.98333
2974.28923	0.98251
2972.23232	0.98203
2970.17542	0.98198
2968.11851	0.98208
2966.06160	0.98209
2964.00469	0.98148
2961.94778	0.98067
2959.89088	0.98075
2957.83397	0.98145
2955.77706	0.98159
2953.72015	0.98112
2951.66324	0.98070
2949.60633	0.98038
2947.54943	0.98006
2945.49252	0.97978
2943.43561	0.97965
2941.37870	0.97957
2939.32179	0.97941
2937.26489	0.97945
2935.20798	0.97992
2933.15107	0.98032
2931.09416	0.98019
2929.03725	0.98015
2926.98034	0.98067
2924.92344	0.98091
2922.86653	0.98059
2920.80962	0.98082
2918.75271	0.98147
2916.69580	0.98169
2914.63890	0.98166
2912.58199	0.98166
2910.52508	0.98165
2908.46817	0.98147
2906.41126	0.98095
2904.35435	0.98041
2902.29745	0.98029
2900.24054	0.98036
2898.18363	0.98024
2896.12672	0.98014
2894.06981	0.98032
2892.01291	0.98064
2889.95600	0.98072
2887.89909	0.98054
2885.84218	0.98041
2883.78527	0.98027
2881.72836	0.98023
2879.67146	0.98049
2877.61455	0.98086
2875.55764	0.98109
2873.50073	0.98101
2871.44382	0.98075
2869.38692	0.98084
2867.33001	0.98138
2865.27310	0.98165
2863.21619	0.98141
2861.15928	0.98141
2859.10237	0.98190
2857.04547	0.98232
2854.98856	0.98223
2852.93165	0.98205
2850.87474	0.98220
2848.81783	0.98256
2846.76093	0.98307
2844.70402	0.98341
2842.64711	0.98345
2840.59020	0.98347
2838.53329	0.98361
2836.47638	0.98373
2834.41948	0.98387
2832.36257	0.98424
2830.30566	0.98438
2828.24875	0.98398
2826.19184	0.98355
2824.13494	0.98352
2822.07803	0.98364
2820.02112	0.98348
2817.96421	0.98340
2815.90730	0.98378
2813.85039	0.98412
2811.79349	0.98420
2809.73658	0.98432
2807.67967	0.98444
2805.62276	0.98439
2803.56585	0.98434
2801.50895	0.98430
2799.45204	0.98434
2797.39513	0.98462
2795.33822	0.98477
2793.28131	0.98465
2791.22440	0.98460
2789.16750	0.98439
2787.11059	0.98413
2785.05368	0.98437
2782.99677	0.98473
2780.93986	0.98493
2778.88296	0.98518
2776.82605	0.98526
2774.76914	0.98517
2772.71223	0.98518
2770.65532	0.98536
2768.59841	0.98536
2766.54151	0.98495
2764.48460	0.98460
2762.42769	0.98443
2760.37078	0.98415
2758.31387	0.98402
2756.25697	0.98439
2754.20006	0.98500
2752.14315	0.98517
2750.08624	0.98478
2748.02933	0.98452
2745.97242	0.98477
2743.91552	0.98510
2741.85861	0.98516
2739.80170	0.98515
2737.74479	0.98489
2735.68788	0.98439
2733.63098	0.98433
2731.57407	0.98467
2729.51716	0.98500
2727.46025	0.98503
2725.40334	0.98479
2723.34643	0.98472
2721.28953	0.98490
2719.23262	0.98512
2717.17571	0.98519
2715.11880	0.98513
2713.06189	0.98507
2711.00499	0.98508
2708.94808	0.98506
2706.89117	0.98519
2704.83426	0.98545
2702.77735	0.98544
2700.72044	0.98524
2698.66354	0.98516
2696.60663	0.98510
2694.54972	0.98513
2692.49281	0.98526
2690.43590	0.98522
2688.37900	0.98521
2686.32209	0.98528
2684.26518	0.98511
2682.20827	0.98493
2680.15136	0.98502
2678.09445	0.98529
2676.03755	0.98551
2673.98064	0.98541
2671.92373	0.98513
2669.86682	0.98496
2667.80991	0.98479
2665.75301	0.98463
2663.69610	0.98466
2661.63919	0.98468
2659.58228	0.98476
2657.52537	0.98492
2655.46846	0.98485
2653.41156	0.98473
2651.35465	0.98469
2649.29774	0.98462
2647.24083	0.98462
2645.18392	0.98480
2643.12702	0.98498
2641.07011	0.98498
2639.01320	0.98483
2636.95629	0.98449
2634.89938	0.98410
2632.84247	0.98398
2630.78557	0.98418
2628.72866	0.98436
2626.67175	0.98434
2624.61484	0.98442
2622.55793	0.98505
2620.50103	0.98600
2618.44412	0.98630
2616.38721	0.98555
2614.33030	0.98470
2612.27339	0.98478
2610.21648	0.98527
2608.15958	0.98531
2606.10267	0.98513
2604.04576	0.98554
2601.98885	0.98616
2599.93194	0.98616
2597.87504	0.98586
2595.81813	0.98552
2593.76122	0.98533
2591.70431	0.98556
2589.64740	0.98573
2587.59049	0.98568
2585.53359	0.98596
2583.47668	0.98653
2581.41977	0.98673
2579.36286	0.98636
2577.30595	0.98614
2575.24905	0.98640
2573.19214	0.98656
2571.13523	0.98645
2569.07832	0.98628
2567.02141	0.98619
2564.96450	0.98609
2562.90760	0.98613
2560.85069	0.98648
2558.79378	0.98634
2556.73687	0.98589
2554.67996	0.98611
2552.62306	0.98658
2550.56615	0.98650
2548.50924	0.98590
2546.45233	0.98524
2544.39542	0.98505
2542.33851	0.98557
2540.28161	0.98626
2538.22470	0.98653
2536.16779	0.98643
2534.11088	0.98602
2532.05397	0.98584
2529.99707	0.98635
2527.94016	0.98661
2525.88325	0.98596
2523.82634	0.98539
2521.76943	0.98556
2519.71252	0.98616
2517.65562	0.98667
2515.59871	0.98679
2513.54180	0.98671
2511.48489	0.98681
2509.42798	0.98717
2507.37108	0.98736
2505.31417	0.98732
2503.25726	0.98722
2501.20035	0.98673
2499.14344	0.98630
2497.08653	0.98663
2495.02963	0.98704
2492.97272	0.98697
2490.91581	0.98685
2488.85890	0.98682
2486.80199	0.98667
2484.74509	0.98630
2482.68818	0.98611
2480.63127	0.98628
2478.57436	0.98648
2476.51745	0.98657
2474.46054	0.98680
2472.40364	0.98687
2470.34673	0.98625
2468.28982	0.98564
2466.23291	0.98566
2464.17600	0.98609
2462.11910	0.98667
2460.06219	0.98706
2458.00528	0.98709
2455.94837	0.98685
2453.89146	0.98654
2451.83455	0.98662
2449.77765	0.98665
2447.72074	0.98618
2445.66383	0.98589
2443.60692	0.98612
2441.55001	0.98642
2439.49311	0.98632
2437.43620	0.98598
2435.37929	0.98583
2433.32238	0.98595
2431.26547	0.98643
2429.20856	0.98692
2427.15166	0.98684
2425.09475	0.98661
2423.03784	0.98648
2420.98093	0.98586
2418.92402	0.98525
2416.86712	0.98529
2414.81021	0.98544
2412.75330	0.98575
2410.69639	0.98655
2408.63948	0.98726
2406.58257	0.98741
2404.52567	0.98713
2402.46876	0.98687
2400.41185	0.98681
2398.35494	0.98700
2396.29803	0.98733
2394.24113	0.98739
2392.18422	0.98725
2390.12731	0.98714
2388.07040	0.98716
2386.01349	0.98735
2383.95658	0.98754
2381.89968	0.98759
2379.84277	0.98779
2377.78586	0.98818
2375.72895	0.98808
2373.67204	0.98713
2371.61514	0.98628
2369.55823	0.98679
2367.50132	0.98774
2365.44441	0.98723
2363.38750	0.98631
2361.33059	0.98611
2359.27369	0.98623
2357.21678	0.98724
2355.15987	0.98869
2353.10296	0.98903
2351.04605	0.98810
2348.98915	0.98696
2346.93224	0.98619
2344.87533	0.98559
2342.81842	0.98528
2340.76151	0.98602
2338.70460	0.98729
2336.64770	0.98727
2334.59079	0.98614
2332.53388	0.98564
2330.47697	0.98599
2328.42006	0.98646
2326.36316	0.98613
2324.30625	0.98547
2322.24934	0.98600
2320.19243	0.98664
2318.13552	0.98577
2316.07861	0.98499
2314.02171	0.98558
2311.96480	0.98602
2309.90789	0.98558
2307.85098	0.98501
2305.79407	0.98478
2303.73717	0.98507
2301.68026	0.98558
2299.62335	0.98627
2297.56644	0.98727
2295.50953	0.98766
2293.45262	0.98675
2291.39572	0.98585
2289.33881	0.98559
2287.28190	0.98541
2285.22499	0.98561
2283.16808	0.98607
2281.11117	0.98607
2279.05427	0.98530
2276.99736	0.98459
2274.94045	0.98510
2272.88354	0.98575
2270.82663	0.98607
2268.76973	0.98738
2266.71282	0.98908
2264.65591	0.98929
2262.59900	0.98788
2260.54209	0.98653
2258.48518	0.98647
2256.42828	0.98718
2254.37137	0.98775
2252.31446	0.98802
2250.25755	0.98782
2248.20064	0.98702
2246.14374	0.98617
2244.08683	0.98580
2242.02992	0.98567
2239.97301	0.98588
2237.91610	0.98651
2235.85919	0.98651
2233.80229	0.98554
2231.74538	0.98529
2229.68847	0.98640
2227.63156	0.98717
2225.57465	0.98726
2223.51775	0.98817
2221.46084	0.98938
2219.40393	0.98891
2217.34702	0.98767
2215.29011	0.98785
2213.23320	0.98825
2211.17630	0.98746
2209.11939	0.98716
2207.06248	0.98836
2205.00557	0.98903
2202.94866	0.98815
2200.89176	0.98760
2198.83485	0.98823
2196.77794	0.98887
2194.72103	0.98895
2192.66412	0.98870
2190.60721	0.98865
2188.55031	0.98816
2186.49340	0.98679
2184.43649	0.98652
2182.37958	0.98822
2180.32267	0.98969
2178.26577	0.98953
2176.20886	0.98823
2174.15195	0.98674
2172.09504	0.98649
2170.03813	0.98716
2167.98122	0.98739
2165.92432	0.98721
2163.86741	0.98734
2161.81050	0.98835
2159.75359	0.99018
2157.69668	0.99166
2155.63978	0.99166
2153.58287	0.99003
2151.52596	0.98748
2149.46905	0.98605
2147.41214	0.98741
2145.35523	0.99034
2143.29833	0.99216
2141.24142	0.99175
2139.18451	0.98998
2137.12760	0.98860
2135.07069	0.98796
2133.01379	0.98772
2130.95688	0.98868
2128.89997	0.98990
2126.84306	0.98967
2124.78615	0.98912
2122.72924	0.98910
2120.67234	0.98894
2118.61543	0.98878
2116.55852	0.98830
2114.50161	0.98759
2112.44470	0.98667
2110.38780	0.98500
2108.33089	0.98430
2106.27398	0.98561
2104.21707	0.98701
2102.16016	0.98693
2100.10325	0.98608
2098.04635	0.98584
2095.98944	0.98653
2093.93253	0.98703
2091.87562	0.98710
2089.81871	0.98788
2087.76181	0.98887
2085.70490	0.98872
2083.64799	0.98756
2081.59108	0.98668
2079.53417	0.98657
2077.47726	0.98700
2075.42036	0.98752
2073.36345	0.98753
2071.30654	0.98740
2069.24963	0.98708
2067.19272	0.98616
2065.13582	0.98572
2063.07891	0.98672
2061.02200	0.98796
2058.96509	0.98765
2056.90818	0.98649
2054.85127	0.98678
2052.79437	0.98822
2050.73746	0.98873
2048.68055	0.98863
2046.62364	0.98920
2044.56673	0.98992
2042.50983	0.98958
2040.45292	0.98896
2038.39601	0.98915
2036.33910	0.98885
2034.28219	0.98843
2032.22528	0.98946
2030.16838	0.99011
2028.11147	0.98921
2026.05456	0.98857
2023.99765	0.98960
2021.94074	0.99106
2019.88384	0.99211
2017.82693	0.99322
2015.77002	0.99312
2013.71311	0.99128
2011.65620	0.98909
2009.59929	0.98858
2007.54239	0.98973
2005.48548	0.99049
2003.42857	0.99005
2001.37166	0.98920
1999.31475	0.98857
1997.25785	0.98794
1995.20094	0.98777
1993.14403	0.98791
1991.08712	0.98755
1989.03021	0.98750
1986.97330	0.98859
1984.91640	0.98966
1982.85949	0.98973
1980.80258	0.98930
1978.74567	0.99011
1976.68876	0.99245
1974.63186	0.99285
1972.57495	0.99113
1970.51804	0.98969
1968.46113	0.98891
1966.40422	0.98940
1964.34731	0.99116
1962.29041	0.99129
1960.23350	0.98939
1958.17659	0.98888
1956.11968	0.98979
1954.06277	0.98984
1952.00587	0.98847
1949.94896	0.98753
1947.89205	0.98879
1945.83514	0.99046
1943.77823	0.99044
1941.72132	0.98975
1939.66442	0.98970
1937.60751	0.98953
1935.55060	0.98935
1933.49369	0.99002
1931.43678	0.99016
1929.37988	0.98956
1927.32297	0.98999
1925.26606	0.99112
1923.20915	0.99133
1921.15224	0.99030
1919.09533	0.98898
1917.03843	0.98857
1914.98152	0.98934
1912.92461	0.99027
1910.86770	0.99097
1908.81079	0.99092
1906.75389	0.99000
1904.69698	0.98974
1902.64007	0.99037
1900.58316	0.99043
1898.52625	0.99003
1896.46934	0.99042
1894.41244	0.99123
1892.35553	0.99142
1890.29862	0.99089
1888.24171	0.98993
1886.18480	0.98926
1884.12790	0.98921
1882.07099	0.98922
1880.01408	0.98930
1877.95717	0.98990
1875.90026	0.99035
1873.84335	0.99024
1871.78645	0.98999
1869.72954	0.98992
1867.67263	0.99025
1865.61572	0.99032
1863.55881	0.98980
1861.50191	0.98981
1859.44500	0.99062
1857.38809	0.99106
1855.33118	0.99048
1853.27427	0.98983
1851.21736	0.98996
1849.16046	0.99055
1847.10355	0.99102
1845.04664	0.99072
1842.98973	0.99005
1840.93282	0.99005
1838.87592	0.99023
1836.81901	0.98978
1834.76210	0.98911
1832.70519	0.98905
1830.64828	0.98966
1828.59137	0.99049
1826.53447	0.99115
1824.47756	0.99089
1822.42065	0.99001
1820.36374	0.98988
1818.30683	0.99038
1816.24993	0.99065
1814.19302	0.99000
1812.13611	0.98895
1810.07920	0.98857
1808.02229	0.98873
1805.96538	0.98895
1803.90848	0.98923
1801.85157	0.98926
1799.79466	0.98890
1797.73775	0.98861
1795.68084	0.98862
1793.62394	0.98877
1791.56703	0.98869
1789.51012	0.98832
1787.45321	0.98781
1785.39630	0.98717
1783.33939	0.98639
1781.28249	0.98530
1779.22558	0.98377
1777.16867	0.98206
1775.11176	0.98033
1773.05485	0.97793
1770.99795	0.97387
1768.94104	0.96876
1766.88413	0.96316
1764.82722	0.95719
1762.77031	0.94980
1760.71340	0.94110
1758.65650	0.93360
1756.59959	0.92652
1754.54268	0.91969
1752.48577	0.91335
1750.42886	0.90667
1748.37196	0.90053
1746.31505	0.89547
1744.25814	0.89102
1742.20123	0.88751
1740.14432	0.88494
1738.08741	0.88347
1736.03051	0.88311
1733.97360	0.88325
1731.91669	0.88478
1729.85978	0.88792
1727.80287	0.89165
1725.74597	0.89567
1723.68906	0.90062
1721.63215	0.90593
1719.57524	0.91097
1717.51833	0.91685
1715.46142	0.92345
1713.40452	0.92922
1711.34761	0.93419
1709.29070	0.93868
1707.23379	0.94306
1705.17688	0.94763
1703.11998	0.95175
1701.06307	0.95533
1699.00616	0.95837
1696.94925	0.96059
1694.89234	0.96257
1692.83543	0.96437
1690.77853	0.96594
1688.72162	0.96714
1686.66471	0.96782
1684.60780	0.96850
1682.55089	0.96967
1680.49399	0.97088
1678.43708	0.97172
1676.38017	0.97221
1674.32326	0.97286
1672.26635	0.97373
1670.20944	0.97429
1668.15254	0.97457
1666.09563	0.97500
1664.03872	0.97548
1661.98181	0.97589
1659.92490	0.97627
1657.86800	0.97643
1655.81109	0.97641
1653.75418	0.97641
1651.69727	0.97613
1649.64036	0.97596
1647.58345	0.97610
1645.52655	0.97628
1643.46964	0.97652
1641.41273	0.97694
1639.35582	0.97759
1637.29891	0.97816
1635.24201	0.97834
1633.18510	0.97840
1631.12819	0.97849
1629.07128	0.97856
1627.01437	0.97878
1624.95746	0.97908
1622.90056	0.97938
1620.84365	0.97983
1618.78674	0.98018
1616.72983	0.98028
1614.67292	0.98040
1612.61602	0.98068
1610.55911	0.98102
1608.50220	0.98141
1606.44529	0.98160
1604.38838	0.98158
1602.33147	0.98181
1600.27457	0.98234
1598.21766	0.98274
1596.16075	0.98283
1594.10384	0.98292
1592.04693	0.98316
1589.99003	0.98314
1587.93312	0.98287
1585.87621	0.98283
1583.81930	0.98305
1581.76239	0.98340
1579.70548	0.98361
1577.64858	0.98336
1575.59167	0.98295
1573.53476	0.98320
1571.47785	0.98381
1569.42094	0.98412
1567.36404	0.98420
1565.30713	0.98438
1563.25022	0.98444
1561.19331	0.98446
1559.13640	0.98452
1557.07949	0.98411
1555.02259	0.98383
1552.96568	0.98402
1550.90877	0.98440
1548.85186	0.98446
1546.79495	0.98425
1544.73805	0.98425
1542.68114	0.98450
1540.62423	0.98462
1538.56732	0.98442
1536.51041	0.98407
1534.45350	0.98381
1532.39660	0.98395
1530.33969	0.98429
1528.28278	0.98436
1526.22587	0.98423
1524.16896	0.98406
1522.11206	0.98390
1520.05515	0.98418
1517.99824	0.98460
1515.94133	0.98459
1513.88442	0.98433
1511.82751	0.98433
1509.77061	0.98463
1507.71370	0.98476
1505.65679	0.98474
1503.59988	0.98496
1501.54297	0.98521
1499.48607	0.98544
1497.42916	0.98555
1495.37225	0.98549
1493.31534	0.98544
1491.25843	0.98530
1489.20152	0.98495
1487.14462	0.98459
1485.08771	0.98468
1483.03080	0.98488
1480.97389	0.98452
1478.91698	0.98405
1476.86008	0.98413
1474.80317	0.98431
1472.74626	0.98357
1470.68935	0.98214
1468.63244	0.98114
1466.57553	0.98042
1464.51863	0.97959
1462.46172	0.97873
1460.40481	0.97804
1458.34790	0.97703
1456.29099	0.97546
1454.23409	0.97446
1452.17718	0.97380
1450.12027	0.97307
1448.06336	0.97216
1446.00645	0.97116
1443.94954	0.97025
1441.89264	0.96942
1439.83573	0.96872
1437.77882	0.96794
1435.72191	0.96688
1433.66500	0.96606
1431.60810	0.96570
1429.55119	0.96581
1427.49428	0.96643
1425.43737	0.96713
1423.38046	0.96766
1421.32355	0.96841
1419.26665	0.96939
1417.20974	0.97013
1415.15283	0.97079
1413.09592	0.97132
1411.03901	0.97144
1408.98211	0.97155
1406.92520	0.97179
1404.86829	0.97180
1402.81138	0.97160
1400.75447	0.97146
1398.69756	0.97138
1396.64066	0.97100
1394.58375	0.96967
1392.52684	0.96760
1390.46993	0.96526
1388.41302	0.96211
1386.35612	0.95796
1384.29921	0.95364
1382.24230	0.94936
1380.18539	0.94481
1378.12848	0.94011
1376.07157	0.93552
1374.01467	0.93096
1371.95776	0.92698
1369.90085	0.92421
1367.84394	0.92275
1365.78703	0.92325
1363.73013	0.92620
1361.67322	0.93178
1359.61631	0.93886
1357.55940	0.94603
1355.50249	0.95246
1353.44558	0.95776
1351.38868	0.96182
1349.33177	0.96477
1347.27486	0.96697
1345.21795	0.96856
1343.16104	0.96966
1341.10414	0.97053
1339.04723	0.97103
1336.99032	0.97123
1334.93341	0.97151
1332.87650	0.97185
1330.81959	0.97200
1328.76269	0.97190
1326.70578	0.97165
1324.64887	0.97139
1322.59196	0.97118
1320.53505	0.97113
1318.47815	0.97130
1316.42124	0.97169
1314.36433	0.97213
1312.30742	0.97227
1310.25051	0.97227
1308.19360	0.97255
1306.13670	0.97293
1304.07979	0.97309
1302.02288	0.97314
1299.96597	0.97316
1297.90906	0.97291
1295.85216	0.97219
1293.79525	0.97111
1291.73834	0.96997
1289.68143	0.96887
1287.62452	0.96781
1285.56761	0.96671
1283.51071	0.96544
1281.45380	0.96396
1279.39689	0.96210
1277.33998	0.95982
1275.28307	0.95729
1273.22617	0.95451
1271.16926	0.95152
1269.11235	0.94842
1267.05544	0.94511
1264.99853	0.94134
1262.94162	0.93715
1260.88472	0.93276
1258.82781	0.92823
1256.77090	0.92338
1254.71399	0.91815
1252.65708	0.91269
1250.60018	0.90713
1248.54327	0.90142
1246.48636	0.89551
1244.42945	0.88937
1242.37254	0.88315
1240.31563	0.87705
1238.25873	0.87099
1236.20182	0.86491
1234.14491	0.85909
1232.08800	0.85375
1230.03109	0.84886
1227.97419	0.84459
1225.91728	0.84113
1223.86037	0.83832
1221.80346	0.83614
1219.74655	0.83478
1217.68964	0.83423
1215.63274	0.83455
1213.57583	0.83623
1211.51892	0.83953
1209.46201	0.84441
1207.40510	0.85099
1205.34820	0.85903
1203.29129	0.86814
1201.23438	0.87813
1199.17747	0.88854
1197.12056	0.89867
1195.06365	0.90760
1193.00675	0.91486
1190.94984	0.92088
1188.89293	0.92569
1186.83602	0.92901
1184.77911	0.93114
1182.72221	0.93212
1180.66530	0.93203
1178.60839	0.93145
1176.55148	0.93067
1174.49457	0.92959
1172.43766	0.92815
1170.38076	0.92660
1168.32385	0.92543
1166.26694	0.92474
1164.21003	0.92457
1162.15312	0.92500
1160.09622	0.92578
1158.03931	0.92671
1155.98240	0.92780
1153.92549	0.92932
1151.86858	0.93108
1149.81167	0.93243
1147.75477	0.93342
1145.69786	0.93434
1143.64095	0.93488
1141.58404	0.93486
1139.52713	0.93424
1137.47023	0.93313
1135.41332	0.93179
1133.35641	0.93024
1131.29950	0.92848
1129.24259	0.92651
1127.18568	0.92448
1125.12878	0.92305
1123.07187	0.92240
1121.01496	0.92184
1118.95805	0.92107
1116.90114	0.92051
1114.84424	0.92040
1112.78733	0.92041
1110.73042	0.92014
1108.67351	0.91952
1106.61660	0.91867
1104.55969	0.91761
1102.50279	0.91663
1100.44588	0.91558
1098.38897	0.91403
1096.33206	0.91210
1094.27515	0.90990
1092.21825	0.90735
1090.16134	0.90427
1088.10443	0.90090
1086.04752	0.89743
1083.99061	0.89386
1081.93370	0.89049
1079.87680	0.88699
1077.81989	0.88305
1075.76298	0.87929
1073.70607	0.87593
1071.64916	0.87298
1069.59226	0.87054
1067.53535	0.86797
1065.47844	0.86490
1063.42153	0.86158
1061.36462	0.85828
1059.30771	0.85499
1057.25081	0.85156
1055.19390	0.84808
1053.13699	0.84449
1051.08008	0.84067
1049.02317	0.83677
1046.96627	0.83312
1044.90936	0.82975
1042.85245	0.82651
1040.79554	0.82331
1038.73863	0.82006
1036.68172	0.81688
1034.62482	0.81400
1032.56791	0.81154
1030.51100	0.80985
1028.45409	0.80913
1026.39718	0.80937
1024.34028	0.81079
1022.28337	0.81333
1020.22646	0.81644
1018.16955	0.81997
1016.11264	0.82392
1014.05573	0.82828
1011.99883	0.83299
1009.94192	0.83782
1007.88501	0.84266
1005.82810	0.84738
1003.77119	0.85180
1001.71429	0.85599
999.65738	0.85981
997.60047	0.86331
995.54356	0.86691
993.48665	0.87039
991.42974	0.87323
989.37284	0.87557
987.31593	0.87776
985.25902	0.87995
983.20211	0.88235
981.14520	0.88486
979.08830	0.88692
977.03139	0.88890
974.97448	0.89141
972.91757	0.89455
970.86066	0.89817
968.80375	0.90163
966.74685	0.90451
964.68994	0.90721
962.63303	0.90979
960.57612	0.91176
958.51921	0.91331
956.46231	0.91490
954.40540	0.91615
952.34849	0.91702
950.29158	0.91810
948.23467	0.91922
946.17776	0.92023
944.12086	0.92145
942.06395	0.92285
940.00704	0.92405
937.95013	0.92487
935.89322	0.92560
933.83632	0.92635
931.77941	0.92690
929.72250	0.92702
927.66559	0.92645
925.60868	0.92565
923.55177	0.92496
921.49487	0.92404
919.43796	0.92333
917.38105	0.92302
915.32414	0.92229
913.26723	0.92118
911.21033	0.91996
909.15342	0.91869
907.09651	0.91770
905.03960	0.91703
902.98269	0.91632
900.92578	0.91575
898.86888	0.91595
896.81197	0.91696
894.75506	0.91801
892.69815	0.91883
890.64124	0.92010
888.58434	0.92185
886.52743	0.92365
884.47052	0.92541
882.41361	0.92690
880.35670	0.92822
878.29979	0.92994
876.24289	0.93162
874.18598	0.93297
872.12907	0.93480
870.07216	0.93685
868.01525	0.93858
865.95835	0.94028
863.90144	0.94208
861.84453	0.94359
859.78762	0.94459
857.73071	0.94543
855.67380	0.94638
853.61690	0.94679
851.55999	0.94654
849.50308	0.94639
847.44617	0.94642
845.38926	0.94643
843.33236	0.94623
841.27545	0.94585
839.21854	0.94573
837.16163	0.94586
835.10472	0.94589
833.04781	0.94611
830.99091	0.94706
828.93400	0.94844
826.87709	0.94982
824.82018	0.95141
822.76327	0.95271
820.70637	0.95279
818.64946	0.95252
816.59255	0.95273
814.53564	0.95318
812.47873	0.95381
810.42182	0.95429
808.36492	0.95459
806.30801	0.95534
804.25110	0.95618
802.19419	0.95621
800.13728	0.95603
798.08038	0.95641
796.02347	0.95691
793.96656	0.95704
791.90965	0.95718
789.85274	0.95736
787.79583	0.95728
785.73893	0.95757
783.68202	0.95828
781.62511	0.95843
779.56820	0.95794
777.51129	0.95765
775.45439	0.95793
773.39748	0.95835
771.34057	0.95853
769.28366	0.95878
767.22675	0.95944
765.16984	0.96012
763.11294	0.96060
761.05603	0.96091
758.99912	0.96091
756.94221	0.96096
754.88530	0.96136
752.82839	0.96169
750.77149	0.96174
748.71458	0.96161
746.65767	0.96163
744.60076	0.96202
742.54385	0.96246
740.48695	0.96265
738.43004	0.96250
736.37313	0.96214
734.31622	0.96202
732.25931	0.96213
730.20240	0.96165
728.14550	0.96095
726.08859	0.96100
724.03168	0.96102
721.97477	0.96019
719.91786	0.95912
717.86096	0.95803
715.80405	0.95716
713.74714	0.95736
711.69023	0.95817
709.63332	0.95829
707.57641	0.95778
705.51951	0.95716
703.46260	0.95670
701.40569	0.95691
699.34878	0.95701
697.29187	0.95624
695.23497	0.95556
693.17806	0.95550
691.12115	0.95507
689.06424	0.95392
687.00733	0.95327
684.95042	0.95331
682.89352	0.95341
680.83661	0.95358
678.77970	0.95373
676.72279	0.95346
674.66588	0.95297
672.60898	0.95288
670.55207	0.95331
668.49516	0.95364
666.43825	0.95350
664.38134	0.95371
662.32443	0.95399
660.26753	0.95372
658.21062	0.95306
656.15371	0.95256
654.09680	0.95272
652.03989	0.95298
649.98299	0.95193
647.92608	0.94969
645.86917	0.94795
643.81226	0.94758
641.75535	0.94796
639.69844	0.94767
637.64154	0.94617
635.58463	0.94472
633.52772	0.94422
631.47081	0.94409
629.41390	0.94362
627.35700	0.94323
625.30009	0.94240
623.24318	0.94063
621.18627	0.93948
619.12936	0.93893
617.07245	0.93764
615.01555	0.93539
612.95864	0.93223
610.90173	0.92810
608.84482	0.92347
606.78791	0.91893
604.73101	0.91496
602.67410	0.91231
600.61719	0.91146
598.56028	0.91296
596.50337	0.91671
594.44646	0.92162
592.38956	0.92622
590.33265	0.92966
588.27574	0.93238
586.21883	0.93487
584.16192	0.93679
582.10502	0.93698
580.04811	0.93659
577.99120	0.93742
575.93429	0.93814
573.87738	0.93759
571.82047	0.93687
569.76357	0.93666
567.70666	0.93612
565.64975	0.93526
563.59284	0.93505
561.53593	0.93432
559.47903	0.93264
557.42212	0.93200
555.36521	0.93262
553.30830	0.93380
551.25139	0.93577
549.19448	0.93747
547.13758	0.93805
545.08067	0.93753
543.02376	0.93582
540.96685	0.93504
538.90994	0.93579
536.85304	0.93521
534.79613	0.93373
532.73922	0.93436
530.68231	0.93600
528.62540	0.93611
526.56849	0.93575
524.51159	0.93572
522.45468	0.93483
520.39777	0.93323
518.34086	0.93202
516.28395	0.93174
514.22705	0.93211
512.17014	0.93230
510.11323	0.93147
508.05632	0.93040
505.99941	0.92988
503.94250	0.92885
501.88560	0.92624
499.82869	0.92391
497.77178	0.92381
495.71487	0.92370
493.65796	0.92160
491.60106	0.91951
489.54415	0.91984
487.48724	0.92133
485.43033	0.92108
483.37342	0.91893
481.31651	0.91800
479.25961	0.91892
477.20270	0.91811
475.14579	0.91530
473.08888	0.91337
471.03197	0.91315
468.97507	0.91413
466.91816	0.91486
464.86125	0.91494
462.80434	0.91485
460.74743	0.91344
458.69052	0.91056
456.63362	0.90791
454.57671	0.90651
452.51980	0.90685
450.46289	0.90861
448.40598	0.91005
446.34908	0.91151
444.29217	0.91338
442.23526	0.91115
440.17835	0.90494
438.12144	0.90293
436.06453	0.90594
434.00763	0.90634
431.95072	0.90398
429.89381	0.90438
427.83690	0.90510
425.77999	0.90567
423.72309	0.91020
421.66618	0.91444
419.60927	0.91224
417.55236	0.90676
415.49545	0.90671
413.43854	0.90925
411.38164	0.90932
409.32473	0.90952
407.26782	0.91195
405.21091	0.91289
403.15400	0.91044
401.09710	0.90302
399.04019	0.89233
