3996.57260	0.98634
3994.51569	0.98646
3992.45878	0.98608
3990.40188	0.98599
3988.34497	0.98600
3986.28806	0.98570
3984.23115	0.98556
3982.17424	0.98558
3980.11733	0.98537
3978.06043	0.98519
3976.00352	0.98514
3973.94661	0.98525
3971.88970	0.98551
3969.83279	0.98564
3967.77589	0.98603
3965.71898	0.98684
3963.66207	0.98721
3961.60516	0.98672
3959.54825	0.98595
3957.49134	0.98552
3955.43444	0.98554
3953.37753	0.98568
3951.32062	0.98568
3949.26371	0.98556
3947.20680	0.98525
3945.14990	0.98487
3943.09299	0.98458
3941.03608	0.98476
3938.97917	0.98531
3936.92226	0.98567
3934.86535	0.98593
3932.80845	0.98615
3930.75154	0.98583
3928.69463	0.98532
3926.63772	0.98533
3924.58081	0.98532
3922.52391	0.98479
3920.46700	0.98443
3918.41009	0.98473
3916.35318	0.98543
3914.29627	0.98597
3912.23936	0.98635
3910.18246	0.98723
3908.12555	0.98830
3906.06864	0.98811
3904.01173	0.98660
3901.95482	0.98541
3899.89792	0.98504
3897.84101	0.98498
3895.78410	0.98508
3893.72719	0.98508
3891.67028	0.98485
3889.61337	0.98528
3887.55647	0.98621
3885.49956	0.98600
3883.44265	0.98551
3881.38574	0.98630
3879.32883	0.98662
3877.27193	0.98614
3875.21502	0.98635
3873.15811	0.98659
3871.10120	0.98593
3869.04429	0.98528
3866.98738	0.98533
3864.93048	0.98557
3862.87357	0.98609
3860.81666	0.98692
3858.75975	0.98718
3856.70284	0.98679
3854.64594	0.98633
3852.58903	0.98608
3850.53212	0.98611
3848.47521	0.98595
3846.41830	0.98579
3844.36139	0.98587
3842.30449	0.98558
3840.24758	0.98502
3838.19067	0.98517
3836.13376	0.98580
3834.07685	0.98595
3832.01995	0.98561
3829.96304	0.98564
3827.90613	0.98631
3825.84922	0.98654
3823.79231	0.98596
3821.73540	0.98494
3819.67850	0.98431
3817.62159	0.98488
3815.56468	0.98546
3813.50777	0.98523
3811.45086	0.98498
3809.39396	0.98512
3807.33705	0.98541
3805.28014	0.98570
3803.22323	0.98609
3801.16632	0.98635
3799.10941	0.98639
3797.05251	0.98641
3794.99560	0.98639
3792.93869	0.98610
3790.88178	0.98540
3788.82487	0.98489
3786.76796	0.98519
3784.71106	0.98556
3782.65415	0.98542
3780.59724	0.98544
3778.54033	0.98567
3776.48342	0.98575
3774.42652	0.98579
3772.36961	0.98600
3770.31270	0.98651
3768.25579	0.98686
3766.19888	0.98666
3764.14197	0.98622
3762.08507	0.98599
3760.02816	0.98610
3757.97125	0.98619
3755.91434	0.98602
3753.85743	0.98598
3751.80053	0.98670
3749.74362	0.98750
3747.68671	0.98732
3745.62980	0.98685
3743.57289	0.98620
3741.51598	0.98578
3739.45908	0.98566
3737.40217	0.98496
3735.34526	0.98411
3733.28835	0.98445
3731.23144	0.98563
3729.17454	0.98628
3727.11763	0.98569
3725.06072	0.98504
3723.00381	0.98564
3720.94690	0.98657
3718.88999	0.98691
3716.83309	0.98686
3714.77618	0.98663
3712.71927	0.98610
3710.66236	0.98610
3708.60545	0.98667
3706.54855	0.98657
3704.49164	0.98616
3702.43473	0.98594
3700.37782	0.98596
3698.32091	0.98611
3696.26400	0.98640
3694.20710	0.98689
3692.15019	0.98695
3690.09328	0.98636
3688.03637	0.98602
3685.97946	0.98614
3683.92256	0.98646
3681.86565	0.98672
3679.80874	0.98651
3677.75183	0.98627
3675.69492	0.98632
3673.63801	0.98562
3671.58111	0.98477
3669.52420	0.98492
3667.46729	0.98580
3665.41038	0.98648
3663.35347	0.98651
3661.29657	0.98609
3659.23966	0.98582
3657.18275	0.98561
3655.12584	0.98514
3653.06893	0.98526
3651.01202	0.98562
3648.95512	0.98443
3646.89821	0.98339
3644.84130	0.98385
3642.78439	0.98445
3640.72748	0.98485
3638.67058	0.98514
3636.61367	0.98535
3634.55676	0.98554
3632.49985	0.98562
3630.44294	0.98456
3628.38603	0.98258
3626.32913	0.98236
3624.27222	0.98311
3622.21531	0.98359
3620.15840	0.98387
3618.10149	0.98388
3616.04459	0.98366
3613.98768	0.98356
3611.93077	0.98372
3609.87386	0.98394
3607.81695	0.98380
3605.76004	0.98317
3603.70314	0.98290
3601.64623	0.98341
3599.58932	0.98381
3597.53241	0.98318
3595.47550	0.98215
3593.41860	0.98202
3591.36169	0.98263
3589.30478	0.98295
3587.24787	0.98291
3585.19096	0.98289
3583.13405	0.98267
3581.07715	0.98215
3579.02024	0.98169
3576.96333	0.98155
3574.90642	0.98171
3572.84951	0.98188
3570.79261	0.98174
3568.73570	0.98141
3566.67879	0.98097
3564.62188	0.98049
3562.56497	0.98035
3560.50806	0.98067
3558.45116	0.98081
3556.39425	0.98026
3554.33734	0.97921
3552.28043	0.97849
3550.22352	0.97868
3548.16662	0.97882
3546.10971	0.97822
3544.05280	0.97760
3541.99589	0.97724
3539.93898	0.97705
3537.88207	0.97686
3535.82517	0.97628
3533.76826	0.97561
3531.71135	0.97528
3529.65444	0.97511
3527.59753	0.97502
3525.54063	0.97509
3523.48372	0.97512
3521.42681	0.97516
3519.36990	0.97546
3517.31299	0.97565
3515.25608	0.97540
3513.19918	0.97497
3511.14227	0.97478
3509.08536	0.97460
3507.02845	0.97402
3504.97154	0.97323
3502.91464	0.97274
3500.85773	0.97280
3498.80082	0.97282
3496.74391	0.97226
3494.68700	0.97182
3492.63009	0.97212
3490.57319	0.97224
3488.51628	0.97157
3486.45937	0.97121
3484.40246	0.97157
3482.34555	0.97192
3480.28865	0.97220
3478.23174	0.97252
3476.17483	0.97274
3474.11792	0.97301
3472.06101	0.97312
3470.00410	0.97288
3467.94720	0.97263
3465.89029	0.97261
3463.83338	0.97244
3461.77647	0.97204
3459.71956	0.97194
3457.66266	0.97202
3455.60575	0.97219
3453.54884	0.97237
3451.49193	0.97239
3449.43502	0.97271
3447.37811	0.97357
3445.32121	0.97421
3443.26430	0.97395
3441.20739	0.97353
3439.15048	0.97350
3437.09357	0.97309
3435.03667	0.97257
3432.97976	0.97319
3430.92285	0.97430
3428.86594	0.97472
3426.80903	0.97493
3424.75212	0.97527
3422.69522	0.97504
3420.63831	0.97444
3418.58140	0.97479
3416.52449	0.97548
3414.46758	0.97539
3412.41068	0.97534
3410.35377	0.97566
3408.29686	0.97605
3406.23995	0.97656
3404.18304	0.97665
3402.12613	0.97654
3400.06923	0.97703
3398.01232	0.97730
3395.95541	0.97676
3393.89850	0.97664
3391.84159	0.97720
3389.78469	0.97724
3387.72778	0.97692
3385.67087	0.97722
3383.61396	0.97777
3381.55705	0.97785
3379.50014	0.97779
3377.44324	0.97821
3375.38633	0.97869
3373.32942	0.97822
3371.27251	0.97726
3369.21560	0.97721
3367.15870	0.97780
3365.10179	0.97815
3363.04488	0.97852
3360.98797	0.97854
3358.93106	0.97803
3356.87415	0.97801
3354.81725	0.97871
3352.76034	0.97929
3350.70343	0.97935
3348.64652	0.97925
3346.58961	0.97897
3344.53271	0.97873
3342.47580	0.97909
3340.41889	0.97960
3338.36198	0.97972
3336.30507	0.97987
3334.24816	0.98027
3332.19126	0.98052
3330.13435	0.98017
3328.07744	0.97966
3326.02053	0.98000
3323.96362	0.98094
3321.90672	0.98129
3319.84981	0.98104
3317.79290	0.98099
3315.73599	0.98100
3313.67908	0.98062
3311.62217	0.98031
3309.56527	0.98046
3307.50836	0.98044
3305.45145	0.98008
3303.39454	0.98017
3301.33763	0.98070
3299.28073	0.98095
3297.22382	0.98097
3295.16691	0.98098
3293.11000	0.98090
3291.05309	0.98118
3288.99618	0.98160
3286.93928	0.98161
3284.88237	0.98179
3282.82546	0.98252
3280.76855	0.98293
3278.71164	0.98243
3276.65474	0.98174
3274.59783	0.98155
3272.54092	0.98173
3270.48401	0.98189
3268.42710	0.98178
3266.37019	0.98144
3264.31329	0.98144
3262.25638	0.98193
3260.19947	0.98238
3258.14256	0.98254
3256.08565	0.98250
3254.02875	0.98243
3251.97184	0.98241
3249.91493	0.98258
3247.85802	0.98268
3245.80111	0.98223
3243.74420	0.98162
3241.68730	0.98143
3239.63039	0.98170
3237.57348	0.98216
3235.51657	0.98238
3233.45966	0.98242
3231.40276	0.98301
3229.34585	0.98383
3227.28894	0.98407
3225.23203	0.98380
3223.17512	0.98353
3221.11821	0.98338
3219.06131	0.98308
3217.00440	0.98269
3214.94749	0.98281
3212.89058	0.98347
3210.83367	0.98366
3208.77677	0.98296
3206.71986	0.98227
3204.66295	0.98257
3202.60604	0.98356
3200.54913	0.98389
3198.49222	0.98338
3196.43532	0.98305
3194.37841	0.98325
3192.32150	0.98351
3190.26459	0.98378
3188.20768	0.98404
3186.15078	0.98408
3184.09387	0.98409
3182.03696	0.98429
3179.98005	0.98441
3177.92314	0.98406
3175.86623	0.98345
3173.80933	0.98317
3171.75242	0.98334
3169.69551	0.98370
3167.63860	0.98381
3165.58169	0.98355
3163.52479	0.98343
3161.46788	0.98351
3159.41097	0.98339
3157.35406	0.98299
3155.29715	0.98247
3153.24024	0.98228
3151.18334	0.98280
3149.12643	0.98358
3147.06952	0.98376
3145.01261	0.98345
3142.95570	0.98355
3140.89880	0.98393
3138.84189	0.98390
3136.78498	0.98367
3134.72807	0.98342
3132.67116	0.98298
3130.61425	0.98279
3128.55735	0.98329
3126.50044	0.98397
3124.44353	0.98427
3122.38662	0.98398
3120.32971	0.98344
3118.27281	0.98330
3116.21590	0.98360
3114.15899	0.98421
3112.10208	0.98461
3110.04517	0.98430
3107.98826	0.98379
3105.93136	0.98350
3103.87445	0.98329
3101.81754	0.98330
3099.76063	0.98375
3097.70372	0.98437
3095.64682	0.98466
3093.58991	0.98460
3091.53300	0.98418
3089.47609	0.98362
3087.41918	0.98345
3085.36227	0.98353
3083.30537	0.98370
3081.24846	0.98404
3079.19155	0.98423
3077.13464	0.98405
3075.07773	0.98367
3073.02083	0.98352
3070.96392	0.98387
3068.90701	0.98419
3066.85010	0.98388
3064.79319	0.98347
3062.73628	0.98352
3060.67938	0.98370
3058.62247	0.98382
3056.56556	0.98404
3054.50865	0.98401
3052.45174	0.98366
3050.39484	0.98342
3048.33793	0.98333
3046.28102	0.98341
3044.22411	0.98354
3042.16720	0.98343
3040.11029	0.98323
3038.05339	0.98318
3035.99648	0.98311
3033.93957	0.98289
3031.88266	0.98280
3029.82575	0.98296
3027.76885	0.98305
3025.71194	0.98259
3023.65503	0.98187
3021.59812	0.98174
3019.54121	0.98216
3017.48430	0.98240
3015.42740	0.98244
3013.37049	0.98260
3011.31358	0.98280
3009.25667	0.98285
3007.19976	0.98270
3005.14286	0.98244
3003.08595	0.98209
3001.02904	0.98176
2998.97213	0.98171
2996.91522	0.98184
2994.85831	0.98193
2992.80141	0.98186
2990.74450	0.98169
2988.68759	0.98146
2986.63068	0.98107
2984.57377	0.98071
2982.51687	0.98071
2980.45996	0.98096
2978.40305	0.98109
2976.34614	0.98086
2974.28923	0.98037
2972.23232	0.97986
2970.17542	0.97937
2968.11851	0.97897
2966.06160	0.97855
2964.00469	0.97804
2961.94778	0.97792
2959.89088	0.97827
2957.83397	0.97845
2955.77706	0.97816
2953.72015	0.97764
2951.66324	0.97745
2949.60633	0.97761
2947.54943	0.97750
2945.49252	0.97704
2943.43561	0.97672
2941.37870	0.97674
2939.32179	0.97674
2937.26489	0.97676
2935.20798	0.97707
2933.15107	0.97744
2931.09416	0.97752
2929.03725	0.97758
2926.98034	0.97804
2924.92344	0.97846
2922.86653	0.97848
2920.80962	0.97869
2918.75271	0.97908
2916.69580	0.97909
2914.63890	0.97866
2912.58199	0.97833
2910.52508	0.97853
2908.46817	0.97864
2906.41126	0.97809
2904.35435	0.97732
2902.29745	0.97698
2900.24054	0.97706
2898.18363	0.97700
2896.12672	0.97674
2894.06981	0.97670
2892.01291	0.97693
2889.95600	0.97712
2887.89909	0.97713
2885.84218	0.97715
2883.78527	0.97720
2881.72836	0.97728
2879.67146	0.97756
2877.61455	0.97792
2875.55764	0.97803
2873.50073	0.97786
2871.44382	0.97772
2869.38692	0.97784
2867.33001	0.97807
2865.27310	0.97830
2863.21619	0.97869
2861.15928	0.97911
2859.10237	0.97932
2857.04547	0.97950
2854.98856	0.97966
2852.93165	0.97979
2850.87474	0.98021
2848.81783	0.98065
2846.76093	0.98071
2844.70402	0.98078
2842.64711	0.98122
2840.59020	0.98159
2838.53329	0.98164
2836.47638	0.98181
2834.41948	0.98200
2832.36257	0.98208
2830.30566	0.98225
2828.24875	0.98241
2826.19184	0.98250
2824.13494	0.98263
2822.07803	0.98270
2820.02112	0.98256
2817.96421	0.98241
2815.90730	0.98251
2813.85039	0.98248
2811.79349	0.98224
2809.73658	0.98225
2807.67967	0.98250
2805.62276	0.98287
2803.56585	0.98328
2801.50895	0.98335
2799.45204	0.98322
2797.39513	0.98335
2795.33822	0.98346
2793.28131	0.98333
2791.22440	0.98303
2789.16750	0.98249
2787.11059	0.98234
2785.05368	0.98284
2782.99677	0.98313
2780.93986	0.98311
2778.88296	0.98339
2776.82605	0.98389
2774.76914	0.98417
2772.71223	0.98408
2770.65532	0.98392
2768.59841	0.98355
2766.54151	0.98295
2764.48460	0.98280
2762.42769	0.98309
2760.37078	0.98309
2758.31387	0.98284
2756.25697	0.98294
2754.20006	0.98342
2752.14315	0.98371
2750.08624	0.98351
2748.02933	0.98330
2745.97242	0.98331
2743.91552	0.98318
2741.85861	0.98310
2739.80170	0.98325
2737.74479	0.98330
2735.68788	0.98325
2733.63098	0.98341
2731.57407	0.98352
2729.51716	0.98351
2727.46025	0.98355
2725.40334	0.98359
2723.34643	0.98370
2721.28953	0.98391
2719.23262	0.98407
2717.17571	0.98419
2715.11880	0.98427
2713.06189	0.98416
2711.00499	0.98396
2708.94808	0.98376
2706.89117	0.98363
2704.83426	0.98372
2702.77735	0.98390
2700.72044	0.98407
2698.66354	0.98423
2696.60663	0.98411
2694.54972	0.98389
2692.49281	0.98385
2690.43590	0.98376
2688.37900	0.98361
2686.32209	0.98373
2684.26518	0.98401
2682.20827	0.98427
2680.15136	0.98426
2678.09445	0.98400
2676.03755	0.98380
2673.98064	0.98373
2671.92373	0.98360
2669.86682	0.98346
2667.80991	0.98351
2665.75301	0.98365
2663.69610	0.98373
2661.63919	0.98366
2659.58228	0.98369
2657.52537	0.98390
2655.46846	0.98384
2653.41156	0.98343
2651.35465	0.98302
2649.29774	0.98285
2647.24083	0.98300
2645.18392	0.98344
2643.12702	0.98374
2641.07011	0.98356
2639.01320	0.98340
2636.95629	0.98352
2634.89938	0.98349
2632.84247	0.98337
2630.78557	0.98360
2628.72866	0.98398
2626.67175	0.98409
2624.61484	0.98393
2622.55793	0.98386
2620.50103	0.98424
2618.44412	0.98459
2616.38721	0.98416
2614.33030	0.98344
2612.27339	0.98320
2610.21648	0.98321
2608.15958	0.98314
2606.10267	0.98319
2604.04576	0.98360
2601.98885	0.98409
2599.93194	0.98402
2597.87504	0.98352
2595.81813	0.98317
2593.76122	0.98305
2591.70431	0.98354
2589.64740	0.98450
2587.59049	0.98511
2585.53359	0.98507
2583.47668	0.98463
2581.41977	0.98423
2579.36286	0.98425
2577.30595	0.98485
2575.24905	0.98554
2573.19214	0.98580
2571.13523	0.98570
2569.07832	0.98526
2567.02141	0.98492
2564.96450	0.98480
2562.90760	0.98433
2560.85069	0.98377
2558.79378	0.98408
2556.73687	0.98494
2554.67996	0.98517
2552.62306	0.98523
2550.56615	0.98568
2548.50924	0.98552
2546.45233	0.98461
2544.39542	0.98415
2542.33851	0.98448
2540.28161	0.98497
2538.22470	0.98521
2536.16779	0.98518
2534.11088	0.98526
2532.05397	0.98570
2529.99707	0.98585
2527.94016	0.98499
2525.88325	0.98397
2523.82634	0.98394
2521.76943	0.98432
2519.71252	0.98456
2517.65562	0.98499
2515.59871	0.98539
2513.54180	0.98536
2511.48489	0.98546
2509.42798	0.98599
2507.37108	0.98616
2505.31417	0.98594
2503.25726	0.98577
2501.20035	0.98535
2499.14344	0.98491
2497.08653	0.98534
2495.02963	0.98625
2492.97272	0.98649
2490.91581	0.98607
2488.85890	0.98581
2486.80199	0.98586
2484.74509	0.98575
2482.68818	0.98551
2480.63127	0.98516
2478.57436	0.98454
2476.51745	0.98443
2474.46054	0.98514
2472.40364	0.98539
2470.34673	0.98487
2468.28982	0.98470
2466.23291	0.98488
2464.17600	0.98482
2462.11910	0.98486
2460.06219	0.98516
2458.00528	0.98550
2455.94837	0.98569
2453.89146	0.98553
2451.83455	0.98514
2449.77765	0.98481
2447.72074	0.98502
2445.66383	0.98555
2443.60692	0.98554
2441.55001	0.98527
2439.49311	0.98521
2437.43620	0.98508
2435.37929	0.98475
2433.32238	0.98468
2431.26547	0.98529
2429.20856	0.98645
2427.15166	0.98709
2425.09475	0.98682
2423.03784	0.98622
2420.98093	0.98559
2418.92402	0.98511
2416.86712	0.98502
2414.81021	0.98516
2412.75330	0.98531
2410.69639	0.98549
2408.63948	0.98584
2406.58257	0.98595
2404.52567	0.98558
2402.46876	0.98549
2400.41185	0.98570
2398.35494	0.98570
2396.29803	0.98574
2394.24113	0.98575
2392.18422	0.98540
2390.12731	0.98484
2388.07040	0.98502
2386.01349	0.98609
2383.95658	0.98695
2381.89968	0.98707
2379.84277	0.98727
2377.78586	0.98776
2375.72895	0.98751
2373.67204	0.98690
2371.61514	0.98677
2369.55823	0.98618
2367.50132	0.98488
2365.44441	0.98419
2363.38750	0.98473
2361.33059	0.98535
2359.27369	0.98552
2357.21678	0.98607
2355.15987	0.98652
2353.10296	0.98626
2351.04605	0.98574
2348.98915	0.98527
2346.93224	0.98507
2344.87533	0.98516
2342.81842	0.98517
2340.76151	0.98517
2338.70460	0.98549
2336.64770	0.98564
2334.59079	0.98548
2332.53388	0.98510
2330.47697	0.98441
2328.42006	0.98410
2326.36316	0.98416
2324.30625	0.98418
2322.24934	0.98444
2320.19243	0.98462
2318.13552	0.98419
2316.07861	0.98388
2314.02171	0.98431
2311.96480	0.98480
2309.90789	0.98471
2307.85098	0.98444
2305.79407	0.98467
2303.73717	0.98517
2301.68026	0.98538
2299.62335	0.98554
2297.56644	0.98577
2295.50953	0.98560
2293.45262	0.98492
2291.39572	0.98419
2289.33881	0.98363
2287.28190	0.98343
2285.22499	0.98369
2283.16808	0.98409
2281.11117	0.98436
2279.05427	0.98407
2276.99736	0.98341
2274.94045	0.98354
2272.88354	0.98424
2270.82663	0.98510
2268.76973	0.98685
2266.71282	0.98846
2264.65591	0.98840
2262.59900	0.98691
2260.54209	0.98531
2258.48518	0.98485
2256.42828	0.98584
2254.37137	0.98727
2252.31446	0.98769
2250.25755	0.98736
2248.20064	0.98703
2246.14374	0.98620
2244.08683	0.98534
2242.02992	0.98456
2239.97301	0.98376
2237.91610	0.98428
2235.85919	0.98532
2233.80229	0.98500
2231.74538	0.98430
2229.68847	0.98494
2227.63156	0.98588
2225.57465	0.98539
2223.51775	0.98501
2221.46084	0.98628
2219.40393	0.98725
2217.34702	0.98717
2215.29011	0.98763
2213.23320	0.98855
2211.17630	0.98929
2209.11939	0.98924
2207.06248	0.98763
2205.00557	0.98600
2202.94866	0.98581
2200.89176	0.98613
2198.83485	0.98582
2196.77794	0.98616
2194.72103	0.98871
2192.66412	0.99129
2190.60721	0.99137
2188.55031	0.98889
2186.49340	0.98522
2184.43649	0.98329
2182.37958	0.98433
2180.32267	0.98644
2178.26577	0.98791
2176.20886	0.98788
2174.15195	0.98722
2172.09504	0.98751
2170.03813	0.98762
2167.98122	0.98628
2165.92432	0.98411
2163.86741	0.98365
2161.81050	0.98576
2159.75359	0.98842
2157.69668	0.99053
2155.63978	0.99069
2153.58287	0.98957
2151.52596	0.98873
2149.46905	0.98850
2147.41214	0.98929
2145.35523	0.99028
2143.29833	0.99025
2141.24142	0.98910
2139.18451	0.98829
2137.12760	0.98816
2135.07069	0.98722
2133.01379	0.98654
2130.95688	0.98783
2128.89997	0.98916
2126.84306	0.98919
2124.78615	0.98945
2122.72924	0.98922
2120.67234	0.98711
2118.61543	0.98525
2116.55852	0.98523
2114.50161	0.98560
2112.44470	0.98512
2110.38780	0.98470
2108.33089	0.98515
2106.27398	0.98607
2104.21707	0.98677
2102.16016	0.98660
2100.10325	0.98614
2098.04635	0.98611
2095.98944	0.98616
2093.93253	0.98599
2091.87562	0.98594
2089.81871	0.98637
2087.76181	0.98671
2085.70490	0.98644
2083.64799	0.98589
2081.59108	0.98519
2079.53417	0.98479
2077.47726	0.98538
2075.42036	0.98612
2073.36345	0.98658
2071.30654	0.98729
2069.24963	0.98750
2067.19272	0.98685
2065.13582	0.98625
2063.07891	0.98645
2061.02200	0.98753
2058.96509	0.98843
2056.90818	0.98789
2054.85127	0.98675
2052.79437	0.98647
2050.73746	0.98615
2048.68055	0.98555
2046.62364	0.98625
2044.56673	0.98733
2042.50983	0.98783
2040.45292	0.98785
2038.39601	0.98737
2036.33910	0.98732
2034.28219	0.98813
2032.22528	0.98964
2030.16838	0.98987
2028.11147	0.98743
2026.05456	0.98534
2023.99765	0.98637
2021.94074	0.98963
2019.88384	0.99271
2017.82693	0.99369
2015.77002	0.99206
2013.71311	0.98922
2011.65620	0.98751
2009.59929	0.98891
2007.54239	0.99160
2005.48548	0.99243
2003.42857	0.99131
2001.37166	0.98935
1999.31475	0.98807
1997.25785	0.98818
1995.20094	0.98871
1993.14403	0.98839
1991.08712	0.98778
1989.03021	0.98810
1986.97330	0.98870
1984.91640	0.98943
1982.85949	0.98921
1980.80258	0.98643
1978.74567	0.98545
1976.68876	0.98939
1974.63186	0.99229
1972.57495	0.99088
1970.51804	0.98814
1968.46113	0.98644
1966.40422	0.98684
1964.34731	0.98924
1962.29041	0.99077
1960.23350	0.98999
1958.17659	0.98917
1956.11968	0.98933
1954.06277	0.98945
1952.00587	0.98862
1949.94896	0.98760
1947.89205	0.98782
1945.83514	0.98831
1943.77823	0.98806
1941.72132	0.98771
1939.66442	0.98759
1937.60751	0.98744
1935.55060	0.98752
1933.49369	0.98838
1931.43678	0.98894
1929.37988	0.98847
1927.32297	0.98819
1925.26606	0.98865
1923.20915	0.98927
1921.15224	0.98947
1919.09533	0.98891
1917.03843	0.98832
1914.98152	0.98894
1912.92461	0.98988
1910.86770	0.98999
1908.81079	0.98950
1906.75389	0.98909
1904.69698	0.98923
1902.64007	0.98931
1900.58316	0.98867
1898.52625	0.98846
1896.46934	0.98953
1894.41244	0.99075
1892.35553	0.99080
1890.29862	0.98960
1888.24171	0.98815
1886.18480	0.98757
1884.12790	0.98783
1882.07099	0.98823
1880.01408	0.98875
1877.95717	0.98942
1875.90026	0.98943
1873.84335	0.98879
1871.78645	0.98845
1869.72954	0.98882
1867.67263	0.98950
1865.61572	0.98980
1863.55881	0.98967
1861.50191	0.98966
1859.44500	0.98994
1857.38809	0.99007
1855.33118	0.98978
1853.27427	0.98914
1851.21736	0.98862
1849.16046	0.98878
1847.10355	0.98935
1845.04664	0.98946
1842.98973	0.98907
1840.93282	0.98903
1838.87592	0.98905
1836.81901	0.98832
1834.76210	0.98756
1832.70519	0.98781
1830.64828	0.98851
1828.59137	0.98911
1826.53447	0.98992
1824.47756	0.98990
1822.42065	0.98874
1820.36374	0.98815
1818.30683	0.98876
1816.24993	0.98943
1814.19302	0.98906
1812.13611	0.98837
1810.07920	0.98815
1808.02229	0.98814
1805.96538	0.98827
1803.90848	0.98851
1801.85157	0.98831
1799.79466	0.98750
1797.73775	0.98693
1795.68084	0.98680
1793.62394	0.98668
1791.56703	0.98630
1789.51012	0.98577
1787.45321	0.98516
1785.39630	0.98435
1783.33939	0.98331
1781.28249	0.98222
1779.22558	0.98079
1777.16867	0.97884
1775.11176	0.97658
1773.05485	0.97344
1770.99795	0.96864
1768.94104	0.96296
1766.88413	0.95664
1764.82722	0.94980
1762.77031	0.94124
1760.71340	0.93072
1758.65650	0.92127
1756.59959	0.91253
1754.54268	0.90499
1752.48577	0.89848
1750.42886	0.89066
1748.37196	0.88280
1746.31505	0.87695
1744.25814	0.87236
1742.20123	0.86824
1740.14432	0.86435
1738.08741	0.86212
1736.03051	0.86181
1733.97360	0.86155
1731.91669	0.86252
1729.85978	0.86557
1727.80287	0.86937
1725.74597	0.87381
1723.68906	0.87926
1721.63215	0.88511
1719.57524	0.89108
1717.51833	0.89785
1715.46142	0.90513
1713.40452	0.91210
1711.34761	0.91863
1709.29070	0.92472
1707.23379	0.93065
1705.17688	0.93646
1703.11998	0.94138
1701.06307	0.94556
1699.00616	0.94929
1696.94925	0.95265
1694.89234	0.95597
1692.83543	0.95848
1690.77853	0.96034
1688.72162	0.96184
1686.66471	0.96284
1684.60780	0.96391
1682.55089	0.96549
1680.49399	0.96694
1678.43708	0.96820
1676.38017	0.96912
1674.32326	0.96948
1672.26635	0.96951
1670.20944	0.96956
1668.15254	0.97014
1666.09563	0.97108
1664.03872	0.97162
1661.98181	0.97184
1659.92490	0.97223
1657.86800	0.97253
1655.81109	0.97263
1653.75418	0.97238
1651.69727	0.97169
1649.64036	0.97165
1647.58345	0.97197
1645.52655	0.97234
1643.46964	0.97293
1641.41273	0.97360
1639.35582	0.97416
1637.29891	0.97449
1635.24201	0.97447
1633.18510	0.97442
1631.12819	0.97459
1629.07128	0.97475
1627.01437	0.97491
1624.95746	0.97520
1622.90056	0.97572
1620.84365	0.97641
1618.78674	0.97689
1616.72983	0.97701
1614.67292	0.97726
1612.61602	0.97775
1610.55911	0.97829
1608.50220	0.97884
1606.44529	0.97914
1604.38838	0.97917
1602.33147	0.97924
1600.27457	0.97960
1598.21766	0.98016
1596.16075	0.98054
1594.10384	0.98061
1592.04693	0.98065
1589.99003	0.98078
1587.93312	0.98076
1585.87621	0.98084
1583.81930	0.98130
1581.76239	0.98163
1579.70548	0.98154
1577.64858	0.98136
1575.59167	0.98137
1573.53476	0.98180
1571.47785	0.98234
1569.42094	0.98260
1567.36404	0.98261
1565.30713	0.98258
1563.25022	0.98255
1561.19331	0.98247
1559.13640	0.98216
1557.07949	0.98180
1555.02259	0.98184
1552.96568	0.98224
1550.90877	0.98284
1548.85186	0.98315
1546.79495	0.98308
1544.73805	0.98314
1542.68114	0.98336
1540.62423	0.98318
1538.56732	0.98285
1536.51041	0.98278
1534.45350	0.98265
1532.39660	0.98265
1530.33969	0.98294
1528.28278	0.98308
1526.22587	0.98293
1524.16896	0.98280
1522.11206	0.98298
1520.05515	0.98341
1517.99824	0.98344
1515.94133	0.98305
1513.88442	0.98291
1511.82751	0.98319
1509.77061	0.98358
1507.71370	0.98358
1505.65679	0.98314
1503.59988	0.98303
1501.54297	0.98320
1499.48607	0.98342
1497.42916	0.98347
1495.37225	0.98338
1493.31534	0.98336
1491.25843	0.98323
1489.20152	0.98301
1487.14462	0.98297
1485.08771	0.98310
1483.03080	0.98310
1480.97389	0.98259
1478.91698	0.98200
1476.86008	0.98183
1474.80317	0.98173
1472.74626	0.98095
1470.68935	0.97972
1468.63244	0.97858
1466.57553	0.97722
1464.51863	0.97578
1462.46172	0.97489
1460.40481	0.97425
1458.34790	0.97294
1456.29099	0.97108
1454.23409	0.97004
1452.17718	0.96921
1450.12027	0.96820
1448.06336	0.96705
1446.00645	0.96580
1443.94954	0.96472
1441.89264	0.96388
1439.83573	0.96317
1437.77882	0.96228
1435.72191	0.96104
1433.66500	0.96013
1431.60810	0.95975
1429.55119	0.95976
1427.49428	0.96033
1425.43737	0.96131
1423.38046	0.96236
1421.32355	0.96349
1419.26665	0.96444
1417.20974	0.96497
1415.15283	0.96573
1413.09592	0.96660
1411.03901	0.96713
1408.98211	0.96735
1406.92520	0.96743
1404.86829	0.96740
1402.81138	0.96746
1400.75447	0.96754
1398.69756	0.96724
1396.64066	0.96622
1394.58375	0.96420
1392.52684	0.96156
1390.46993	0.95866
1388.41302	0.95466
1386.35612	0.94939
1384.29921	0.94421
1382.24230	0.93933
1380.18539	0.93427
1378.12848	0.92911
1376.07157	0.92411
1374.01467	0.91901
1371.95776	0.91431
1369.90085	0.91079
1367.84394	0.90894
1365.78703	0.90969
1363.73013	0.91342
1361.67322	0.92021
1359.61631	0.92863
1357.55940	0.93707
1355.50249	0.94492
1353.44558	0.95157
1351.38868	0.95648
1349.33177	0.95978
1347.27486	0.96209
1345.21795	0.96395
1343.16104	0.96533
1341.10414	0.96617
1339.04723	0.96675
1336.99032	0.96718
1334.93341	0.96743
1332.87650	0.96764
1330.81959	0.96764
1328.76269	0.96738
1326.70578	0.96706
1324.64887	0.96676
1322.59196	0.96660
1320.53505	0.96667
1318.47815	0.96699
1316.42124	0.96754
1314.36433	0.96795
1312.30742	0.96794
1310.25051	0.96781
1308.19360	0.96786
1306.13670	0.96814
1304.07979	0.96849
1302.02288	0.96858
1299.96597	0.96827
1297.90906	0.96761
1295.85216	0.96668
1293.79525	0.96553
1291.73834	0.96432
1289.68143	0.96316
1287.62452	0.96185
1285.56761	0.96018
1283.51071	0.95821
1281.45380	0.95607
1279.39689	0.95376
1277.33998	0.95116
1275.28307	0.94825
1273.22617	0.94495
1271.16926	0.94127
1269.11235	0.93758
1267.05544	0.93395
1264.99853	0.92993
1262.94162	0.92527
1260.88472	0.92004
1258.82781	0.91462
1256.77090	0.90907
1254.71399	0.90316
1252.65708	0.89696
1250.60018	0.89066
1248.54327	0.88427
1246.48636	0.87774
1244.42945	0.87113
1242.37254	0.86443
1240.31563	0.85770
1238.25873	0.85097
1236.20182	0.84430
1234.14491	0.83794
1232.08800	0.83214
1230.03109	0.82707
1227.97419	0.82275
1225.91728	0.81913
1223.86037	0.81599
1221.80346	0.81343
1219.74655	0.81197
1217.68964	0.81162
1215.63274	0.81216
1213.57583	0.81400
1211.51892	0.81767
1209.46201	0.82330
1207.40510	0.83084
1205.34820	0.83990
1203.29129	0.85019
1201.23438	0.86163
1199.17747	0.87353
1197.12056	0.88487
1195.06365	0.89499
1193.00675	0.90380
1190.94984	0.91106
1188.89293	0.91630
1186.83602	0.91977
1184.77911	0.92205
1182.72221	0.92314
1180.66530	0.92294
1178.60839	0.92205
1176.55148	0.92109
1174.49457	0.91998
1172.43766	0.91847
1170.38076	0.91665
1168.32385	0.91517
1166.26694	0.91451
1164.21003	0.91450
1162.15312	0.91495
1160.09622	0.91585
1158.03931	0.91713
1155.98240	0.91853
1153.92549	0.92009
1151.86858	0.92197
1149.81167	0.92379
1147.75477	0.92505
1145.69786	0.92584
1143.64095	0.92617
1141.58404	0.92593
1139.52713	0.92528
1137.47023	0.92435
1135.41332	0.92299
1133.35641	0.92110
1131.29950	0.91889
1129.24259	0.91677
1127.18568	0.91492
1125.12878	0.91323
1123.07187	0.91193
1121.01496	0.91108
1118.95805	0.91028
1116.90114	0.90964
1114.84424	0.90937
1112.78733	0.90925
1110.73042	0.90915
1108.67351	0.90903
1106.61660	0.90858
1104.55969	0.90732
1102.50279	0.90553
1100.44588	0.90390
1098.38897	0.90245
1096.33206	0.90071
1094.27515	0.89831
1092.21825	0.89545
1090.16134	0.89218
1088.10443	0.88843
1086.04752	0.88455
1083.99061	0.88063
1081.93370	0.87651
1079.87680	0.87238
1077.81989	0.86866
1075.76298	0.86538
1073.70607	0.86206
1071.64916	0.85841
1069.59226	0.85470
1067.53535	0.85127
1065.47844	0.84805
1063.42153	0.84464
1061.36462	0.84108
1059.30771	0.83748
1057.25081	0.83376
1055.19390	0.83015
1053.13699	0.82641
1051.08008	0.82222
1049.02317	0.81791
1046.96627	0.81374
1044.90936	0.80974
1042.85245	0.80618
1040.79554	0.80301
1038.73863	0.79968
1036.68172	0.79627
1034.62482	0.79306
1032.56791	0.79011
1030.51100	0.78792
1028.45409	0.78734
1026.39718	0.78836
1024.34028	0.79029
1022.28337	0.79297
1020.22646	0.79633
1018.16955	0.80014
1016.11264	0.80419
1014.05573	0.80848
1011.99883	0.81321
1009.94192	0.81857
1007.88501	0.82411
1005.82810	0.82898
1003.77119	0.83330
1001.71429	0.83774
999.65738	0.84210
997.60047	0.84568
995.54356	0.84892
993.48665	0.85251
991.42974	0.85599
989.37284	0.85891
987.31593	0.86162
985.25902	0.86430
983.20211	0.86682
981.14520	0.86920
979.08830	0.87164
977.03139	0.87462
974.97448	0.87824
972.91757	0.88202
970.86066	0.88579
968.80375	0.88944
966.74685	0.89297
964.68994	0.89629
962.63303	0.89885
960.57612	0.90058
958.51921	0.90220
956.46231	0.90395
954.40540	0.90552
952.34849	0.90693
950.29158	0.90829
948.23467	0.90966
946.17776	0.91113
944.12086	0.91271
942.06395	0.91430
940.00704	0.91556
937.95013	0.91635
935.89322	0.91707
933.83632	0.91790
931.77941	0.91868
929.72250	0.91891
927.66559	0.91818
925.60868	0.91719
923.55177	0.91633
921.49487	0.91523
919.43796	0.91436
917.38105	0.91371
915.32414	0.91265
913.26723	0.91132
911.21033	0.90995
909.15342	0.90851
907.09651	0.90723
905.03960	0.90646
902.98269	0.90592
900.92578	0.90558
898.86888	0.90611
896.81197	0.90748
894.75506	0.90875
892.69815	0.90970
890.64124	0.91088
888.58434	0.91252
886.52743	0.91451
884.47052	0.91665
882.41361	0.91887
880.35670	0.92086
878.29979	0.92259
876.24289	0.92434
874.18598	0.92594
872.12907	0.92782
870.07216	0.93039
868.01525	0.93324
865.95835	0.93560
863.90144	0.93699
861.84453	0.93789
859.78762	0.93905
857.73071	0.94048
855.67380	0.94166
853.61690	0.94190
851.55999	0.94142
849.50308	0.94130
847.44617	0.94159
845.38926	0.94166
843.33236	0.94144
841.27545	0.94107
839.21854	0.94048
837.16163	0.94016
835.10472	0.94072
833.04781	0.94198
830.99091	0.94340
828.93400	0.94455
826.87709	0.94567
824.82018	0.94715
822.76327	0.94834
820.70637	0.94839
818.64946	0.94823
816.59255	0.94860
814.53564	0.94920
812.47873	0.95022
810.42182	0.95113
808.36492	0.95144
806.30801	0.95173
804.25110	0.95220
802.19419	0.95263
800.13728	0.95297
798.08038	0.95334
796.02347	0.95386
793.96656	0.95434
791.90965	0.95473
789.85274	0.95471
787.79583	0.95442
785.73893	0.95481
783.68202	0.95549
781.62511	0.95571
779.56820	0.95569
777.51129	0.95563
775.45439	0.95566
773.39748	0.95590
771.34057	0.95608
769.28366	0.95624
767.22675	0.95673
765.16984	0.95718
763.11294	0.95771
761.05603	0.95834
758.99912	0.95826
756.94221	0.95787
754.88530	0.95853
752.82839	0.95951
750.77149	0.95947
748.71458	0.95898
746.65767	0.95896
744.60076	0.95968
742.54385	0.96055
740.48695	0.96053
738.43004	0.95971
736.37313	0.95883
734.31622	0.95827
732.25931	0.95814
730.20240	0.95808
728.14550	0.95804
726.08859	0.95798
724.03168	0.95721
721.97477	0.95589
719.91786	0.95517
717.86096	0.95513
715.80405	0.95466
713.74714	0.95420
711.69023	0.95476
709.63332	0.95523
707.57641	0.95481
705.51951	0.95403
703.46260	0.95359
701.40569	0.95351
699.34878	0.95294
697.29187	0.95202
695.23497	0.95181
693.17806	0.95188
691.12115	0.95067
689.06424	0.94883
687.00733	0.94819
684.95042	0.94824
682.89352	0.94805
680.83661	0.94803
678.77970	0.94796
676.72279	0.94769
674.66588	0.94810
672.60898	0.94894
670.55207	0.94962
668.49516	0.95003
666.43825	0.94968
664.38134	0.94891
662.32443	0.94808
660.26753	0.94748
658.21062	0.94683
656.15371	0.94583
654.09680	0.94522
652.03989	0.94438
649.98299	0.94280
647.92608	0.94172
645.86917	0.94131
643.81226	0.94105
641.75535	0.94077
639.69844	0.93981
637.64154	0.93821
635.58463	0.93707
633.52772	0.93650
631.47081	0.93579
629.41390	0.93485
627.35700	0.93388
625.30009	0.93279
623.24318	0.93223
621.18627	0.93207
619.12936	0.93053
617.07245	0.92736
615.01555	0.92426
612.95864	0.92140
610.90173	0.91736
608.84482	0.91256
606.78791	0.90812
604.73101	0.90471
602.67410	0.90309
600.61719	0.90274
598.56028	0.90376
596.50337	0.90755
594.44646	0.91321
592.38956	0.91794
590.33265	0.92102
588.27574	0.92300
586.21883	0.92404
584.16192	0.92517
582.10502	0.92682
580.04811	0.92805
577.99120	0.92846
575.93429	0.92856
573.87738	0.92833
571.82047	0.92777
569.76357	0.92726
567.70666	0.92642
565.64975	0.92542
563.59284	0.92498
561.53593	0.92492
559.47903	0.92603
557.42212	0.92767
555.36521	0.92745
553.30830	0.92656
551.25139	0.92684
549.19448	0.92718
547.13758	0.92712
545.08067	0.92724
543.02376	0.92696
540.96685	0.92655
538.90994	0.92638
536.85304	0.92573
534.79613	0.92557
532.73922	0.92677
530.68231	0.92744
528.62540	0.92607
526.56849	0.92441
524.51159	0.92429
522.45468	0.92496
520.39777	0.92490
518.34086	0.92425
516.28395	0.92407
514.22705	0.92424
512.17014	0.92445
510.11323	0.92348
508.05632	0.92073
505.99941	0.91807
503.94250	0.91717
501.88560	0.91732
499.82869	0.91735
497.77178	0.91766
495.71487	0.91801
493.65796	0.91751
491.60106	0.91595
489.54415	0.91428
487.48724	0.91343
485.43033	0.91229
483.37342	0.91052
481.31651	0.90896
479.25961	0.90767
477.20270	0.90653
475.14579	0.90553
473.08888	0.90586
471.03197	0.90750
468.97507	0.90649
466.91816	0.90354
464.86125	0.90302
462.80434	0.90286
460.74743	0.90003
458.69052	0.89717
456.63362	0.89657
454.57671	0.89787
452.51980	0.90094
450.46289	0.90399
448.40598	0.90458
446.34908	0.90328
444.29217	0.90316
442.23526	0.90345
440.17835	0.90040
438.12144	0.89667
436.06453	0.89707
434.00763	0.90021
431.95072	0.90058
429.89381	0.89808
427.83690	0.89792
425.77999	0.90195
423.72309	0.90598
421.66618	0.90681
419.60927	0.90503
417.55236	0.90254
415.49545	0.90240
413.43854	0.90269
411.38164	0.90145
409.32473	0.90036
407.26782	0.90014
405.21091	0.89775
403.15400	0.89346
401.09710	0.89069
399.04019	0.88844
