3996.57260	0.98617
3994.51569	0.98565
3992.45878	0.98526
3990.40188	0.98531
3988.34497	0.98543
3986.28806	0.98543
3984.23115	0.98564
3982.17424	0.98617
3980.11733	0.98670
3978.06043	0.98624
3976.00352	0.98500
3973.94661	0.98469
3971.88970	0.98533
3969.83279	0.98570
3967.77589	0.98580
3965.71898	0.98599
3963.66207	0.98594
3961.60516	0.98570
3959.54825	0.98563
3957.49134	0.98560
3955.43444	0.98570
3953.37753	0.98629
3951.32062	0.98689
3949.26371	0.98663
3947.20680	0.98578
3945.14990	0.98541
3943.09299	0.98540
3941.03608	0.98488
3938.97917	0.98460
3936.92226	0.98533
3934.86535	0.98590
3932.80845	0.98550
3930.75154	0.98514
3928.69463	0.98561
3926.63772	0.98627
3924.58081	0.98631
3922.52391	0.98602
3920.46700	0.98626
3918.41009	0.98641
3916.35318	0.98596
3914.29627	0.98578
3912.23936	0.98581
3910.18246	0.98562
3908.12555	0.98580
3906.06864	0.98687
3904.01173	0.98797
3901.95482	0.98778
3899.89792	0.98707
3897.84101	0.98658
3895.78410	0.98578
3893.72719	0.98540
3891.67028	0.98621
3889.61337	0.98694
3887.55647	0.98690
3885.49956	0.98651
3883.44265	0.98597
3881.38574	0.98571
3879.32883	0.98582
3877.27193	0.98618
3875.21502	0.98660
3873.15811	0.98666
3871.10120	0.98660
3869.04429	0.98689
3866.98738	0.98674
3864.93048	0.98565
3862.87357	0.98449
3860.81666	0.98445
3858.75975	0.98537
3856.70284	0.98612
3854.64594	0.98621
3852.58903	0.98627
3850.53212	0.98663
3848.47521	0.98709
3846.41830	0.98740
3844.36139	0.98738
3842.30449	0.98728
3840.24758	0.98737
3838.19067	0.98712
3836.13376	0.98644
3834.07685	0.98635
3832.01995	0.98665
3829.96304	0.98636
3827.90613	0.98576
3825.84922	0.98560
3823.79231	0.98620
3821.73540	0.98688
3819.67850	0.98626
3817.62159	0.98515
3815.56468	0.98504
3813.50777	0.98519
3811.45086	0.98465
3809.39396	0.98421
3807.33705	0.98447
3805.28014	0.98508
3803.22323	0.98569
3801.16632	0.98633
3799.10941	0.98642
3797.05251	0.98608
3794.99560	0.98593
3792.93869	0.98569
3790.88178	0.98563
3788.82487	0.98605
3786.76796	0.98608
3784.71106	0.98574
3782.65415	0.98605
3780.59724	0.98665
3778.54033	0.98653
3776.48342	0.98603
3774.42652	0.98600
3772.36961	0.98654
3770.31270	0.98705
3768.25579	0.98685
3766.19888	0.98604
3764.14197	0.98517
3762.08507	0.98495
3760.02816	0.98543
3757.97125	0.98589
3755.91434	0.98595
3753.85743	0.98597
3751.80053	0.98635
3749.74362	0.98683
3747.68671	0.98707
3745.62980	0.98730
3743.57289	0.98700
3741.51598	0.98642
3739.45908	0.98626
3737.40217	0.98618
3735.34526	0.98571
3733.28835	0.98529
3731.23144	0.98514
3729.17454	0.98534
3727.11763	0.98618
3725.06072	0.98731
3723.00381	0.98794
3720.94690	0.98743
3718.88999	0.98607
3716.83309	0.98526
3714.77618	0.98582
3712.71927	0.98658
3710.66236	0.98587
3708.60545	0.98499
3706.54855	0.98551
3704.49164	0.98699
3702.43473	0.98832
3700.37782	0.98829
3698.32091	0.98742
3696.26400	0.98689
3694.20710	0.98680
3692.15019	0.98693
3690.09328	0.98689
3688.03637	0.98634
3685.97946	0.98581
3683.92256	0.98570
3681.86565	0.98630
3679.80874	0.98703
3677.75183	0.98667
3675.69492	0.98538
3673.63801	0.98496
3671.58111	0.98532
3669.52420	0.98542
3667.46729	0.98542
3665.41038	0.98521
3663.35347	0.98440
3661.29657	0.98372
3659.23966	0.98384
3657.18275	0.98391
3655.12584	0.98352
3653.06893	0.98384
3651.01202	0.98473
3648.95512	0.98499
3646.89821	0.98487
3644.84130	0.98452
3642.78439	0.98394
3640.72748	0.98393
3638.67058	0.98431
3636.61367	0.98436
3634.55676	0.98395
3632.49985	0.98366
3630.44294	0.98398
3628.38603	0.98437
3626.32913	0.98452
3624.27222	0.98457
3622.21531	0.98435
3620.15840	0.98372
3618.10149	0.98371
3616.04459	0.98469
3613.98768	0.98512
3611.93077	0.98474
3609.87386	0.98469
3607.81695	0.98552
3605.76004	0.98615
3603.70314	0.98570
3601.64623	0.98490
3599.58932	0.98465
3597.53241	0.98488
3595.47550	0.98498
3593.41860	0.98488
3591.36169	0.98490
3589.30478	0.98497
3587.24787	0.98459
3585.19096	0.98404
3583.13405	0.98404
3581.07715	0.98421
3579.02024	0.98411
3576.96333	0.98412
3574.90642	0.98429
3572.84951	0.98433
3570.79261	0.98411
3568.73570	0.98356
3566.67879	0.98304
3564.62188	0.98288
3562.56497	0.98251
3560.50806	0.98219
3558.45116	0.98245
3556.39425	0.98260
3554.33734	0.98241
3552.28043	0.98263
3550.22352	0.98353
3548.16662	0.98433
3546.10971	0.98446
3544.05280	0.98442
3541.99589	0.98420
3539.93898	0.98347
3537.88207	0.98275
3535.82517	0.98262
3533.76826	0.98292
3531.71135	0.98332
3529.65444	0.98364
3527.59753	0.98374
3525.54063	0.98399
3523.48372	0.98459
3521.42681	0.98520
3519.36990	0.98538
3517.31299	0.98479
3515.25608	0.98361
3513.19918	0.98276
3511.14227	0.98284
3509.08536	0.98333
3507.02845	0.98373
3504.97154	0.98375
3502.91464	0.98320
3500.85773	0.98275
3498.80082	0.98292
3496.74391	0.98353
3494.68700	0.98421
3492.63009	0.98450
3490.57319	0.98415
3488.51628	0.98378
3486.45937	0.98399
3484.40246	0.98398
3482.34555	0.98322
3480.28865	0.98273
3478.23174	0.98298
3476.17483	0.98342
3474.11792	0.98397
3472.06101	0.98430
3470.00410	0.98370
3467.94720	0.98295
3465.89029	0.98295
3463.83338	0.98307
3461.77647	0.98303
3459.71956	0.98309
3457.66266	0.98310
3455.60575	0.98310
3453.54884	0.98309
3451.49193	0.98325
3449.43502	0.98381
3447.37811	0.98411
3445.32121	0.98391
3443.26430	0.98346
3441.20739	0.98294
3439.15048	0.98302
3437.09357	0.98368
3435.03667	0.98403
3432.97976	0.98367
3430.92285	0.98322
3428.86594	0.98314
3426.80903	0.98323
3424.75212	0.98358
3422.69522	0.98410
3420.63831	0.98429
3418.58140	0.98447
3416.52449	0.98493
3414.46758	0.98538
3412.41068	0.98570
3410.35377	0.98583
3408.29686	0.98562
3406.23995	0.98494
3404.18304	0.98416
3402.12613	0.98399
3400.06923	0.98439
3398.01232	0.98482
3395.95541	0.98498
3393.89850	0.98472
3391.84159	0.98421
3389.78469	0.98394
3387.72778	0.98409
3385.67087	0.98450
3383.61396	0.98472
3381.55705	0.98473
3379.50014	0.98480
3377.44324	0.98485
3375.38633	0.98475
3373.32942	0.98455
3371.27251	0.98460
3369.21560	0.98506
3367.15870	0.98516
3365.10179	0.98480
3363.04488	0.98483
3360.98797	0.98517
3358.93106	0.98521
3356.87415	0.98506
3354.81725	0.98487
3352.76034	0.98443
3350.70343	0.98388
3348.64652	0.98375
3346.58961	0.98438
3344.53271	0.98510
3342.47580	0.98507
3340.41889	0.98467
3338.36198	0.98482
3336.30507	0.98507
3334.24816	0.98454
3332.19126	0.98385
3330.13435	0.98355
3328.07744	0.98326
3326.02053	0.98319
3323.96362	0.98378
3321.90672	0.98483
3319.84981	0.98561
3317.79290	0.98568
3315.73599	0.98547
3313.67908	0.98543
3311.62217	0.98529
3309.56527	0.98486
3307.50836	0.98445
3305.45145	0.98434
3303.39454	0.98418
3301.33763	0.98357
3299.28073	0.98299
3297.22382	0.98309
3295.16691	0.98383
3293.11000	0.98439
3291.05309	0.98468
3288.99618	0.98504
3286.93928	0.98541
3284.88237	0.98563
3282.82546	0.98538
3280.76855	0.98506
3278.71164	0.98492
3276.65474	0.98459
3274.59783	0.98451
3272.54092	0.98492
3270.48401	0.98516
3268.42710	0.98494
3266.37019	0.98481
3264.31329	0.98496
3262.25638	0.98505
3260.19947	0.98525
3258.14256	0.98569
3256.08565	0.98566
3254.02875	0.98489
3251.97184	0.98443
3249.91493	0.98460
3247.85802	0.98461
3245.80111	0.98440
3243.74420	0.98449
3241.68730	0.98502
3239.63039	0.98564
3237.57348	0.98577
3235.51657	0.98525
3233.45966	0.98490
3231.40276	0.98495
3229.34585	0.98470
3227.28894	0.98412
3225.23203	0.98370
3223.17512	0.98347
3221.11821	0.98357
3219.06131	0.98395
3217.00440	0.98372
3214.94749	0.98321
3212.89058	0.98363
3210.83367	0.98463
3208.77677	0.98526
3206.71986	0.98558
3204.66295	0.98569
3202.60604	0.98536
3200.54913	0.98469
3198.49222	0.98427
3196.43532	0.98441
3194.37841	0.98441
3192.32150	0.98439
3190.26459	0.98491
3188.20768	0.98501
3186.15078	0.98459
3184.09387	0.98450
3182.03696	0.98459
3179.98005	0.98451
3177.92314	0.98425
3175.86623	0.98415
3173.80933	0.98456
3171.75242	0.98486
3169.69551	0.98468
3167.63860	0.98454
3165.58169	0.98448
3163.52479	0.98451
3161.46788	0.98472
3159.41097	0.98500
3157.35406	0.98514
3155.29715	0.98507
3153.24024	0.98513
3151.18334	0.98511
3149.12643	0.98451
3147.06952	0.98385
3145.01261	0.98361
3142.95570	0.98358
3140.89880	0.98362
3138.84189	0.98380
3136.78498	0.98425
3134.72807	0.98460
3132.67116	0.98447
3130.61425	0.98417
3128.55735	0.98386
3126.50044	0.98349
3124.44353	0.98357
3122.38662	0.98411
3120.32971	0.98450
3118.27281	0.98479
3116.21590	0.98490
3114.15899	0.98462
3112.10208	0.98438
3110.04517	0.98463
3107.98826	0.98510
3105.93136	0.98511
3103.87445	0.98461
3101.81754	0.98436
3099.76063	0.98444
3097.70372	0.98422
3095.64682	0.98381
3093.58991	0.98372
3091.53300	0.98407
3089.47609	0.98451
3087.41918	0.98461
3085.36227	0.98437
3083.30537	0.98427
3081.24846	0.98453
3079.19155	0.98440
3077.13464	0.98361
3075.07773	0.98299
3073.02083	0.98275
3070.96392	0.98286
3068.90701	0.98322
3066.85010	0.98357
3064.79319	0.98417
3062.73628	0.98474
3060.67938	0.98458
3058.62247	0.98404
3056.56556	0.98382
3054.50865	0.98385
3052.45174	0.98356
3050.39484	0.98323
3048.33793	0.98328
3046.28102	0.98332
3044.22411	0.98314
3042.16720	0.98294
3040.11029	0.98320
3038.05339	0.98393
3035.99648	0.98433
3033.93957	0.98409
3031.88266	0.98361
3029.82575	0.98330
3027.76885	0.98298
3025.71194	0.98261
3023.65503	0.98261
3021.59812	0.98265
3019.54121	0.98235
3017.48430	0.98204
3015.42740	0.98198
3013.37049	0.98202
3011.31358	0.98204
3009.25667	0.98213
3007.19976	0.98251
3005.14286	0.98265
3003.08595	0.98191
3001.02904	0.98111
2998.97213	0.98110
2996.91522	0.98136
2994.85831	0.98112
2992.80141	0.98099
2990.74450	0.98147
2988.68759	0.98172
2986.63068	0.98150
2984.57377	0.98150
2982.51687	0.98165
2980.45996	0.98140
2978.40305	0.98082
2976.34614	0.98046
2974.28923	0.98035
2972.23232	0.97986
2970.17542	0.97912
2968.11851	0.97875
2966.06160	0.97844
2964.00469	0.97813
2961.94778	0.97823
2959.89088	0.97825
2957.83397	0.97778
2955.77706	0.97732
2953.72015	0.97721
2951.66324	0.97733
2949.60633	0.97740
2947.54943	0.97725
2945.49252	0.97723
2943.43561	0.97738
2941.37870	0.97724
2939.32179	0.97735
2937.26489	0.97811
2935.20798	0.97859
2933.15107	0.97852
2931.09416	0.97849
2929.03725	0.97879
2926.98034	0.97931
2924.92344	0.97967
2922.86653	0.97976
2920.80962	0.97988
2918.75271	0.98025
2916.69580	0.98035
2914.63890	0.97990
2912.58199	0.97941
2910.52508	0.97946
2908.46817	0.97997
2906.41126	0.98027
2904.35435	0.98028
2902.29745	0.98018
2900.24054	0.97952
2898.18363	0.97878
2896.12672	0.97894
2894.06981	0.97939
2892.01291	0.97946
2889.95600	0.97948
2887.89909	0.97963
2885.84218	0.97961
2883.78527	0.97951
2881.72836	0.97966
2879.67146	0.97975
2877.61455	0.97951
2875.55764	0.97926
2873.50073	0.97897
2871.44382	0.97859
2869.38692	0.97865
2867.33001	0.97941
2865.27310	0.98012
2863.21619	0.98019
2861.15928	0.98001
2859.10237	0.98011
2857.04547	0.98065
2854.98856	0.98137
2852.93165	0.98183
2850.87474	0.98188
2848.81783	0.98187
2846.76093	0.98220
2844.70402	0.98255
2842.64711	0.98263
2840.59020	0.98279
2838.53329	0.98302
2836.47638	0.98305
2834.41948	0.98305
2832.36257	0.98322
2830.30566	0.98330
2828.24875	0.98325
2826.19184	0.98338
2824.13494	0.98355
2822.07803	0.98331
2820.02112	0.98282
2817.96421	0.98264
2815.90730	0.98296
2813.85039	0.98343
2811.79349	0.98355
2809.73658	0.98322
2807.67967	0.98297
2805.62276	0.98311
2803.56585	0.98336
2801.50895	0.98348
2799.45204	0.98353
2797.39513	0.98352
2795.33822	0.98342
2793.28131	0.98336
2791.22440	0.98333
2789.16750	0.98319
2787.11059	0.98305
2785.05368	0.98311
2782.99677	0.98333
2780.93986	0.98344
2778.88296	0.98332
2776.82605	0.98307
2774.76914	0.98289
2772.71223	0.98283
2770.65532	0.98269
2768.59841	0.98273
2766.54151	0.98316
2764.48460	0.98335
2762.42769	0.98306
2760.37078	0.98299
2758.31387	0.98342
2756.25697	0.98381
2754.20006	0.98365
2752.14315	0.98322
2750.08624	0.98310
2748.02933	0.98316
2745.97242	0.98318
2743.91552	0.98318
2741.85861	0.98298
2739.80170	0.98283
2737.74479	0.98294
2735.68788	0.98309
2733.63098	0.98314
2731.57407	0.98321
2729.51716	0.98338
2727.46025	0.98341
2725.40334	0.98330
2723.34643	0.98331
2721.28953	0.98350
2719.23262	0.98356
2717.17571	0.98330
2715.11880	0.98323
2713.06189	0.98349
2711.00499	0.98375
2708.94808	0.98394
2706.89117	0.98405
2704.83426	0.98419
2702.77735	0.98439
2700.72044	0.98420
2698.66354	0.98383
2696.60663	0.98383
2694.54972	0.98372
2692.49281	0.98321
2690.43590	0.98299
2688.37900	0.98319
2686.32209	0.98339
2684.26518	0.98349
2682.20827	0.98352
2680.15136	0.98348
2678.09445	0.98360
2676.03755	0.98382
2673.98064	0.98374
2671.92373	0.98348
2669.86682	0.98344
2667.80991	0.98349
2665.75301	0.98340
2663.69610	0.98308
2661.63919	0.98270
2659.58228	0.98270
2657.52537	0.98309
2655.46846	0.98346
2653.41156	0.98339
2651.35465	0.98299
2649.29774	0.98291
2647.24083	0.98335
2645.18392	0.98361
2643.12702	0.98329
2641.07011	0.98299
2639.01320	0.98306
2636.95629	0.98302
2634.89938	0.98265
2632.84247	0.98261
2630.78557	0.98325
2628.72866	0.98392
2626.67175	0.98412
2624.61484	0.98380
2622.55793	0.98364
2620.50103	0.98408
2618.44412	0.98418
2616.38721	0.98359
2614.33030	0.98320
2612.27339	0.98324
2610.21648	0.98307
2608.15958	0.98272
2606.10267	0.98292
2604.04576	0.98357
2601.98885	0.98404
2599.93194	0.98452
2597.87504	0.98495
2595.81813	0.98469
2593.76122	0.98406
2591.70431	0.98371
2589.64740	0.98359
2587.59049	0.98332
2585.53359	0.98312
2583.47668	0.98334
2581.41977	0.98371
2579.36286	0.98399
2577.30595	0.98413
2575.24905	0.98457
2573.19214	0.98504
2571.13523	0.98462
2569.07832	0.98402
2567.02141	0.98378
2564.96450	0.98351
2562.90760	0.98365
2560.85069	0.98435
2558.79378	0.98462
2556.73687	0.98422
2554.67996	0.98384
2552.62306	0.98384
2550.56615	0.98437
2548.50924	0.98490
2546.45233	0.98491
2544.39542	0.98474
2542.33851	0.98434
2540.28161	0.98364
2538.22470	0.98344
2536.16779	0.98408
2534.11088	0.98449
2532.05397	0.98415
2529.99707	0.98397
2527.94016	0.98418
2525.88325	0.98437
2523.82634	0.98441
2521.76943	0.98423
2519.71252	0.98416
2517.65562	0.98421
2515.59871	0.98355
2513.54180	0.98247
2511.48489	0.98241
2509.42798	0.98311
2507.37108	0.98347
2505.31417	0.98343
2503.25726	0.98345
2501.20035	0.98376
2499.14344	0.98437
2497.08653	0.98542
2495.02963	0.98594
2492.97272	0.98542
2490.91581	0.98496
2488.85890	0.98493
2486.80199	0.98452
2484.74509	0.98362
2482.68818	0.98299
2480.63127	0.98319
2478.57436	0.98402
2476.51745	0.98475
2474.46054	0.98507
2472.40364	0.98472
2470.34673	0.98401
2468.28982	0.98392
2466.23291	0.98418
2464.17600	0.98407
2462.11910	0.98397
2460.06219	0.98410
2458.00528	0.98426
2455.94837	0.98444
2453.89146	0.98433
2451.83455	0.98411
2449.77765	0.98414
2447.72074	0.98411
2445.66383	0.98416
2443.60692	0.98452
2441.55001	0.98480
2439.49311	0.98472
2437.43620	0.98437
2435.37929	0.98410
2433.32238	0.98388
2431.26547	0.98382
2429.20856	0.98439
2427.15166	0.98514
2425.09475	0.98535
2423.03784	0.98523
2420.98093	0.98495
2418.92402	0.98444
2416.86712	0.98395
2414.81021	0.98381
2412.75330	0.98406
2410.69639	0.98425
2408.63948	0.98440
2406.58257	0.98475
2404.52567	0.98497
2402.46876	0.98482
2400.41185	0.98485
2398.35494	0.98507
2396.29803	0.98479
2394.24113	0.98440
2392.18422	0.98425
2390.12731	0.98389
2388.07040	0.98344
2386.01349	0.98350
2383.95658	0.98396
2381.89968	0.98408
2379.84277	0.98396
2377.78586	0.98433
2375.72895	0.98501
2373.67204	0.98521
2371.61514	0.98488
2369.55823	0.98468
2367.50132	0.98453
2365.44441	0.98366
2363.38750	0.98278
2361.33059	0.98305
2359.27369	0.98401
2357.21678	0.98403
2355.15987	0.98327
2353.10296	0.98337
2351.04605	0.98410
2348.98915	0.98448
2346.93224	0.98452
2344.87533	0.98437
2342.81842	0.98415
2340.76151	0.98437
2338.70460	0.98476
2336.64770	0.98474
2334.59079	0.98497
2332.53388	0.98554
2330.47697	0.98573
2328.42006	0.98551
2326.36316	0.98533
2324.30625	0.98526
2322.24934	0.98466
2320.19243	0.98352
2318.13552	0.98285
2316.07861	0.98295
2314.02171	0.98327
2311.96480	0.98336
2309.90789	0.98328
2307.85098	0.98334
2305.79407	0.98365
2303.73717	0.98417
2301.68026	0.98468
2299.62335	0.98459
2297.56644	0.98456
2295.50953	0.98527
2293.45262	0.98540
2291.39572	0.98469
2289.33881	0.98445
2287.28190	0.98472
2285.22499	0.98437
2283.16808	0.98357
2281.11117	0.98349
2279.05427	0.98370
2276.99736	0.98369
2274.94045	0.98435
2272.88354	0.98578
2270.82663	0.98690
2268.76973	0.98694
2266.71282	0.98609
2264.65591	0.98513
2262.59900	0.98427
2260.54209	0.98328
2258.48518	0.98284
2256.42828	0.98354
2254.37137	0.98455
2252.31446	0.98471
2250.25755	0.98394
2248.20064	0.98359
2246.14374	0.98394
2244.08683	0.98424
2242.02992	0.98475
2239.97301	0.98480
2237.91610	0.98434
2235.85919	0.98429
2233.80229	0.98378
2231.74538	0.98240
2229.68847	0.98193
2227.63156	0.98288
2225.57465	0.98384
2223.51775	0.98434
2221.46084	0.98486
2219.40393	0.98600
2217.34702	0.98736
2215.29011	0.98785
2213.23320	0.98684
2211.17630	0.98543
2209.11939	0.98521
2207.06248	0.98554
2205.00557	0.98582
2202.94866	0.98573
2200.89176	0.98433
2198.83485	0.98328
2196.77794	0.98419
2194.72103	0.98541
2192.66412	0.98612
2190.60721	0.98647
2188.55031	0.98604
2186.49340	0.98478
2184.43649	0.98333
2182.37958	0.98261
2180.32267	0.98295
2178.26577	0.98343
2176.20886	0.98392
2174.15195	0.98612
2172.09504	0.98881
2170.03813	0.98930
2167.98122	0.98888
2165.92432	0.98779
2163.86741	0.98430
2161.81050	0.98122
2159.75359	0.98170
2157.69668	0.98493
2155.63978	0.98710
2153.58287	0.98648
2151.52596	0.98594
2149.46905	0.98656
2147.41214	0.98712
2145.35523	0.98680
2143.29833	0.98616
2141.24142	0.98612
2139.18451	0.98580
2137.12760	0.98565
2135.07069	0.98598
2133.01379	0.98535
2130.95688	0.98449
2128.89997	0.98425
2126.84306	0.98384
2124.78615	0.98324
2122.72924	0.98354
2120.67234	0.98519
2118.61543	0.98640
2116.55852	0.98586
2114.50161	0.98469
2112.44470	0.98368
2110.38780	0.98303
2108.33089	0.98291
2106.27398	0.98285
2104.21707	0.98271
2102.16016	0.98299
2100.10325	0.98374
2098.04635	0.98478
2095.98944	0.98597
2093.93253	0.98624
2091.87562	0.98529
2089.81871	0.98433
2087.76181	0.98373
2085.70490	0.98338
2083.64799	0.98367
2081.59108	0.98375
2079.53417	0.98339
2077.47726	0.98421
2075.42036	0.98566
2073.36345	0.98587
2071.30654	0.98558
2069.24963	0.98615
2067.19272	0.98685
2065.13582	0.98727
2063.07891	0.98802
2061.02200	0.98795
2058.96509	0.98635
2056.90818	0.98522
2054.85127	0.98508
2052.79437	0.98480
2050.73746	0.98457
2048.68055	0.98452
2046.62364	0.98515
2044.56673	0.98668
2042.50983	0.98759
2040.45292	0.98758
2038.39601	0.98782
2036.33910	0.98723
2034.28219	0.98507
2032.22528	0.98307
2030.16838	0.98200
2028.11147	0.98299
2026.05456	0.98630
2023.99765	0.98810
2021.94074	0.98661
2019.88384	0.98552
2017.82693	0.98682
2015.77002	0.98863
2013.71311	0.98961
2011.65620	0.98941
2009.59929	0.98838
2007.54239	0.98715
2005.48548	0.98561
2003.42857	0.98337
2001.37166	0.98158
1999.31475	0.98247
1997.25785	0.98483
1995.20094	0.98657
1993.14403	0.98763
1991.08712	0.98769
1989.03021	0.98746
1986.97330	0.98727
1984.91640	0.98625
1982.85949	0.98587
1980.80258	0.98586
1978.74567	0.98488
1976.68876	0.98558
1974.63186	0.98746
1972.57495	0.98871
1970.51804	0.98968
1968.46113	0.98807
1966.40422	0.98578
1964.34731	0.98627
1962.29041	0.98638
1960.23350	0.98486
1958.17659	0.98425
1956.11968	0.98436
1954.06277	0.98417
1952.00587	0.98438
1949.94896	0.98507
1947.89205	0.98581
1945.83514	0.98618
1943.77823	0.98612
1941.72132	0.98693
1939.66442	0.98819
1937.60751	0.98843
1935.55060	0.98748
1933.49369	0.98612
1931.43678	0.98609
1929.37988	0.98703
1927.32297	0.98722
1925.26606	0.98703
1923.20915	0.98622
1921.15224	0.98463
1919.09533	0.98448
1917.03843	0.98609
1914.98152	0.98703
1912.92461	0.98684
1910.86770	0.98660
1908.81079	0.98682
1906.75389	0.98719
1904.69698	0.98738
1902.64007	0.98736
1900.58316	0.98679
1898.52625	0.98622
1896.46934	0.98642
1894.41244	0.98703
1892.35553	0.98756
1890.29862	0.98778
1888.24171	0.98802
1886.18480	0.98841
1884.12790	0.98796
1882.07099	0.98684
1880.01408	0.98696
1877.95717	0.98805
1875.90026	0.98826
1873.84335	0.98785
1871.78645	0.98784
1869.72954	0.98790
1867.67263	0.98754
1865.61572	0.98713
1863.55881	0.98703
1861.50191	0.98764
1859.44500	0.98846
1857.38809	0.98842
1855.33118	0.98780
1853.27427	0.98762
1851.21736	0.98811
1849.16046	0.98860
1847.10355	0.98861
1845.04664	0.98839
1842.98973	0.98817
1840.93282	0.98813
1838.87592	0.98826
1836.81901	0.98817
1834.76210	0.98795
1832.70519	0.98783
1830.64828	0.98820
1828.59137	0.98873
1826.53447	0.98841
1824.47756	0.98750
1822.42065	0.98720
1820.36374	0.98755
1818.30683	0.98785
1816.24993	0.98786
1814.19302	0.98752
1812.13611	0.98740
1810.07920	0.98775
1808.02229	0.98770
1805.96538	0.98717
1803.90848	0.98698
1801.85157	0.98677
1799.79466	0.98617
1797.73775	0.98563
1795.68084	0.98520
1793.62394	0.98474
1791.56703	0.98411
1789.51012	0.98340
1787.45321	0.98279
1785.39630	0.98226
1783.33939	0.98123
1781.28249	0.97957
1779.22558	0.97732
1777.16867	0.97450
1775.11176	0.97098
1773.05485	0.96572
1770.99795	0.95858
1768.94104	0.95071
1766.88413	0.94137
1764.82722	0.93109
1762.77031	0.91932
1760.71340	0.90633
1758.65650	0.89531
1756.59959	0.88511
1754.54268	0.87653
1752.48577	0.86977
1750.42886	0.86257
1748.37196	0.85592
1746.31505	0.85059
1744.25814	0.84568
1742.20123	0.84175
1740.14432	0.83921
1738.08741	0.83836
1736.03051	0.83932
1733.97360	0.84159
1731.91669	0.84610
1729.85978	0.85315
1727.80287	0.86214
1725.74597	0.87208
1723.68906	0.88226
1721.63215	0.89153
1719.57524	0.90043
1717.51833	0.91019
1715.46142	0.91861
1713.40452	0.92487
1711.34761	0.93046
1709.29070	0.93514
1707.23379	0.93860
1705.17688	0.94154
1703.11998	0.94473
1701.06307	0.94814
1699.00616	0.95084
1696.94925	0.95264
1694.89234	0.95440
1692.83543	0.95616
1690.77853	0.95772
1688.72162	0.95931
1686.66471	0.96124
1684.60780	0.96300
1682.55089	0.96352
1680.49399	0.96394
1678.43708	0.96468
1676.38017	0.96526
1674.32326	0.96591
1672.26635	0.96684
1670.20944	0.96744
1668.15254	0.96755
1666.09563	0.96781
1664.03872	0.96828
1661.98181	0.96877
1659.92490	0.96918
1657.86800	0.96953
1655.81109	0.96983
1653.75418	0.96954
1651.69727	0.96860
1649.64036	0.96862
1647.58345	0.96890
1645.52655	0.96885
1643.46964	0.96896
1641.41273	0.96924
1639.35582	0.96966
1637.29891	0.97029
1635.24201	0.97084
1633.18510	0.97111
1631.12819	0.97133
1629.07128	0.97166
1627.01437	0.97209
1624.95746	0.97244
1622.90056	0.97263
1620.84365	0.97291
1618.78674	0.97340
1616.72983	0.97374
1614.67292	0.97383
1612.61602	0.97427
1610.55911	0.97488
1608.50220	0.97535
1606.44529	0.97591
1604.38838	0.97657
1602.33147	0.97690
1600.27457	0.97687
1598.21766	0.97680
1596.16075	0.97687
1594.10384	0.97722
1592.04693	0.97746
1589.99003	0.97730
1587.93312	0.97731
1585.87621	0.97784
1583.81930	0.97840
1581.76239	0.97860
1579.70548	0.97870
1577.64858	0.97862
1575.59167	0.97829
1573.53476	0.97831
1571.47785	0.97863
1569.42094	0.97903
1567.36404	0.97928
1565.30713	0.97936
1563.25022	0.97954
1561.19331	0.97986
1559.13640	0.97991
1557.07949	0.97934
1555.02259	0.97890
1552.96568	0.97891
1550.90877	0.97919
1548.85186	0.97936
1546.79495	0.97945
1544.73805	0.97971
1542.68114	0.98017
1540.62423	0.98094
1538.56732	0.98115
1536.51041	0.98058
1534.45350	0.98004
1532.39660	0.97991
1530.33969	0.98007
1528.28278	0.98017
1526.22587	0.98021
1524.16896	0.98034
1522.11206	0.98059
1520.05515	0.98069
1517.99824	0.98079
1515.94133	0.98091
1513.88442	0.98080
1511.82751	0.98073
1509.77061	0.98096
1507.71370	0.98143
1505.65679	0.98146
1503.59988	0.98124
1501.54297	0.98130
1499.48607	0.98160
1497.42916	0.98181
1495.37225	0.98157
1493.31534	0.98137
1491.25843	0.98139
1489.20152	0.98138
1487.14462	0.98134
1485.08771	0.98135
1483.03080	0.98140
1480.97389	0.98153
1478.91698	0.98150
1476.86008	0.98116
1474.80317	0.98050
1472.74626	0.97954
1470.68935	0.97857
1468.63244	0.97773
1466.57553	0.97677
1464.51863	0.97561
1462.46172	0.97480
1460.40481	0.97442
1458.34790	0.97365
1456.29099	0.97190
1454.23409	0.97073
1452.17718	0.97057
1450.12027	0.97039
1448.06336	0.96939
1446.00645	0.96789
1443.94954	0.96652
1441.89264	0.96520
1439.83573	0.96405
1437.77882	0.96303
1435.72191	0.96204
1433.66500	0.96155
1431.60810	0.96146
1429.55119	0.96186
1427.49428	0.96260
1425.43737	0.96334
1423.38046	0.96443
1421.32355	0.96579
1419.26665	0.96690
1417.20974	0.96767
1415.15283	0.96858
1413.09592	0.96981
1411.03901	0.97107
1408.98211	0.97193
1406.92520	0.97247
1404.86829	0.97291
1402.81138	0.97315
1400.75447	0.97312
1398.69756	0.97258
1396.64066	0.97118
1394.58375	0.96863
1392.52684	0.96515
1390.46993	0.96121
1388.41302	0.95638
1386.35612	0.95053
1384.29921	0.94459
1382.24230	0.93878
1380.18539	0.93322
1378.12848	0.92825
1376.07157	0.92328
1374.01467	0.91728
1371.95776	0.91125
1369.90085	0.90655
1367.84394	0.90320
1365.78703	0.90200
1363.73013	0.90423
1361.67322	0.91086
1359.61631	0.92059
1357.55940	0.93132
1355.50249	0.94184
1353.44558	0.95099
1351.38868	0.95781
1349.33177	0.96214
1347.27486	0.96496
1345.21795	0.96715
1343.16104	0.96877
1341.10414	0.97004
1339.04723	0.97100
1336.99032	0.97142
1334.93341	0.97185
1332.87650	0.97238
1330.81959	0.97234
1328.76269	0.97179
1326.70578	0.97133
1324.64887	0.97118
1322.59196	0.97106
1320.53505	0.97096
1318.47815	0.97129
1316.42124	0.97204
1314.36433	0.97271
1312.30742	0.97314
1310.25051	0.97362
1308.19360	0.97432
1306.13670	0.97498
1304.07979	0.97530
1302.02288	0.97522
1299.96597	0.97488
1297.90906	0.97435
1295.85216	0.97367
1293.79525	0.97282
1291.73834	0.97194
1289.68143	0.97120
1287.62452	0.97052
1285.56761	0.96962
1283.51071	0.96833
1281.45380	0.96663
1279.39689	0.96457
1277.33998	0.96210
1275.28307	0.95920
1273.22617	0.95602
1271.16926	0.95248
1269.11235	0.94840
1267.05544	0.94375
1264.99853	0.93861
1262.94162	0.93307
1260.88472	0.92729
1258.82781	0.92124
1256.77090	0.91482
1254.71399	0.90805
1252.65708	0.90063
1250.60018	0.89224
1248.54327	0.88344
1246.48636	0.87454
1244.42945	0.86514
1242.37254	0.85537
1240.31563	0.84575
1238.25873	0.83647
1236.20182	0.82770
1234.14491	0.81973
1232.08800	0.81277
1230.03109	0.80678
1227.97419	0.80188
1225.91728	0.79841
1223.86037	0.79620
1221.80346	0.79451
1219.74655	0.79258
1217.68964	0.79030
1215.63274	0.78810
1213.57583	0.78641
1211.51892	0.78561
1209.46201	0.78644
1207.40510	0.78984
1205.34820	0.79637
1203.29129	0.80616
1201.23438	0.81858
1199.17747	0.83240
1197.12056	0.84626
1195.06365	0.85924
1193.00675	0.87092
1190.94984	0.88095
1188.89293	0.88895
1186.83602	0.89472
1184.77911	0.89863
1182.72221	0.90123
1180.66530	0.90293
1178.60839	0.90381
1176.55148	0.90354
1174.49457	0.90250
1172.43766	0.90171
1170.38076	0.90124
1168.32385	0.90067
1166.26694	0.90034
1164.21003	0.90069
1162.15312	0.90154
1160.09622	0.90277
1158.03931	0.90454
1155.98240	0.90693
1153.92549	0.90962
1151.86858	0.91214
1149.81167	0.91470
1147.75477	0.91746
1145.69786	0.91988
1143.64095	0.92126
1141.58404	0.92167
1139.52713	0.92177
1137.47023	0.92137
1135.41332	0.92001
1133.35641	0.91842
1131.29950	0.91712
1129.24259	0.91566
1127.18568	0.91414
1125.12878	0.91323
1123.07187	0.91304
1121.01496	0.91324
1118.95805	0.91376
1116.90114	0.91451
1114.84424	0.91523
1112.78733	0.91590
1110.73042	0.91636
1108.67351	0.91656
1106.61660	0.91697
1104.55969	0.91756
1102.50279	0.91723
1100.44588	0.91534
1098.38897	0.91234
1096.33206	0.90843
1094.27515	0.90370
1092.21825	0.89875
1090.16134	0.89382
1088.10443	0.88890
1086.04752	0.88436
1083.99061	0.88046
1081.93370	0.87693
1079.87680	0.87333
1077.81989	0.86941
1075.76298	0.86504
1073.70607	0.86049
1071.64916	0.85650
1069.59226	0.85311
1067.53535	0.84998
1065.47844	0.84698
1063.42153	0.84356
1061.36462	0.83925
1059.30771	0.83433
1057.25081	0.82880
1055.19390	0.82232
1053.13699	0.81550
1051.08008	0.80935
1049.02317	0.80404
1046.96627	0.79905
1044.90936	0.79439
1042.85245	0.79048
1040.79554	0.78728
1038.73863	0.78439
1036.68172	0.78145
1034.62482	0.77890
1032.56791	0.77742
1030.51100	0.77741
1028.45409	0.77919
1026.39718	0.78254
1024.34028	0.78705
1022.28337	0.79227
1020.22646	0.79770
1018.16955	0.80343
1016.11264	0.80941
1014.05573	0.81527
1011.99883	0.82115
1009.94192	0.82708
1007.88501	0.83278
1005.82810	0.83842
1003.77119	0.84416
1001.71429	0.84959
999.65738	0.85435
997.60047	0.85827
995.54356	0.86130
993.48665	0.86376
991.42974	0.86589
989.37284	0.86759
987.31593	0.86911
985.25902	0.87098
983.20211	0.87343
981.14520	0.87628
979.08830	0.87922
977.03139	0.88222
974.97448	0.88550
972.91757	0.88905
970.86066	0.89265
968.80375	0.89613
966.74685	0.89923
964.68994	0.90144
962.63303	0.90260
960.57612	0.90324
958.51921	0.90349
956.46231	0.90329
954.40540	0.90344
952.34849	0.90442
950.29158	0.90562
948.23467	0.90663
946.17776	0.90797
944.12086	0.91009
942.06395	0.91220
940.00704	0.91342
937.95013	0.91447
935.89322	0.91589
933.83632	0.91694
931.77941	0.91712
929.72250	0.91678
927.66559	0.91635
925.60868	0.91587
923.55177	0.91525
921.49487	0.91420
919.43796	0.91283
917.38105	0.91183
915.32414	0.91109
913.26723	0.90970
911.21033	0.90755
909.15342	0.90505
907.09651	0.90208
905.03960	0.89895
902.98269	0.89615
900.92578	0.89380
898.86888	0.89239
896.81197	0.89269
894.75506	0.89493
892.69815	0.89850
890.64124	0.90247
888.58434	0.90590
886.52743	0.90802
884.47052	0.90902
882.41361	0.90963
880.35670	0.91005
878.29979	0.91038
876.24289	0.91051
874.18598	0.91054
872.12907	0.91170
870.07216	0.91436
868.01525	0.91739
865.95835	0.92041
863.90144	0.92326
861.84453	0.92528
859.78762	0.92678
857.73071	0.92800
855.67380	0.92867
853.61690	0.92972
851.55999	0.93117
849.50308	0.93169
847.44617	0.93133
845.38926	0.93110
843.33236	0.93079
841.27545	0.92979
839.21854	0.92864
837.16163	0.92815
835.10472	0.92867
833.04781	0.92982
830.99091	0.93096
828.93400	0.93236
826.87709	0.93426
824.82018	0.93598
822.76327	0.93712
820.70637	0.93831
818.64946	0.93962
816.59255	0.94037
814.53564	0.94106
812.47873	0.94208
810.42182	0.94251
808.36492	0.94233
806.30801	0.94230
804.25110	0.94259
802.19419	0.94338
800.13728	0.94432
798.08038	0.94483
796.02347	0.94531
793.96656	0.94601
791.90965	0.94681
789.85274	0.94759
787.79583	0.94791
785.73893	0.94759
783.68202	0.94707
781.62511	0.94674
779.56820	0.94696
777.51129	0.94758
775.45439	0.94768
773.39748	0.94759
771.34057	0.94843
769.28366	0.94968
767.22675	0.95025
765.16984	0.95025
763.11294	0.95007
761.05603	0.94996
758.99912	0.95028
756.94221	0.95066
754.88530	0.95065
752.82839	0.95048
750.77149	0.95011
748.71458	0.94985
746.65767	0.95044
744.60076	0.95166
742.54385	0.95262
740.48695	0.95290
738.43004	0.95272
736.37313	0.95264
734.31622	0.95280
732.25931	0.95224
730.20240	0.95094
728.14550	0.95009
726.08859	0.95001
724.03168	0.95024
721.97477	0.95023
719.91786	0.94998
717.86096	0.94991
715.80405	0.95028
713.74714	0.95066
711.69023	0.95037
709.63332	0.94967
707.57641	0.94861
705.51951	0.94662
703.46260	0.94454
701.40569	0.94363
699.34878	0.94411
697.29187	0.94504
695.23497	0.94498
693.17806	0.94437
691.12115	0.94412
689.06424	0.94383
687.00733	0.94417
684.95042	0.94531
682.89352	0.94594
680.83661	0.94616
678.77970	0.94644
676.72279	0.94621
674.66588	0.94568
672.60898	0.94583
670.55207	0.94701
668.49516	0.94813
666.43825	0.94762
664.38134	0.94716
662.32443	0.94701
660.26753	0.94632
658.21062	0.94548
656.15371	0.94444
654.09680	0.94283
652.03989	0.94113
649.98299	0.93980
647.92608	0.93879
645.86917	0.93761
643.81226	0.93689
641.75535	0.93719
639.69844	0.93762
637.64154	0.93794
635.58463	0.93800
633.52772	0.93747
631.47081	0.93704
629.41390	0.93662
627.35700	0.93476
625.30009	0.93226
623.24318	0.93082
621.18627	0.93022
619.12936	0.92975
617.07245	0.92906
615.01555	0.92794
612.95864	0.92560
610.90173	0.92144
608.84482	0.91587
606.78791	0.90972
604.73101	0.90446
602.67410	0.90107
600.61719	0.89920
598.56028	0.89930
596.50337	0.90192
594.44646	0.90555
592.38956	0.90875
590.33265	0.91193
588.27574	0.91584
586.21883	0.92032
584.16192	0.92450
582.10502	0.92741
580.04811	0.92926
577.99120	0.93114
575.93429	0.93270
573.87738	0.93310
571.82047	0.93334
569.76357	0.93384
567.70666	0.93384
565.64975	0.93360
563.59284	0.93295
561.53593	0.93172
559.47903	0.93043
557.42212	0.92884
555.36521	0.92780
553.30830	0.92795
551.25139	0.92880
549.19448	0.93066
547.13758	0.93314
545.08067	0.93421
543.02376	0.93405
540.96685	0.93496
538.90994	0.93699
536.85304	0.93894
534.79613	0.93957
532.73922	0.93844
530.68231	0.93775
528.62540	0.93810
526.56849	0.93684
524.51159	0.93516
522.45468	0.93596
520.39777	0.93742
518.34086	0.93862
516.28395	0.93928
514.22705	0.93821
512.17014	0.93746
510.11323	0.93891
508.05632	0.94066
505.99941	0.94106
503.94250	0.94019
501.88560	0.93771
499.82869	0.93465
497.77178	0.93247
495.71487	0.93075
493.65796	0.92959
491.60106	0.92966
489.54415	0.93006
487.48724	0.93041
485.43033	0.93053
483.37342	0.92913
481.31651	0.92718
479.25961	0.92610
477.20270	0.92570
475.14579	0.92597
473.08888	0.92683
471.03197	0.92772
468.97507	0.92853
466.91816	0.92933
464.86125	0.93001
462.80434	0.92926
460.74743	0.92696
458.69052	0.92544
456.63362	0.92475
454.57671	0.92416
452.51980	0.92322
450.46289	0.92127
448.40598	0.91981
446.34908	0.91881
444.29217	0.91843
442.23526	0.92041
440.17835	0.92289
438.12144	0.92516
436.06453	0.92829
434.00763	0.93019
431.95072	0.93009
429.89381	0.92950
427.83690	0.92774
425.77999	0.92447
423.72309	0.92204
421.66618	0.92200
419.60927	0.92205
417.55236	0.92065
415.49545	0.92087
413.43854	0.92174
411.38164	0.92279
409.32473	0.92517
407.26782	0.92565
405.21091	0.92327
403.15400	0.91801
401.09710	0.90773
399.04019	0.89845
