3996.57260	0.98822
3994.51569	0.98754
3992.45878	0.98737
3990.40188	0.98789
3988.34497	0.98861
3986.28806	0.98907
3984.23115	0.98894
3982.17424	0.98850
3980.11733	0.98810
3978.06043	0.98775
3976.00352	0.98744
3973.94661	0.98726
3971.88970	0.98739
3969.83279	0.98808
3967.77589	0.98894
3965.71898	0.98905
3963.66207	0.98838
3961.60516	0.98827
3959.54825	0.98917
3957.49134	0.98988
3955.43444	0.98986
3953.37753	0.98914
3951.32062	0.98787
3949.26371	0.98705
3947.20680	0.98714
3945.14990	0.98763
3943.09299	0.98759
3941.03608	0.98708
3938.97917	0.98732
3936.92226	0.98811
3934.86535	0.98849
3932.80845	0.98886
3930.75154	0.98960
3928.69463	0.98969
3926.63772	0.98923
3924.58081	0.98898
3922.52391	0.98874
3920.46700	0.98858
3918.41009	0.98850
3916.35318	0.98807
3914.29627	0.98776
3912.23936	0.98793
3910.18246	0.98821
3908.12555	0.98859
3906.06864	0.98900
3904.01173	0.98861
3901.95482	0.98767
3899.89792	0.98721
3897.84101	0.98751
3895.78410	0.98821
3893.72719	0.98853
3891.67028	0.98831
3889.61337	0.98809
3887.55647	0.98799
3885.49956	0.98786
3883.44265	0.98814
3881.38574	0.98897
3879.32883	0.98963
3877.27193	0.98993
3875.21502	0.98975
3873.15811	0.98874
3871.10120	0.98766
3869.04429	0.98735
3866.98738	0.98776
3864.93048	0.98812
3862.87357	0.98806
3860.81666	0.98827
3858.75975	0.98915
3856.70284	0.99060
3854.64594	0.99180
3852.58903	0.99060
3850.53212	0.98899
3848.47521	0.98896
3846.41830	0.98915
3844.36139	0.98904
3842.30449	0.98899
3840.24758	0.98879
3838.19067	0.98821
3836.13376	0.98768
3834.07685	0.98759
3832.01995	0.98779
3829.96304	0.98794
3827.90613	0.98783
3825.84922	0.98771
3823.79231	0.98778
3821.73540	0.98787
3819.67850	0.98827
3817.62159	0.98872
3815.56468	0.98839
3813.50777	0.98811
3811.45086	0.98873
3809.39396	0.98949
3807.33705	0.98961
3805.28014	0.98933
3803.22323	0.98954
3801.16632	0.98978
3799.10941	0.98947
3797.05251	0.98895
3794.99560	0.98825
3792.93869	0.98803
3790.88178	0.98844
3788.82487	0.98873
3786.76796	0.98868
3784.71106	0.98844
3782.65415	0.98829
3780.59724	0.98819
3778.54033	0.98816
3776.48342	0.98855
3774.42652	0.98897
3772.36961	0.98899
3770.31270	0.98898
3768.25579	0.98874
3766.19888	0.98813
3764.14197	0.98830
3762.08507	0.98909
3760.02816	0.98927
3757.97125	0.98898
3755.91434	0.98893
3753.85743	0.98939
3751.80053	0.99055
3749.74362	0.99076
3747.68671	0.98959
3745.62980	0.98903
3743.57289	0.98930
3741.51598	0.98908
3739.45908	0.98883
3737.40217	0.98926
3735.34526	0.98979
3733.28835	0.98963
3731.23144	0.98905
3729.17454	0.98857
3727.11763	0.98820
3725.06072	0.98799
3723.00381	0.98854
3720.94690	0.98955
3718.88999	0.98994
3716.83309	0.98993
3714.77618	0.98993
3712.71927	0.98930
3710.66236	0.98856
3708.60545	0.98867
3706.54855	0.98894
3704.49164	0.98952
3702.43473	0.98988
3700.37782	0.98908
3698.32091	0.98827
3696.26400	0.98841
3694.20710	0.98879
3692.15019	0.98859
3690.09328	0.98846
3688.03637	0.98888
3685.97946	0.98883
3683.92256	0.98898
3681.86565	0.98960
3679.80874	0.98932
3677.75183	0.98777
3675.69492	0.98660
3673.63801	0.98771
3671.58111	0.98943
3669.52420	0.98969
3667.46729	0.98910
3665.41038	0.98886
3663.35347	0.98856
3661.29657	0.98819
3659.23966	0.98771
3657.18275	0.98724
3655.12584	0.98707
3653.06893	0.98678
3651.01202	0.98658
3648.95512	0.98682
3646.89821	0.98689
3644.84130	0.98685
3642.78439	0.98704
3640.72748	0.98715
3638.67058	0.98677
3636.61367	0.98619
3634.55676	0.98601
3632.49985	0.98624
3630.44294	0.98630
3628.38603	0.98599
3626.32913	0.98569
3624.27222	0.98522
3622.21531	0.98472
3620.15840	0.98440
3618.10149	0.98379
3616.04459	0.98356
3613.98768	0.98392
3611.93077	0.98386
3609.87386	0.98347
3607.81695	0.98334
3605.76004	0.98335
3603.70314	0.98310
3601.64623	0.98292
3599.58932	0.98274
3597.53241	0.98180
3595.47550	0.98060
3593.41860	0.97985
3591.36169	0.97925
3589.30478	0.97829
3587.24787	0.97751
3585.19096	0.97753
3583.13405	0.97744
3581.07715	0.97694
3579.02024	0.97639
3576.96333	0.97577
3574.90642	0.97484
3572.84951	0.97369
3570.79261	0.97285
3568.73570	0.97240
3566.67879	0.97199
3564.62188	0.97144
3562.56497	0.97061
3560.50806	0.96953
3558.45116	0.96873
3556.39425	0.96785
3554.33734	0.96670
3552.28043	0.96606
3550.22352	0.96578
3548.16662	0.96545
3546.10971	0.96492
3544.05280	0.96363
3541.99589	0.96215
3539.93898	0.96154
3537.88207	0.96127
3535.82517	0.96052
3533.76826	0.95956
3531.71135	0.95840
3529.65444	0.95718
3527.59753	0.95628
3525.54063	0.95577
3523.48372	0.95514
3521.42681	0.95396
3519.36990	0.95323
3517.31299	0.95343
3515.25608	0.95299
3513.19918	0.95114
3511.14227	0.94960
3509.08536	0.94925
3507.02845	0.94930
3504.97154	0.94904
3502.91464	0.94797
3500.85773	0.94693
3498.80082	0.94659
3496.74391	0.94633
3494.68700	0.94602
3492.63009	0.94569
3490.57319	0.94509
3488.51628	0.94430
3486.45937	0.94365
3484.40246	0.94311
3482.34555	0.94265
3480.28865	0.94242
3478.23174	0.94225
3476.17483	0.94225
3474.11792	0.94269
3472.06101	0.94297
3470.00410	0.94237
3467.94720	0.94127
3465.89029	0.94082
3463.83338	0.94151
3461.77647	0.94236
3459.71956	0.94225
3457.66266	0.94164
3455.60575	0.94174
3453.54884	0.94243
3451.49193	0.94321
3449.43502	0.94374
3447.37811	0.94353
3445.32121	0.94327
3443.26430	0.94363
3441.20739	0.94405
3439.15048	0.94389
3437.09357	0.94348
3435.03667	0.94366
3432.97976	0.94441
3430.92285	0.94520
3428.86594	0.94578
3426.80903	0.94605
3424.75212	0.94585
3422.69522	0.94516
3420.63831	0.94464
3418.58140	0.94512
3416.52449	0.94610
3414.46758	0.94684
3412.41068	0.94759
3410.35377	0.94810
3408.29686	0.94817
3406.23995	0.94840
3404.18304	0.94899
3402.12613	0.94944
3400.06923	0.94939
3398.01232	0.94933
3395.95541	0.94991
3393.89850	0.95065
3391.84159	0.95096
3389.78469	0.95112
3387.72778	0.95163
3385.67087	0.95234
3383.61396	0.95271
3381.55705	0.95277
3379.50014	0.95281
3377.44324	0.95318
3375.38633	0.95385
3373.32942	0.95422
3371.27251	0.95411
3369.21560	0.95436
3367.15870	0.95519
3365.10179	0.95569
3363.04488	0.95584
3360.98797	0.95616
3358.93106	0.95641
3356.87415	0.95637
3354.81725	0.95651
3352.76034	0.95695
3350.70343	0.95700
3348.64652	0.95671
3346.58961	0.95716
3344.53271	0.95859
3342.47580	0.95971
3340.41889	0.96002
3338.36198	0.96035
3336.30507	0.96077
3334.24816	0.96090
3332.19126	0.96113
3330.13435	0.96182
3328.07744	0.96246
3326.02053	0.96250
3323.96362	0.96218
3321.90672	0.96246
3319.84981	0.96345
3317.79290	0.96419
3315.73599	0.96442
3313.67908	0.96467
3311.62217	0.96495
3309.56527	0.96504
3307.50836	0.96484
3305.45145	0.96484
3303.39454	0.96539
3301.33763	0.96615
3299.28073	0.96668
3297.22382	0.96681
3295.16691	0.96709
3293.11000	0.96769
3291.05309	0.96809
3288.99618	0.96834
3286.93928	0.96851
3284.88237	0.96841
3282.82546	0.96850
3280.76855	0.96928
3278.71164	0.96999
3276.65474	0.96974
3274.59783	0.96926
3272.54092	0.96968
3270.48401	0.97061
3268.42710	0.97139
3266.37019	0.97171
3264.31329	0.97156
3262.25638	0.97166
3260.19947	0.97189
3258.14256	0.97165
3256.08565	0.97169
3254.02875	0.97230
3251.97184	0.97272
3249.91493	0.97271
3247.85802	0.97255
3245.80111	0.97262
3243.74420	0.97284
3241.68730	0.97301
3239.63039	0.97346
3237.57348	0.97410
3235.51657	0.97450
3233.45966	0.97464
3231.40276	0.97466
3229.34585	0.97482
3227.28894	0.97538
3225.23203	0.97625
3223.17512	0.97670
3221.11821	0.97657
3219.06131	0.97669
3217.00440	0.97713
3214.94749	0.97709
3212.89058	0.97661
3210.83367	0.97658
3208.77677	0.97720
3206.71986	0.97782
3204.66295	0.97801
3202.60604	0.97806
3200.54913	0.97848
3198.49222	0.97900
3196.43532	0.97894
3194.37841	0.97829
3192.32150	0.97787
3190.26459	0.97821
3188.20768	0.97878
3186.15078	0.97887
3184.09387	0.97857
3182.03696	0.97856
3179.98005	0.97905
3177.92314	0.97933
3175.86623	0.97933
3173.80933	0.97983
3171.75242	0.98030
3169.69551	0.98008
3167.63860	0.97973
3165.58169	0.97978
3163.52479	0.98035
3161.46788	0.98094
3159.41097	0.98103
3157.35406	0.98091
3155.29715	0.98106
3153.24024	0.98165
3151.18334	0.98196
3149.12643	0.98134
3147.06952	0.98082
3145.01261	0.98130
3142.95570	0.98180
3140.89880	0.98129
3138.84189	0.98058
3136.78498	0.98066
3134.72807	0.98083
3132.67116	0.98098
3130.61425	0.98165
3128.55735	0.98198
3126.50044	0.98165
3124.44353	0.98148
3122.38662	0.98169
3120.32971	0.98230
3118.27281	0.98266
3116.21590	0.98216
3114.15899	0.98201
3112.10208	0.98274
3110.04517	0.98322
3107.98826	0.98335
3105.93136	0.98345
3103.87445	0.98296
3101.81754	0.98221
3099.76063	0.98232
3097.70372	0.98303
3095.64682	0.98316
3093.58991	0.98277
3091.53300	0.98239
3089.47609	0.98214
3087.41918	0.98239
3085.36227	0.98296
3083.30537	0.98332
3081.24846	0.98351
3079.19155	0.98351
3077.13464	0.98344
3075.07773	0.98351
3073.02083	0.98356
3070.96392	0.98354
3068.90701	0.98341
3066.85010	0.98338
3064.79319	0.98370
3062.73628	0.98389
3060.67938	0.98384
3058.62247	0.98356
3056.56556	0.98292
3054.50865	0.98271
3052.45174	0.98306
3050.39484	0.98337
3048.33793	0.98373
3046.28102	0.98394
3044.22411	0.98395
3042.16720	0.98408
3040.11029	0.98382
3038.05339	0.98320
3035.99648	0.98309
3033.93957	0.98340
3031.88266	0.98363
3029.82575	0.98376
3027.76885	0.98355
3025.71194	0.98292
3023.65503	0.98247
3021.59812	0.98233
3019.54121	0.98219
3017.48430	0.98205
3015.42740	0.98193
3013.37049	0.98196
3011.31358	0.98202
3009.25667	0.98206
3007.19976	0.98216
3005.14286	0.98217
3003.08595	0.98205
3001.02904	0.98170
2998.97213	0.98127
2996.91522	0.98118
2994.85831	0.98096
2992.80141	0.98030
2990.74450	0.97995
2988.68759	0.97992
2986.63068	0.97976
2984.57377	0.97960
2982.51687	0.97945
2980.45996	0.97905
2978.40305	0.97871
2976.34614	0.97874
2974.28923	0.97852
2972.23232	0.97763
2970.17542	0.97644
2968.11851	0.97547
2966.06160	0.97482
2964.00469	0.97423
2961.94778	0.97362
2959.89088	0.97319
2957.83397	0.97271
2955.77706	0.97212
2953.72015	0.97173
2951.66324	0.97151
2949.60633	0.97116
2947.54943	0.97053
2945.49252	0.96995
2943.43561	0.96975
2941.37870	0.96971
2939.32179	0.96963
2937.26489	0.96926
2935.20798	0.96869
2933.15107	0.96843
2931.09416	0.96845
2929.03725	0.96847
2926.98034	0.96856
2924.92344	0.96888
2922.86653	0.96910
2920.80962	0.96881
2918.75271	0.96830
2916.69580	0.96811
2914.63890	0.96852
2912.58199	0.96894
2910.52508	0.96877
2908.46817	0.96847
2906.41126	0.96840
2904.35435	0.96825
2902.29745	0.96795
2900.24054	0.96761
2898.18363	0.96741
2896.12672	0.96734
2894.06981	0.96722
2892.01291	0.96697
2889.95600	0.96684
2887.89909	0.96691
2885.84218	0.96689
2883.78527	0.96679
2881.72836	0.96677
2879.67146	0.96701
2877.61455	0.96745
2875.55764	0.96772
2873.50073	0.96789
2871.44382	0.96834
2869.38692	0.96929
2867.33001	0.97047
2865.27310	0.97142
2863.21619	0.97201
2861.15928	0.97260
2859.10237	0.97347
2857.04547	0.97425
2854.98856	0.97472
2852.93165	0.97527
2850.87474	0.97606
2848.81783	0.97677
2846.76093	0.97758
2844.70402	0.97851
2842.64711	0.97918
2840.59020	0.97971
2838.53329	0.98021
2836.47638	0.98059
2834.41948	0.98077
2832.36257	0.98052
2830.30566	0.98005
2828.24875	0.98032
2826.19184	0.98112
2824.13494	0.98147
2822.07803	0.98145
2820.02112	0.98150
2817.96421	0.98167
2815.90730	0.98179
2813.85039	0.98166
2811.79349	0.98164
2809.73658	0.98183
2807.67967	0.98194
2805.62276	0.98205
2803.56585	0.98205
2801.50895	0.98193
2799.45204	0.98207
2797.39513	0.98255
2795.33822	0.98301
2793.28131	0.98324
2791.22440	0.98340
2789.16750	0.98345
2787.11059	0.98348
2785.05368	0.98370
2782.99677	0.98394
2780.93986	0.98391
2778.88296	0.98345
2776.82605	0.98297
2774.76914	0.98308
2772.71223	0.98361
2770.65532	0.98406
2768.59841	0.98427
2766.54151	0.98425
2764.48460	0.98405
2762.42769	0.98385
2760.37078	0.98365
2758.31387	0.98347
2756.25697	0.98366
2754.20006	0.98411
2752.14315	0.98413
2750.08624	0.98388
2748.02933	0.98395
2745.97242	0.98419
2743.91552	0.98465
2741.85861	0.98515
2739.80170	0.98509
2737.74479	0.98470
2735.68788	0.98447
2733.63098	0.98444
2731.57407	0.98475
2729.51716	0.98497
2727.46025	0.98448
2725.40334	0.98381
2723.34643	0.98374
2721.28953	0.98409
2719.23262	0.98417
2717.17571	0.98383
2715.11880	0.98364
2713.06189	0.98401
2711.00499	0.98463
2708.94808	0.98489
2706.89117	0.98466
2704.83426	0.98453
2702.77735	0.98474
2700.72044	0.98504
2698.66354	0.98525
2696.60663	0.98512
2694.54972	0.98463
2692.49281	0.98432
2690.43590	0.98452
2688.37900	0.98477
2686.32209	0.98484
2684.26518	0.98503
2682.20827	0.98538
2680.15136	0.98549
2678.09445	0.98520
2676.03755	0.98487
2673.98064	0.98468
2671.92373	0.98467
2669.86682	0.98497
2667.80991	0.98535
2665.75301	0.98542
2663.69610	0.98519
2661.63919	0.98496
2659.58228	0.98488
2657.52537	0.98495
2655.46846	0.98523
2653.41156	0.98552
2651.35465	0.98546
2649.29774	0.98535
2647.24083	0.98562
2645.18392	0.98576
2643.12702	0.98533
2641.07011	0.98485
2639.01320	0.98474
2636.95629	0.98493
2634.89938	0.98514
2632.84247	0.98522
2630.78557	0.98518
2628.72866	0.98525
2626.67175	0.98565
2624.61484	0.98599
2622.55793	0.98586
2620.50103	0.98553
2618.44412	0.98565
2616.38721	0.98601
2614.33030	0.98592
2612.27339	0.98567
2610.21648	0.98589
2608.15958	0.98633
2606.10267	0.98679
2604.04576	0.98721
2601.98885	0.98691
2599.93194	0.98623
2597.87504	0.98605
2595.81813	0.98634
2593.76122	0.98687
2591.70431	0.98742
2589.64740	0.98760
2587.59049	0.98715
2585.53359	0.98676
2583.47668	0.98703
2581.41977	0.98734
2579.36286	0.98740
2577.30595	0.98734
2575.24905	0.98705
2573.19214	0.98695
2571.13523	0.98717
2569.07832	0.98714
2567.02141	0.98674
2564.96450	0.98643
2562.90760	0.98656
2560.85069	0.98714
2558.79378	0.98766
2556.73687	0.98779
2554.67996	0.98812
2552.62306	0.98856
2550.56615	0.98857
2548.50924	0.98821
2546.45233	0.98796
2544.39542	0.98845
2542.33851	0.98895
2540.28161	0.98864
2538.22470	0.98793
2536.16779	0.98743
2534.11088	0.98719
2532.05397	0.98705
2529.99707	0.98720
2527.94016	0.98754
2525.88325	0.98756
2523.82634	0.98767
2521.76943	0.98819
2519.71252	0.98851
2517.65562	0.98835
2515.59871	0.98804
2513.54180	0.98805
2511.48489	0.98809
2509.42798	0.98792
2507.37108	0.98826
2505.31417	0.98874
2503.25726	0.98855
2501.20035	0.98806
2499.14344	0.98790
2497.08653	0.98797
2495.02963	0.98767
2492.97272	0.98727
2490.91581	0.98734
2488.85890	0.98759
2486.80199	0.98794
2484.74509	0.98809
2482.68818	0.98748
2480.63127	0.98699
2478.57436	0.98721
2476.51745	0.98737
2474.46054	0.98721
2472.40364	0.98741
2470.34673	0.98765
2468.28982	0.98717
2466.23291	0.98701
2464.17600	0.98782
2462.11910	0.98839
2460.06219	0.98834
2458.00528	0.98856
2455.94837	0.98897
2453.89146	0.98885
2451.83455	0.98842
2449.77765	0.98829
2447.72074	0.98864
2445.66383	0.98895
2443.60692	0.98900
2441.55001	0.98924
2439.49311	0.98972
2437.43620	0.98977
2435.37929	0.98912
2433.32238	0.98845
2431.26547	0.98862
2429.20856	0.98917
2427.15166	0.98878
2425.09475	0.98777
2423.03784	0.98731
2420.98093	0.98748
2418.92402	0.98768
2416.86712	0.98778
2414.81021	0.98797
2412.75330	0.98815
2410.69639	0.98830
2408.63948	0.98868
2406.58257	0.98910
2404.52567	0.98908
2402.46876	0.98872
2400.41185	0.98847
2398.35494	0.98853
2396.29803	0.98880
2394.24113	0.98917
2392.18422	0.98930
2390.12731	0.98911
2388.07040	0.98895
2386.01349	0.98888
2383.95658	0.98893
2381.89968	0.98907
2379.84277	0.98882
2377.78586	0.98845
2375.72895	0.98867
2373.67204	0.98894
2371.61514	0.98870
2369.55823	0.98845
2367.50132	0.98874
2365.44441	0.98949
2363.38750	0.98984
2361.33059	0.98930
2359.27369	0.98818
2357.21678	0.98743
2355.15987	0.98764
2353.10296	0.98823
2351.04605	0.98820
2348.98915	0.98750
2346.93224	0.98684
2344.87533	0.98701
2342.81842	0.98816
2340.76151	0.98892
2338.70460	0.98866
2336.64770	0.98859
2334.59079	0.98921
2332.53388	0.98972
2330.47697	0.98977
2328.42006	0.98924
2326.36316	0.98805
2324.30625	0.98724
2322.24934	0.98783
2320.19243	0.98925
2318.13552	0.99031
2316.07861	0.99044
2314.02171	0.98956
2311.96480	0.98856
2309.90789	0.98836
2307.85098	0.98841
2305.79407	0.98815
2303.73717	0.98794
2301.68026	0.98798
2299.62335	0.98806
2297.56644	0.98797
2295.50953	0.98818
2293.45262	0.98882
2291.39572	0.98886
2289.33881	0.98841
2287.28190	0.98835
2285.22499	0.98822
2283.16808	0.98757
2281.11117	0.98733
2279.05427	0.98779
2276.99736	0.98801
2274.94045	0.98809
2272.88354	0.98865
2270.82663	0.98898
2268.76973	0.98874
2266.71282	0.98917
2264.65591	0.98993
2262.59900	0.98938
2260.54209	0.98823
2258.48518	0.98783
2256.42828	0.98792
2254.37137	0.98801
2252.31446	0.98816
2250.25755	0.98865
2248.20064	0.98930
2246.14374	0.98946
2244.08683	0.98885
2242.02992	0.98829
2239.97301	0.98871
2237.91610	0.98947
2235.85919	0.98973
2233.80229	0.98950
2231.74538	0.98920
2229.68847	0.98934
2227.63156	0.98945
2225.57465	0.98911
2223.51775	0.98929
2221.46084	0.99071
2219.40393	0.99264
2217.34702	0.99376
2215.29011	0.99286
2213.23320	0.99083
2211.17630	0.99006
2209.11939	0.99091
2207.06248	0.99182
2205.00557	0.99184
2202.94866	0.99148
2200.89176	0.99105
2198.83485	0.99085
2196.77794	0.99205
2194.72103	0.99417
2192.66412	0.99409
2190.60721	0.99104
2188.55031	0.98885
2186.49340	0.98950
2184.43649	0.98961
2182.37958	0.98763
2180.32267	0.98701
2178.26577	0.98939
2176.20886	0.99220
2174.15195	0.99277
2172.09504	0.99178
2170.03813	0.99095
2167.98122	0.98967
2165.92432	0.98824
2163.86741	0.98874
2161.81050	0.99049
2159.75359	0.99202
2157.69668	0.99326
2155.63978	0.99367
2153.58287	0.99341
2151.52596	0.99232
2149.46905	0.99096
2147.41214	0.99050
2145.35523	0.99065
2143.29833	0.99111
2141.24142	0.99092
2139.18451	0.99030
2137.12760	0.99073
2135.07069	0.99126
2133.01379	0.99075
2130.95688	0.98995
2128.89997	0.98971
2126.84306	0.98948
2124.78615	0.98892
2122.72924	0.98898
2120.67234	0.98922
2118.61543	0.98895
2116.55852	0.98889
2114.50161	0.98894
2112.44470	0.98858
2110.38780	0.98786
2108.33089	0.98730
2106.27398	0.98781
2104.21707	0.98905
2102.16016	0.98927
2100.10325	0.98839
2098.04635	0.98787
2095.98944	0.98809
2093.93253	0.98820
2091.87562	0.98756
2089.81871	0.98782
2087.76181	0.99003
2085.70490	0.99157
2083.64799	0.99119
2081.59108	0.99033
2079.53417	0.99010
2077.47726	0.99083
2075.42036	0.99178
2073.36345	0.99217
2071.30654	0.99142
2069.24963	0.98987
2067.19272	0.98940
2065.13582	0.99017
2063.07891	0.99075
2061.02200	0.99100
2058.96509	0.99128
2056.90818	0.99094
2054.85127	0.98943
2052.79437	0.98837
2050.73746	0.98910
2048.68055	0.99063
2046.62364	0.99157
2044.56673	0.99168
2042.50983	0.99055
2040.45292	0.98818
2038.39601	0.98766
2036.33910	0.98959
2034.28219	0.99060
2032.22528	0.99056
2030.16838	0.99080
2028.11147	0.99169
2026.05456	0.99332
2023.99765	0.99434
2021.94074	0.99409
2019.88384	0.99354
2017.82693	0.99268
2015.77002	0.99199
2013.71311	0.99232
2011.65620	0.99259
2009.59929	0.99252
2007.54239	0.99239
2005.48548	0.99182
2003.42857	0.99196
2001.37166	0.99347
1999.31475	0.99463
1997.25785	0.99455
1995.20094	0.99374
1993.14403	0.99339
1991.08712	0.99348
1989.03021	0.99235
1986.97330	0.99050
1984.91640	0.98962
1982.85949	0.99005
1980.80258	0.99050
1978.74567	0.99018
1976.68876	0.98978
1974.63186	0.98976
1972.57495	0.99061
1970.51804	0.99213
1968.46113	0.99269
1966.40422	0.99235
1964.34731	0.99269
1962.29041	0.99260
1960.23350	0.99128
1958.17659	0.98989
1956.11968	0.98951
1954.06277	0.99081
1952.00587	0.99260
1949.94896	0.99345
1947.89205	0.99301
1945.83514	0.99163
1943.77823	0.99099
1941.72132	0.99152
1939.66442	0.99135
1937.60751	0.99050
1935.55060	0.99040
1933.49369	0.99111
1931.43678	0.99179
1929.37988	0.99220
1927.32297	0.99205
1925.26606	0.99135
1923.20915	0.99076
1921.15224	0.99025
1919.09533	0.99000
1917.03843	0.99034
1914.98152	0.99053
1912.92461	0.99071
1910.86770	0.99168
1908.81079	0.99246
1906.75389	0.99142
1904.69698	0.98963
1902.64007	0.98889
1900.58316	0.98895
1898.52625	0.98961
1896.46934	0.99031
1894.41244	0.99001
1892.35553	0.99001
1890.29862	0.99081
1888.24171	0.99111
1886.18480	0.99131
1884.12790	0.99174
1882.07099	0.99159
1880.01408	0.99115
1877.95717	0.99086
1875.90026	0.99065
1873.84335	0.99064
1871.78645	0.99090
1869.72954	0.99114
1867.67263	0.99099
1865.61572	0.99065
1863.55881	0.99055
1861.50191	0.99061
1859.44500	0.99048
1857.38809	0.99043
1855.33118	0.99053
1853.27427	0.99079
1851.21736	0.99123
1849.16046	0.99166
1847.10355	0.99165
1845.04664	0.99115
1842.98973	0.99070
1840.93282	0.99011
1838.87592	0.98955
1836.81901	0.98926
1834.76210	0.98921
1832.70519	0.98930
1830.64828	0.98926
1828.59137	0.98916
1826.53447	0.98915
1824.47756	0.98886
1822.42065	0.98853
1820.36374	0.98849
1818.30683	0.98852
1816.24993	0.98847
1814.19302	0.98817
1812.13611	0.98795
1810.07920	0.98789
1808.02229	0.98773
1805.96538	0.98733
1803.90848	0.98678
1801.85157	0.98620
1799.79466	0.98580
1797.73775	0.98544
1795.68084	0.98506
1793.62394	0.98483
1791.56703	0.98423
1789.51012	0.98327
1787.45321	0.98226
1785.39630	0.98094
1783.33939	0.97928
1781.28249	0.97761
1779.22558	0.97569
1777.16867	0.97348
1775.11176	0.97084
1773.05485	0.96661
1770.99795	0.96031
1768.94104	0.95246
1766.88413	0.94308
1764.82722	0.93286
1762.77031	0.92003
1760.71340	0.90375
1758.65650	0.88799
1756.59959	0.87221
1754.54268	0.85768
1752.48577	0.84519
1750.42886	0.83222
1748.37196	0.82030
1746.31505	0.81139
1744.25814	0.80470
1742.20123	0.79991
1740.14432	0.79651
1738.08741	0.79461
1736.03051	0.79480
1733.97360	0.79634
1731.91669	0.79885
1729.85978	0.80263
1727.80287	0.80786
1725.74597	0.81466
1723.68906	0.82336
1721.63215	0.83266
1719.57524	0.84252
1717.51833	0.85530
1715.46142	0.86955
1713.40452	0.88218
1711.34761	0.89360
1709.29070	0.90415
1707.23379	0.91444
1705.17688	0.92445
1703.11998	0.93209
1701.06307	0.93866
1699.00616	0.94551
1696.94925	0.95064
1694.89234	0.95484
1692.83543	0.95805
1690.77853	0.96044
1688.72162	0.96245
1686.66471	0.96407
1684.60780	0.96582
1682.55089	0.96758
1680.49399	0.96900
1678.43708	0.97012
1676.38017	0.97066
1674.32326	0.97079
1672.26635	0.97124
1670.20944	0.97187
1668.15254	0.97228
1666.09563	0.97262
1664.03872	0.97282
1661.98181	0.97260
1659.92490	0.97198
1657.86800	0.97151
1655.81109	0.97125
1653.75418	0.96992
1651.69727	0.96771
1649.64036	0.96724
1647.58345	0.96745
1645.52655	0.96802
1643.46964	0.96884
1641.41273	0.96968
1639.35582	0.97067
1637.29891	0.97161
1635.24201	0.97248
1633.18510	0.97344
1631.12819	0.97438
1629.07128	0.97516
1627.01437	0.97560
1624.95746	0.97568
1622.90056	0.97562
1620.84365	0.97579
1618.78674	0.97633
1616.72983	0.97684
1614.67292	0.97711
1612.61602	0.97742
1610.55911	0.97763
1608.50220	0.97774
1606.44529	0.97800
1604.38838	0.97825
1602.33147	0.97822
1600.27457	0.97831
1598.21766	0.97861
1596.16075	0.97880
1594.10384	0.97879
1592.04693	0.97866
1589.99003	0.97855
1587.93312	0.97858
1585.87621	0.97867
1583.81930	0.97860
1581.76239	0.97841
1579.70548	0.97827
1577.64858	0.97824
1575.59167	0.97841
1573.53476	0.97884
1571.47785	0.97942
1569.42094	0.97989
1567.36404	0.97997
1565.30713	0.97978
1563.25022	0.97966
1561.19331	0.97953
1559.13640	0.97918
1557.07949	0.97936
1555.02259	0.98012
1552.96568	0.98082
1550.90877	0.98131
1548.85186	0.98162
1546.79495	0.98198
1544.73805	0.98235
1542.68114	0.98226
1540.62423	0.98159
1538.56732	0.98142
1536.51041	0.98170
1534.45350	0.98171
1532.39660	0.98177
1530.33969	0.98206
1528.28278	0.98245
1526.22587	0.98312
1524.16896	0.98355
1522.11206	0.98328
1520.05515	0.98313
1517.99824	0.98319
1515.94133	0.98266
1513.88442	0.98231
1511.82751	0.98260
1509.77061	0.98272
1507.71370	0.98229
1505.65679	0.98201
1503.59988	0.98225
1501.54297	0.98242
1499.48607	0.98232
1497.42916	0.98210
1495.37225	0.98200
1493.31534	0.98189
1491.25843	0.98140
1489.20152	0.98050
1487.14462	0.97973
1485.08771	0.97931
1483.03080	0.97908
1480.97389	0.97861
1478.91698	0.97760
1476.86008	0.97626
1474.80317	0.97474
1472.74626	0.97251
1470.68935	0.97006
1468.63244	0.96859
1466.57553	0.96709
1464.51863	0.96462
1462.46172	0.96233
1460.40481	0.96100
1458.34790	0.95949
1456.29099	0.95675
1454.23409	0.95453
1452.17718	0.95309
1450.12027	0.95144
1448.06336	0.94937
1446.00645	0.94735
1443.94954	0.94558
1441.89264	0.94370
1439.83573	0.94190
1437.77882	0.94007
1435.72191	0.93789
1433.66500	0.93645
1431.60810	0.93598
1429.55119	0.93605
1427.49428	0.93645
1425.43737	0.93728
1423.38046	0.93845
1421.32355	0.93937
1419.26665	0.93978
1417.20974	0.93998
1415.15283	0.94021
1413.09592	0.94045
1411.03901	0.94074
1408.98211	0.94102
1406.92520	0.94114
1404.86829	0.94102
1402.81138	0.94068
1400.75447	0.94004
1398.69756	0.93866
1396.64066	0.93631
1394.58375	0.93284
1392.52684	0.92881
1390.46993	0.92449
1388.41302	0.91864
1386.35612	0.91072
1384.29921	0.90222
1382.24230	0.89362
1380.18539	0.88473
1378.12848	0.87620
1376.07157	0.86856
1374.01467	0.86195
1371.95776	0.85787
1369.90085	0.85758
1367.84394	0.86084
1365.78703	0.86716
1363.73013	0.87663
1361.67322	0.88881
1359.61631	0.90060
1357.55940	0.91060
1355.50249	0.91919
1353.44558	0.92615
1351.38868	0.93124
1349.33177	0.93481
1347.27486	0.93719
1345.21795	0.93869
1343.16104	0.93986
1341.10414	0.94074
1339.04723	0.94116
1336.99032	0.94122
1334.93341	0.94107
1332.87650	0.94078
1330.81959	0.94014
1328.76269	0.93915
1326.70578	0.93810
1324.64887	0.93713
1322.59196	0.93625
1320.53505	0.93558
1318.47815	0.93543
1316.42124	0.93569
1314.36433	0.93586
1312.30742	0.93567
1310.25051	0.93549
1308.19360	0.93559
1306.13670	0.93576
1304.07979	0.93573
1302.02288	0.93546
1299.96597	0.93488
1297.90906	0.93386
1295.85216	0.93235
1293.79525	0.93026
1291.73834	0.92763
1289.68143	0.92465
1287.62452	0.92141
1285.56761	0.91765
1283.51071	0.91307
1281.45380	0.90771
1279.39689	0.90194
1277.33998	0.89590
1275.28307	0.88927
1273.22617	0.88179
1271.16926	0.87358
1269.11235	0.86498
1267.05544	0.85606
1264.99853	0.84665
1262.94162	0.83658
1260.88472	0.82585
1258.82781	0.81476
1256.77090	0.80350
1254.71399	0.79211
1252.65708	0.78075
1250.60018	0.76941
1248.54327	0.75824
1246.48636	0.74754
1244.42945	0.73721
1242.37254	0.72715
1240.31563	0.71772
1238.25873	0.70917
1236.20182	0.70154
1234.14491	0.69516
1232.08800	0.69059
1230.03109	0.68834
1227.97419	0.68893
1225.91728	0.69285
1223.86037	0.70052
1221.80346	0.71201
1219.74655	0.72701
1217.68964	0.74487
1215.63274	0.76447
1213.57583	0.78497
1211.51892	0.80552
1209.46201	0.82474
1207.40510	0.84185
1205.34820	0.85711
1203.29129	0.87084
1201.23438	0.88286
1199.17747	0.89305
1197.12056	0.90184
1195.06365	0.90925
1193.00675	0.91503
1190.94984	0.91929
1188.89293	0.92187
1186.83602	0.92261
1184.77911	0.92185
1182.72221	0.91996
1180.66530	0.91682
1178.60839	0.91233
1176.55148	0.90707
1174.49457	0.90153
1172.43766	0.89562
1170.38076	0.88947
1168.32385	0.88360
1166.26694	0.87846
1164.21003	0.87425
1162.15312	0.87094
1160.09622	0.86904
1158.03931	0.86932
1155.98240	0.87132
1153.92549	0.87438
1151.86858	0.87805
1149.81167	0.88169
1147.75477	0.88465
1145.69786	0.88638
1143.64095	0.88669
1141.58404	0.88567
1139.52713	0.88335
1137.47023	0.87979
1135.41332	0.87541
1133.35641	0.87090
1131.29950	0.86624
1129.24259	0.86112
1127.18568	0.85594
1125.12878	0.85144
1123.07187	0.84767
1121.01496	0.84411
1118.95805	0.84062
1116.90114	0.83730
1114.84424	0.83424
1112.78733	0.83151
1110.73042	0.82868
1108.67351	0.82526
1106.61660	0.82138
1104.55969	0.81733
1102.50279	0.81318
1100.44588	0.80875
1098.38897	0.80350
1096.33206	0.79749
1094.27515	0.79109
1092.21825	0.78420
1090.16134	0.77663
1088.10443	0.76838
1086.04752	0.75936
1083.99061	0.74964
1081.93370	0.73979
1079.87680	0.72995
1077.81989	0.72018
1075.76298	0.71105
1073.70607	0.70310
1071.64916	0.69604
1069.59226	0.68920
1067.53535	0.68278
1065.47844	0.67715
1063.42153	0.67195
1061.36462	0.66651
1059.30771	0.66070
1057.25081	0.65481
1055.19390	0.64908
1053.13699	0.64365
1051.08008	0.63837
1049.02317	0.63307
1046.96627	0.62812
1044.90936	0.62389
1042.85245	0.61997
1040.79554	0.61574
1038.73863	0.61144
1036.68172	0.60796
1034.62482	0.60593
1032.56791	0.60595
1030.51100	0.60841
1028.45409	0.61354
1026.39718	0.62164
1024.34028	0.63256
1022.28337	0.64562
1020.22646	0.65994
1018.16955	0.67491
1016.11264	0.69026
1014.05573	0.70551
1011.99883	0.71991
1009.94192	0.73306
1007.88501	0.74509
1005.82810	0.75609
1003.77119	0.76627
1001.71429	0.77593
999.65738	0.78501
997.60047	0.79346
995.54356	0.80142
993.48665	0.80928
991.42974	0.81730
989.37284	0.82537
987.31593	0.83300
985.25902	0.83980
983.20211	0.84635
981.14520	0.85295
979.08830	0.85943
977.03139	0.86622
974.97448	0.87315
972.91757	0.87969
970.86066	0.88594
968.80375	0.89187
966.74685	0.89707
964.68994	0.90175
962.63303	0.90631
960.57612	0.91033
958.51921	0.91342
956.46231	0.91577
954.40540	0.91765
952.34849	0.91924
950.29158	0.92087
948.23467	0.92236
946.17776	0.92336
944.12086	0.92412
942.06395	0.92476
940.00704	0.92546
937.95013	0.92652
935.89322	0.92723
933.83632	0.92710
931.77941	0.92675
929.72250	0.92650
927.66559	0.92617
925.60868	0.92550
923.55177	0.92449
921.49487	0.92330
919.43796	0.92156
917.38105	0.91941
915.32414	0.91730
913.26723	0.91520
911.21033	0.91312
909.15342	0.91108
907.09651	0.90957
905.03960	0.90911
902.98269	0.90924
900.92578	0.90988
898.86888	0.91121
896.81197	0.91287
894.75506	0.91470
892.69815	0.91683
890.64124	0.91934
888.58434	0.92203
886.52743	0.92480
884.47052	0.92818
882.41361	0.93208
880.35670	0.93587
878.29979	0.93957
876.24289	0.94325
874.18598	0.94648
872.12907	0.94924
870.07216	0.95181
868.01525	0.95414
865.95835	0.95601
863.90144	0.95755
861.84453	0.95894
859.78762	0.95950
857.73071	0.95922
855.67380	0.95906
853.61690	0.95877
851.55999	0.95819
849.50308	0.95794
847.44617	0.95750
845.38926	0.95685
843.33236	0.95673
841.27545	0.95683
839.21854	0.95713
837.16163	0.95765
835.10472	0.95782
833.04781	0.95798
830.99091	0.95886
828.93400	0.96033
826.87709	0.96186
824.82018	0.96317
822.76327	0.96399
820.70637	0.96416
818.64946	0.96416
816.59255	0.96496
814.53564	0.96601
812.47873	0.96583
810.42182	0.96514
808.36492	0.96497
806.30801	0.96464
804.25110	0.96466
802.19419	0.96545
800.13728	0.96589
798.08038	0.96611
796.02347	0.96635
793.96656	0.96599
791.90965	0.96587
789.85274	0.96611
787.79583	0.96582
785.73893	0.96568
783.68202	0.96608
781.62511	0.96618
779.56820	0.96594
777.51129	0.96564
775.45439	0.96517
773.39748	0.96496
771.34057	0.96538
769.28366	0.96567
767.22675	0.96553
765.16984	0.96535
763.11294	0.96486
761.05603	0.96424
758.99912	0.96412
756.94221	0.96416
754.88530	0.96411
752.82839	0.96413
750.77149	0.96419
748.71458	0.96418
746.65767	0.96389
744.60076	0.96361
742.54385	0.96311
740.48695	0.96221
738.43004	0.96177
736.37313	0.96092
734.31622	0.95913
732.25931	0.95820
730.20240	0.95805
728.14550	0.95733
726.08859	0.95624
724.03168	0.95522
721.97477	0.95416
719.91786	0.95306
717.86096	0.95223
715.80405	0.95160
713.74714	0.95064
711.69023	0.94926
709.63332	0.94776
707.57641	0.94657
705.51951	0.94585
703.46260	0.94538
701.40569	0.94477
699.34878	0.94374
697.29187	0.94206
695.23497	0.94031
693.17806	0.93934
691.12115	0.93812
689.06424	0.93622
687.00733	0.93502
684.95042	0.93380
682.89352	0.93156
680.83661	0.93010
678.77970	0.92993
676.72279	0.92867
674.66588	0.92651
672.60898	0.92554
670.55207	0.92498
668.49516	0.92416
666.43825	0.92423
664.38134	0.92394
662.32443	0.92259
660.26753	0.92077
658.21062	0.91865
656.15371	0.91655
654.09680	0.91530
652.03989	0.91446
649.98299	0.91292
647.92608	0.91105
645.86917	0.90927
643.81226	0.90725
641.75535	0.90520
639.69844	0.90327
637.64154	0.90171
635.58463	0.90031
633.52772	0.89877
631.47081	0.89757
629.41390	0.89640
627.35700	0.89450
625.30009	0.89220
623.24318	0.89011
621.18627	0.88815
619.12936	0.88577
617.07245	0.88254
615.01555	0.87894
612.95864	0.87530
610.90173	0.87120
608.84482	0.86655
606.78791	0.86196
604.73101	0.85872
602.67410	0.85827
600.61719	0.86070
598.56028	0.86473
596.50337	0.86925
594.44646	0.87380
592.38956	0.87814
590.33265	0.88218
588.27574	0.88506
586.21883	0.88613
584.16192	0.88605
582.10502	0.88637
580.04811	0.88745
577.99120	0.88725
575.93429	0.88511
573.87738	0.88311
571.82047	0.88160
569.76357	0.88006
567.70666	0.87915
565.64975	0.87906
563.59284	0.87908
561.53593	0.87794
559.47903	0.87693
557.42212	0.87781
555.36521	0.87888
553.30830	0.87966
551.25139	0.88096
549.19448	0.88184
547.13758	0.88197
545.08067	0.88210
543.02376	0.88220
540.96685	0.88251
538.90994	0.88320
536.85304	0.88259
534.79613	0.88083
532.73922	0.88062
530.68231	0.88194
528.62540	0.88233
526.56849	0.88113
524.51159	0.87945
522.45468	0.87789
520.39777	0.87739
518.34086	0.87797
516.28395	0.87686
514.22705	0.87482
512.17014	0.87482
510.11323	0.87426
508.05632	0.87091
505.99941	0.86839
503.94250	0.86810
501.88560	0.86773
499.82869	0.86738
497.77178	0.86743
495.71487	0.86678
493.65796	0.86625
491.60106	0.86685
489.54415	0.86751
487.48724	0.86811
485.43033	0.86782
483.37342	0.86530
481.31651	0.86214
479.25961	0.86099
477.20270	0.86242
475.14579	0.86356
473.08888	0.86339
471.03197	0.86287
468.97507	0.86020
466.91816	0.85759
464.86125	0.85803
462.80434	0.85888
460.74743	0.85945
458.69052	0.85952
456.63362	0.85740
454.57671	0.85650
452.51980	0.85748
450.46289	0.85727
448.40598	0.85737
446.34908	0.85926
444.29217	0.86061
442.23526	0.86131
440.17835	0.86074
438.12144	0.85889
436.06453	0.85920
434.00763	0.86109
431.95072	0.86446
429.89381	0.86890
427.83690	0.86927
425.77999	0.86757
423.72309	0.86816
421.66618	0.86922
419.60927	0.86986
417.55236	0.87100
415.49545	0.87186
413.43854	0.87195
411.38164	0.86988
409.32473	0.86634
407.26782	0.86656
405.21091	0.87030
403.15400	0.87146
401.09710	0.87105
399.04019	0.87583
