3996.57260	0.99133
3994.51569	0.99132
3992.45878	0.99051
3990.40188	0.99022
3988.34497	0.99095
3986.28806	0.99139
3984.23115	0.99111
3982.17424	0.99057
3980.11733	0.99037
3978.06043	0.99095
3976.00352	0.99166
3973.94661	0.99172
3971.88970	0.99153
3969.83279	0.99149
3967.77589	0.99103
3965.71898	0.99042
3963.66207	0.99019
3961.60516	0.99006
3959.54825	0.99012
3957.49134	0.99030
3955.43444	0.99033
3953.37753	0.99079
3951.32062	0.99188
3949.26371	0.99241
3947.20680	0.99192
3945.14990	0.99157
3943.09299	0.99142
3941.03608	0.99094
3938.97917	0.99056
3936.92226	0.99028
3934.86535	0.98988
3932.80845	0.98986
3930.75154	0.99086
3928.69463	0.99211
3926.63772	0.99274
3924.58081	0.99260
3922.52391	0.99156
3920.46700	0.99058
3918.41009	0.99058
3916.35318	0.99088
3914.29627	0.99094
3912.23936	0.99088
3910.18246	0.99051
3908.12555	0.99040
3906.06864	0.99072
3904.01173	0.99053
3901.95482	0.98977
3899.89792	0.98967
3897.84101	0.99036
3895.78410	0.99078
3893.72719	0.99095
3891.67028	0.99132
3889.61337	0.99181
3887.55647	0.99194
3885.49956	0.99168
3883.44265	0.99189
3881.38574	0.99236
3879.32883	0.99209
3877.27193	0.99121
3875.21502	0.99038
3873.15811	0.99028
3871.10120	0.99067
3869.04429	0.99078
3866.98738	0.99095
3864.93048	0.99098
3862.87357	0.99060
3860.81666	0.99046
3858.75975	0.99061
3856.70284	0.99050
3854.64594	0.99005
3852.58903	0.99003
3850.53212	0.99077
3848.47521	0.99118
3846.41830	0.99100
3844.36139	0.99108
3842.30449	0.99159
3840.24758	0.99200
3838.19067	0.99263
3836.13376	0.99278
3834.07685	0.99219
3832.01995	0.99174
3829.96304	0.99180
3827.90613	0.99196
3825.84922	0.99204
3823.79231	0.99229
3821.73540	0.99257
3819.67850	0.99232
3817.62159	0.99191
3815.56468	0.99208
3813.50777	0.99183
3811.45086	0.99068
3809.39396	0.99035
3807.33705	0.99123
3805.28014	0.99190
3803.22323	0.99225
3801.16632	0.99206
3799.10941	0.99109
3797.05251	0.99087
3794.99560	0.99158
3792.93869	0.99166
3790.88178	0.99088
3788.82487	0.99057
3786.76796	0.99096
3784.71106	0.99110
3782.65415	0.99096
3780.59724	0.99083
3778.54033	0.99058
3776.48342	0.99076
3774.42652	0.99157
3772.36961	0.99212
3770.31270	0.99182
3768.25579	0.99132
3766.19888	0.99127
3764.14197	0.99134
3762.08507	0.99124
3760.02816	0.99124
3757.97125	0.99159
3755.91434	0.99184
3753.85743	0.99190
3751.80053	0.99216
3749.74362	0.99254
3747.68671	0.99250
3745.62980	0.99229
3743.57289	0.99223
3741.51598	0.99192
3739.45908	0.99157
3737.40217	0.99149
3735.34526	0.99162
3733.28835	0.99188
3731.23144	0.99179
3729.17454	0.99142
3727.11763	0.99125
3725.06072	0.99113
3723.00381	0.99097
3720.94690	0.99082
3718.88999	0.99056
3716.83309	0.99058
3714.77618	0.99086
3712.71927	0.99115
3710.66236	0.99186
3708.60545	0.99231
3706.54855	0.99194
3704.49164	0.99158
3702.43473	0.99169
3700.37782	0.99171
3698.32091	0.99105
3696.26400	0.99079
3694.20710	0.99121
3692.15019	0.99105
3690.09328	0.99038
3688.03637	0.99048
3685.97946	0.99113
3683.92256	0.99129
3681.86565	0.99113
3679.80874	0.99168
3677.75183	0.99292
3675.69492	0.99293
3673.63801	0.99108
3671.58111	0.98980
3669.52420	0.98944
3667.46729	0.98919
3665.41038	0.98879
3663.35347	0.98907
3661.29657	0.99040
3659.23966	0.99143
3657.18275	0.99121
3655.12584	0.99115
3653.06893	0.99191
3651.01202	0.99177
3648.95512	0.99017
3646.89821	0.98931
3644.84130	0.98965
3642.78439	0.99016
3640.72748	0.99026
3638.67058	0.98996
3636.61367	0.98993
3634.55676	0.99012
3632.49985	0.99007
3630.44294	0.98978
3628.38603	0.98917
3626.32913	0.98927
3624.27222	0.98993
3622.21531	0.99004
3620.15840	0.98976
3618.10149	0.98975
3616.04459	0.98993
3613.98768	0.99004
3611.93077	0.98973
3609.87386	0.98919
3607.81695	0.98896
3605.76004	0.98878
3603.70314	0.98865
3601.64623	0.98915
3599.58932	0.98993
3597.53241	0.98993
3595.47550	0.98923
3593.41860	0.98869
3591.36169	0.98887
3589.30478	0.98940
3587.24787	0.98915
3585.19096	0.98832
3583.13405	0.98803
3581.07715	0.98842
3579.02024	0.98903
3576.96333	0.98914
3574.90642	0.98871
3572.84951	0.98814
3570.79261	0.98756
3568.73570	0.98691
3566.67879	0.98620
3564.62188	0.98632
3562.56497	0.98720
3560.50806	0.98759
3558.45116	0.98679
3556.39425	0.98554
3554.33734	0.98486
3552.28043	0.98500
3550.22352	0.98541
3548.16662	0.98525
3546.10971	0.98460
3544.05280	0.98429
3541.99589	0.98397
3539.93898	0.98332
3537.88207	0.98323
3535.82517	0.98367
3533.76826	0.98376
3531.71135	0.98356
3529.65444	0.98329
3527.59753	0.98326
3525.54063	0.98358
3523.48372	0.98372
3521.42681	0.98359
3519.36990	0.98357
3517.31299	0.98346
3515.25608	0.98291
3513.19918	0.98213
3511.14227	0.98183
3509.08536	0.98214
3507.02845	0.98252
3504.97154	0.98277
3502.91464	0.98306
3500.85773	0.98333
3498.80082	0.98315
3496.74391	0.98263
3494.68700	0.98232
3492.63009	0.98209
3490.57319	0.98170
3488.51628	0.98148
3486.45937	0.98139
3484.40246	0.98110
3482.34555	0.98075
3480.28865	0.98069
3478.23174	0.98089
3476.17483	0.98091
3474.11792	0.98119
3472.06101	0.98184
3470.00410	0.98196
3467.94720	0.98156
3465.89029	0.98133
3463.83338	0.98137
3461.77647	0.98146
3459.71956	0.98152
3457.66266	0.98154
3455.60575	0.98178
3453.54884	0.98216
3451.49193	0.98212
3449.43502	0.98195
3447.37811	0.98214
3445.32121	0.98227
3443.26430	0.98187
3441.20739	0.98164
3439.15048	0.98238
3437.09357	0.98354
3435.03667	0.98405
3432.97976	0.98410
3430.92285	0.98440
3428.86594	0.98470
3426.80903	0.98456
3424.75212	0.98426
3422.69522	0.98396
3420.63831	0.98395
3418.58140	0.98449
3416.52449	0.98481
3414.46758	0.98465
3412.41068	0.98468
3410.35377	0.98501
3408.29686	0.98515
3406.23995	0.98490
3404.18304	0.98479
3402.12613	0.98507
3400.06923	0.98548
3398.01232	0.98562
3395.95541	0.98541
3393.89850	0.98555
3391.84159	0.98605
3389.78469	0.98610
3387.72778	0.98549
3385.67087	0.98488
3383.61396	0.98475
3381.55705	0.98508
3379.50014	0.98572
3377.44324	0.98625
3375.38633	0.98618
3373.32942	0.98598
3371.27251	0.98620
3369.21560	0.98632
3367.15870	0.98590
3365.10179	0.98549
3363.04488	0.98586
3360.98797	0.98676
3358.93106	0.98735
3356.87415	0.98750
3354.81725	0.98740
3352.76034	0.98720
3350.70343	0.98720
3348.64652	0.98756
3346.58961	0.98802
3344.53271	0.98810
3342.47580	0.98764
3340.41889	0.98697
3338.36198	0.98653
3336.30507	0.98657
3334.24816	0.98670
3332.19126	0.98672
3330.13435	0.98724
3328.07744	0.98788
3326.02053	0.98776
3323.96362	0.98728
3321.90672	0.98724
3319.84981	0.98771
3317.79290	0.98812
3315.73599	0.98778
3313.67908	0.98719
3311.62217	0.98715
3309.56527	0.98727
3307.50836	0.98726
3305.45145	0.98764
3303.39454	0.98844
3301.33763	0.98908
3299.28073	0.98896
3297.22382	0.98829
3295.16691	0.98816
3293.11000	0.98825
3291.05309	0.98783
3288.99618	0.98781
3286.93928	0.98842
3284.88237	0.98849
3282.82546	0.98815
3280.76855	0.98818
3278.71164	0.98835
3276.65474	0.98856
3274.59783	0.98892
3272.54092	0.98907
3270.48401	0.98897
3268.42710	0.98891
3266.37019	0.98876
3264.31329	0.98837
3262.25638	0.98833
3260.19947	0.98877
3258.14256	0.98895
3256.08565	0.98867
3254.02875	0.98856
3251.97184	0.98906
3249.91493	0.98975
3247.85802	0.98971
3245.80111	0.98899
3243.74420	0.98836
3241.68730	0.98814
3239.63039	0.98826
3237.57348	0.98830
3235.51657	0.98835
3233.45966	0.98855
3231.40276	0.98869
3229.34585	0.98882
3227.28894	0.98884
3225.23203	0.98872
3223.17512	0.98891
3221.11821	0.98936
3219.06131	0.98938
3217.00440	0.98890
3214.94749	0.98850
3212.89058	0.98849
3210.83367	0.98874
3208.77677	0.98894
3206.71986	0.98907
3204.66295	0.98914
3202.60604	0.98911
3200.54913	0.98902
3198.49222	0.98895
3196.43532	0.98904
3194.37841	0.98901
3192.32150	0.98835
3190.26459	0.98767
3188.20768	0.98803
3186.15078	0.98907
3184.09387	0.98965
3182.03696	0.98961
3179.98005	0.98954
3177.92314	0.98980
3175.86623	0.99006
3173.80933	0.98983
3171.75242	0.98916
3169.69551	0.98882
3167.63860	0.98914
3165.58169	0.98940
3163.52479	0.98944
3161.46788	0.98976
3159.41097	0.98985
3157.35406	0.98945
3155.29715	0.98944
3153.24024	0.98975
3151.18334	0.98976
3149.12643	0.98968
3147.06952	0.98996
3145.01261	0.99028
3142.95570	0.98993
3140.89880	0.98934
3138.84189	0.98954
3136.78498	0.99021
3134.72807	0.99046
3132.67116	0.99041
3130.61425	0.99031
3128.55735	0.98994
3126.50044	0.98937
3124.44353	0.98906
3122.38662	0.98889
3120.32971	0.98884
3118.27281	0.98930
3116.21590	0.98974
3114.15899	0.98979
3112.10208	0.98993
3110.04517	0.99000
3107.98826	0.98986
3105.93136	0.98972
3103.87445	0.98955
3101.81754	0.98949
3099.76063	0.98942
3097.70372	0.98930
3095.64682	0.98953
3093.58991	0.98988
3091.53300	0.98988
3089.47609	0.98969
3087.41918	0.98968
3085.36227	0.98976
3083.30537	0.98973
3081.24846	0.98970
3079.19155	0.98931
3077.13464	0.98872
3075.07773	0.98871
3073.02083	0.98907
3070.96392	0.98925
3068.90701	0.98935
3066.85010	0.98952
3064.79319	0.98952
3062.73628	0.98924
3060.67938	0.98900
3058.62247	0.98888
3056.56556	0.98888
3054.50865	0.98915
3052.45174	0.98934
3050.39484	0.98918
3048.33793	0.98886
3046.28102	0.98849
3044.22411	0.98838
3042.16720	0.98874
3040.11029	0.98886
3038.05339	0.98830
3035.99648	0.98782
3033.93957	0.98815
3031.88266	0.98877
3029.82575	0.98891
3027.76885	0.98874
3025.71194	0.98870
3023.65503	0.98875
3021.59812	0.98857
3019.54121	0.98809
3017.48430	0.98778
3015.42740	0.98770
3013.37049	0.98765
3011.31358	0.98786
3009.25667	0.98813
3007.19976	0.98806
3005.14286	0.98781
3003.08595	0.98761
3001.02904	0.98746
2998.97213	0.98737
2996.91522	0.98753
2994.85831	0.98775
2992.80141	0.98773
2990.74450	0.98752
2988.68759	0.98721
2986.63068	0.98691
2984.57377	0.98678
2982.51687	0.98671
2980.45996	0.98670
2978.40305	0.98702
2976.34614	0.98730
2974.28923	0.98696
2972.23232	0.98641
2970.17542	0.98622
2968.11851	0.98596
2966.06160	0.98542
2964.00469	0.98500
2961.94778	0.98459
2959.89088	0.98396
2957.83397	0.98342
2955.77706	0.98330
2953.72015	0.98342
2951.66324	0.98340
2949.60633	0.98329
2947.54943	0.98325
2945.49252	0.98330
2943.43561	0.98347
2941.37870	0.98367
2939.32179	0.98375
2937.26489	0.98385
2935.20798	0.98415
2933.15107	0.98435
2931.09416	0.98429
2929.03725	0.98417
2926.98034	0.98406
2924.92344	0.98392
2922.86653	0.98395
2920.80962	0.98444
2918.75271	0.98503
2916.69580	0.98519
2914.63890	0.98515
2912.58199	0.98517
2910.52508	0.98503
2908.46817	0.98491
2906.41126	0.98506
2904.35435	0.98518
2902.29745	0.98488
2900.24054	0.98436
2898.18363	0.98423
2896.12672	0.98438
2894.06981	0.98417
2892.01291	0.98366
2889.95600	0.98356
2887.89909	0.98413
2885.84218	0.98478
2883.78527	0.98492
2881.72836	0.98462
2879.67146	0.98435
2877.61455	0.98440
2875.55764	0.98479
2873.50073	0.98516
2871.44382	0.98513
2869.38692	0.98500
2867.33001	0.98526
2865.27310	0.98554
2863.21619	0.98546
2861.15928	0.98557
2859.10237	0.98633
2857.04547	0.98712
2854.98856	0.98719
2852.93165	0.98701
2850.87474	0.98701
2848.81783	0.98703
2846.76093	0.98720
2844.70402	0.98736
2842.64711	0.98742
2840.59020	0.98782
2838.53329	0.98840
2836.47638	0.98863
2834.41948	0.98857
2832.36257	0.98836
2830.30566	0.98821
2828.24875	0.98821
2826.19184	0.98827
2824.13494	0.98847
2822.07803	0.98890
2820.02112	0.98927
2817.96421	0.98901
2815.90730	0.98840
2813.85039	0.98817
2811.79349	0.98842
2809.73658	0.98884
2807.67967	0.98924
2805.62276	0.98952
2803.56585	0.98950
2801.50895	0.98912
2799.45204	0.98894
2797.39513	0.98915
2795.33822	0.98921
2793.28131	0.98916
2791.22440	0.98922
2789.16750	0.98932
2787.11059	0.98920
2785.05368	0.98903
2782.99677	0.98918
2780.93986	0.98940
2778.88296	0.98922
2776.82605	0.98882
2774.76914	0.98870
2772.71223	0.98893
2770.65532	0.98926
2768.59841	0.98950
2766.54151	0.98948
2764.48460	0.98920
2762.42769	0.98896
2760.37078	0.98902
2758.31387	0.98906
2756.25697	0.98882
2754.20006	0.98882
2752.14315	0.98930
2750.08624	0.98982
2748.02933	0.98989
2745.97242	0.98954
2743.91552	0.98935
2741.85861	0.98949
2739.80170	0.98940
2737.74479	0.98904
2735.68788	0.98890
2733.63098	0.98904
2731.57407	0.98915
2729.51716	0.98927
2727.46025	0.98947
2725.40334	0.98942
2723.34643	0.98920
2721.28953	0.98917
2719.23262	0.98920
2717.17571	0.98919
2715.11880	0.98938
2713.06189	0.98941
2711.00499	0.98899
2708.94808	0.98864
2706.89117	0.98872
2704.83426	0.98893
2702.77735	0.98901
2700.72044	0.98921
2698.66354	0.98966
2696.60663	0.98998
2694.54972	0.98989
2692.49281	0.98962
2690.43590	0.98944
2688.37900	0.98937
2686.32209	0.98939
2684.26518	0.98947
2682.20827	0.98958
2680.15136	0.98969
2678.09445	0.98959
2676.03755	0.98935
2673.98064	0.98932
2671.92373	0.98939
2669.86682	0.98938
2667.80991	0.98945
2665.75301	0.98952
2663.69610	0.98935
2661.63919	0.98917
2659.58228	0.98911
2657.52537	0.98895
2655.46846	0.98884
2653.41156	0.98880
2651.35465	0.98865
2649.29774	0.98867
2647.24083	0.98906
2645.18392	0.98944
2643.12702	0.98938
2641.07011	0.98913
2639.01320	0.98899
2636.95629	0.98873
2634.89938	0.98845
2632.84247	0.98856
2630.78557	0.98905
2628.72866	0.98930
2626.67175	0.98915
2624.61484	0.98931
2622.55793	0.98977
2620.50103	0.98991
2618.44412	0.98984
2616.38721	0.98998
2614.33030	0.99001
2612.27339	0.98959
2610.21648	0.98939
2608.15958	0.98967
2606.10267	0.99026
2604.04576	0.99097
2601.98885	0.99085
2599.93194	0.98986
2597.87504	0.98946
2595.81813	0.98993
2593.76122	0.99029
2591.70431	0.99034
2589.64740	0.99018
2587.59049	0.99000
2585.53359	0.99017
2583.47668	0.99002
2581.41977	0.98948
2579.36286	0.98942
2577.30595	0.98947
2575.24905	0.98936
2573.19214	0.98959
2571.13523	0.99010
2569.07832	0.99053
2567.02141	0.99070
2564.96450	0.99052
2562.90760	0.99004
2560.85069	0.98985
2558.79378	0.99044
2556.73687	0.99111
2554.67996	0.99103
2552.62306	0.99021
2550.56615	0.98973
2548.50924	0.99015
2546.45233	0.99027
2544.39542	0.99019
2542.33851	0.99046
2540.28161	0.99021
2538.22470	0.98958
2536.16779	0.98908
2534.11088	0.98871
2532.05397	0.98892
2529.99707	0.98947
2527.94016	0.98980
2525.88325	0.99000
2523.82634	0.99005
2521.76943	0.98995
2519.71252	0.98993
2517.65562	0.99022
2515.59871	0.99061
2513.54180	0.99055
2511.48489	0.99023
2509.42798	0.99063
2507.37108	0.99161
2505.31417	0.99166
2503.25726	0.99070
2501.20035	0.99028
2499.14344	0.99075
2497.08653	0.99120
2495.02963	0.99119
2492.97272	0.99084
2490.91581	0.99069
2488.85890	0.99078
2486.80199	0.99053
2484.74509	0.99032
2482.68818	0.99059
2480.63127	0.99061
2478.57436	0.99006
2476.51745	0.98980
2474.46054	0.99005
2472.40364	0.99030
2470.34673	0.99046
2468.28982	0.99080
2466.23291	0.99112
2464.17600	0.99092
2462.11910	0.99056
2460.06219	0.99050
2458.00528	0.99072
2455.94837	0.99096
2453.89146	0.99063
2451.83455	0.98989
2449.77765	0.98982
2447.72074	0.99036
2445.66383	0.99034
2443.60692	0.98968
2441.55001	0.98917
2439.49311	0.98925
2437.43620	0.98966
2435.37929	0.99009
2433.32238	0.99050
2431.26547	0.99090
2429.20856	0.99119
2427.15166	0.99117
2425.09475	0.99115
2423.03784	0.99139
2420.98093	0.99157
2418.92402	0.99148
2416.86712	0.99145
2414.81021	0.99135
2412.75330	0.99085
2410.69639	0.99018
2408.63948	0.98964
2406.58257	0.98973
2404.52567	0.99024
2402.46876	0.99036
2400.41185	0.99048
2398.35494	0.99094
2396.29803	0.99120
2394.24113	0.99130
2392.18422	0.99177
2390.12731	0.99221
2388.07040	0.99194
2386.01349	0.99131
2383.95658	0.99077
2381.89968	0.99037
2379.84277	0.99052
2377.78586	0.99121
2375.72895	0.99169
2373.67204	0.99169
2371.61514	0.99161
2369.55823	0.99206
2367.50132	0.99283
2365.44441	0.99286
2363.38750	0.99200
2361.33059	0.99199
2359.27369	0.99278
2357.21678	0.99218
2355.15987	0.99079
2353.10296	0.99003
2351.04605	0.99016
2348.98915	0.99061
2346.93224	0.99053
2344.87533	0.99007
2342.81842	0.99022
2340.76151	0.99058
2338.70460	0.99025
2336.64770	0.98991
2334.59079	0.99022
2332.53388	0.99059
2330.47697	0.99036
2328.42006	0.98946
2326.36316	0.98833
2324.30625	0.98777
2322.24934	0.98823
2320.19243	0.98920
2318.13552	0.98991
2316.07861	0.99016
2314.02171	0.99049
2311.96480	0.99066
2309.90789	0.99017
2307.85098	0.99029
2305.79407	0.99136
2303.73717	0.99188
2301.68026	0.99139
2299.62335	0.99060
2297.56644	0.98990
2295.50953	0.98923
2293.45262	0.98868
2291.39572	0.98846
2289.33881	0.98869
2287.28190	0.98934
2285.22499	0.98950
2283.16808	0.98886
2281.11117	0.98905
2279.05427	0.99016
2276.99736	0.99027
2274.94045	0.98969
2272.88354	0.98973
2270.82663	0.99036
2268.76973	0.99085
2266.71282	0.99062
2264.65591	0.99048
2262.59900	0.99099
2260.54209	0.99086
2258.48518	0.98951
2256.42828	0.98857
2254.37137	0.98940
2252.31446	0.99090
2250.25755	0.99134
2248.20064	0.99129
2246.14374	0.99215
2244.08683	0.99288
2242.02992	0.99182
2239.97301	0.98992
2237.91610	0.98914
2235.85919	0.98997
2233.80229	0.99171
2231.74538	0.99235
2229.68847	0.99123
2227.63156	0.98972
2225.57465	0.98829
2223.51775	0.98743
2221.46084	0.98824
2219.40393	0.99047
2217.34702	0.99242
2215.29011	0.99285
2213.23320	0.99231
2211.17630	0.99195
2209.11939	0.99109
2207.06248	0.99004
2205.00557	0.99008
2202.94866	0.98981
2200.89176	0.98875
2198.83485	0.98862
2196.77794	0.98969
2194.72103	0.99027
2192.66412	0.98978
2190.60721	0.98944
2188.55031	0.99050
2186.49340	0.99128
2184.43649	0.98953
2182.37958	0.98840
2180.32267	0.99005
2178.26577	0.99201
2176.20886	0.99336
2174.15195	0.99371
2172.09504	0.99204
2170.03813	0.98978
2167.98122	0.98938
2165.92432	0.99062
2163.86741	0.99148
2161.81050	0.99130
2159.75359	0.98976
2157.69668	0.98809
2155.63978	0.98940
2153.58287	0.99227
2151.52596	0.99412
2149.46905	0.99513
2147.41214	0.99505
2145.35523	0.99412
2143.29833	0.99429
2141.24142	0.99496
2139.18451	0.99416
2137.12760	0.99290
2135.07069	0.99228
2133.01379	0.99161
2130.95688	0.99149
2128.89997	0.99246
2126.84306	0.99271
2124.78615	0.99182
2122.72924	0.99121
2120.67234	0.99176
2118.61543	0.99265
2116.55852	0.99132
2114.50161	0.98860
2112.44470	0.98830
2110.38780	0.99010
2108.33089	0.99108
2106.27398	0.99104
2104.21707	0.99056
2102.16016	0.98978
2100.10325	0.98941
2098.04635	0.98936
2095.98944	0.98949
2093.93253	0.99003
2091.87562	0.99079
2089.81871	0.99133
2087.76181	0.99110
2085.70490	0.99034
2083.64799	0.99015
2081.59108	0.99078
2079.53417	0.99108
2077.47726	0.99064
2075.42036	0.98972
2073.36345	0.98901
2071.30654	0.98992
2069.24963	0.99165
2067.19272	0.99199
2065.13582	0.99120
2063.07891	0.99104
2061.02200	0.99113
2058.96509	0.99034
2056.90818	0.98988
2054.85127	0.99159
2052.79437	0.99384
2050.73746	0.99397
2048.68055	0.99285
2046.62364	0.99136
2044.56673	0.98950
2042.50983	0.98990
2040.45292	0.99292
2038.39601	0.99338
2036.33910	0.98985
2034.28219	0.98732
2032.22528	0.98708
2030.16838	0.98765
2028.11147	0.99008
2026.05456	0.99298
2023.99765	0.99329
2021.94074	0.99250
2019.88384	0.99249
2017.82693	0.99180
2015.77002	0.99075
2013.71311	0.99071
2011.65620	0.99248
2009.59929	0.99486
2007.54239	0.99504
2005.48548	0.99422
2003.42857	0.99368
2001.37166	0.99216
1999.31475	0.99068
1997.25785	0.99075
1995.20094	0.99117
1993.14403	0.99019
1991.08712	0.98886
1989.03021	0.98904
1986.97330	0.99002
1984.91640	0.99144
1982.85949	0.99231
1980.80258	0.99087
1978.74567	0.98980
1976.68876	0.99150
1974.63186	0.99323
1972.57495	0.99281
1970.51804	0.99187
1968.46113	0.99283
1966.40422	0.99407
1964.34731	0.99305
1962.29041	0.99184
1960.23350	0.99260
1958.17659	0.99444
1956.11968	0.99583
1954.06277	0.99583
1952.00587	0.99457
1949.94896	0.99360
1947.89205	0.99367
1945.83514	0.99398
1943.77823	0.99368
1941.72132	0.99269
1939.66442	0.99230
1937.60751	0.99224
1935.55060	0.99149
1933.49369	0.99119
1931.43678	0.99196
1929.37988	0.99299
1927.32297	0.99336
1925.26606	0.99301
1923.20915	0.99235
1921.15224	0.99190
1919.09533	0.99183
1917.03843	0.99168
1914.98152	0.99203
1912.92461	0.99271
1910.86770	0.99253
1908.81079	0.99182
1906.75389	0.99148
1904.69698	0.99174
1902.64007	0.99290
1900.58316	0.99384
1898.52625	0.99344
1896.46934	0.99284
1894.41244	0.99273
1892.35553	0.99250
1890.29862	0.99217
1888.24171	0.99280
1886.18480	0.99414
1884.12790	0.99451
1882.07099	0.99355
1880.01408	0.99235
1877.95717	0.99182
1875.90026	0.99228
1873.84335	0.99318
1871.78645	0.99362
1869.72954	0.99356
1867.67263	0.99325
1865.61572	0.99284
1863.55881	0.99252
1861.50191	0.99228
1859.44500	0.99221
1857.38809	0.99221
1855.33118	0.99234
1853.27427	0.99299
1851.21736	0.99356
1849.16046	0.99326
1847.10355	0.99284
1845.04664	0.99279
1842.98973	0.99222
1840.93282	0.99143
1838.87592	0.99135
1836.81901	0.99155
1834.76210	0.99168
1832.70519	0.99203
1830.64828	0.99249
1828.59137	0.99262
1826.53447	0.99249
1824.47756	0.99219
1822.42065	0.99198
1820.36374	0.99196
1818.30683	0.99183
1816.24993	0.99178
1814.19302	0.99177
1812.13611	0.99141
1810.07920	0.99086
1808.02229	0.99077
1805.96538	0.99105
1803.90848	0.99137
1801.85157	0.99164
1799.79466	0.99172
1797.73775	0.99161
1795.68084	0.99100
1793.62394	0.98974
1791.56703	0.98856
1789.51012	0.98792
1787.45321	0.98748
1785.39630	0.98732
1783.33939	0.98701
1781.28249	0.98575
1779.22558	0.98372
1777.16867	0.98166
1775.11176	0.97951
1773.05485	0.97633
1770.99795	0.97199
1768.94104	0.96745
1766.88413	0.96230
1764.82722	0.95627
1762.77031	0.94865
1760.71340	0.93984
1758.65650	0.93227
1756.59959	0.92530
1754.54268	0.91916
1752.48577	0.91405
1750.42886	0.90841
1748.37196	0.90246
1746.31505	0.89754
1744.25814	0.89377
1742.20123	0.89090
1740.14432	0.88842
1738.08741	0.88670
1736.03051	0.88620
1733.97360	0.88638
1731.91669	0.88772
1729.85978	0.89016
1727.80287	0.89331
1725.74597	0.89701
1723.68906	0.90128
1721.63215	0.90593
1719.57524	0.91092
1717.51833	0.91687
1715.46142	0.92334
1713.40452	0.92908
1711.34761	0.93434
1709.29070	0.93943
1707.23379	0.94450
1705.17688	0.94929
1703.11998	0.95321
1701.06307	0.95704
1699.00616	0.96050
1696.94925	0.96257
1694.89234	0.96483
1692.83543	0.96715
1690.77853	0.96891
1688.72162	0.97021
1686.66471	0.97101
1684.60780	0.97159
1682.55089	0.97257
1680.49399	0.97377
1678.43708	0.97485
1676.38017	0.97568
1674.32326	0.97625
1672.26635	0.97688
1670.20944	0.97756
1668.15254	0.97796
1666.09563	0.97813
1664.03872	0.97828
1661.98181	0.97837
1659.92490	0.97812
1657.86800	0.97763
1655.81109	0.97728
1653.75418	0.97739
1651.69727	0.97794
1649.64036	0.97828
1647.58345	0.97816
1645.52655	0.97783
1643.46964	0.97797
1641.41273	0.97831
1639.35582	0.97881
1637.29891	0.97943
1635.24201	0.97968
1633.18510	0.97987
1631.12819	0.98020
1629.07128	0.98026
1627.01437	0.98012
1624.95746	0.98020
1622.90056	0.98046
1620.84365	0.98084
1618.78674	0.98142
1616.72983	0.98214
1614.67292	0.98258
1612.61602	0.98280
1610.55911	0.98302
1608.50220	0.98328
1606.44529	0.98363
1604.38838	0.98407
1602.33147	0.98455
1600.27457	0.98485
1598.21766	0.98498
1596.16075	0.98505
1594.10384	0.98518
1592.04693	0.98531
1589.99003	0.98543
1587.93312	0.98560
1585.87621	0.98576
1583.81930	0.98584
1581.76239	0.98583
1579.70548	0.98566
1577.64858	0.98532
1575.59167	0.98513
1573.53476	0.98541
1571.47785	0.98599
1569.42094	0.98646
1567.36404	0.98667
1565.30713	0.98689
1563.25022	0.98704
1561.19331	0.98699
1559.13640	0.98665
1557.07949	0.98623
1555.02259	0.98605
1552.96568	0.98587
1550.90877	0.98582
1548.85186	0.98616
1546.79495	0.98661
1544.73805	0.98673
1542.68114	0.98670
1540.62423	0.98708
1538.56732	0.98746
1536.51041	0.98765
1534.45350	0.98780
1532.39660	0.98763
1530.33969	0.98736
1528.28278	0.98732
1526.22587	0.98763
1524.16896	0.98825
1522.11206	0.98846
1520.05515	0.98809
1517.99824	0.98784
1515.94133	0.98770
1513.88442	0.98747
1511.82751	0.98731
1509.77061	0.98733
1507.71370	0.98751
1505.65679	0.98771
1503.59988	0.98768
1501.54297	0.98747
1499.48607	0.98732
1497.42916	0.98750
1495.37225	0.98764
1493.31534	0.98739
1491.25843	0.98730
1489.20152	0.98750
1487.14462	0.98743
1485.08771	0.98715
1483.03080	0.98681
1480.97389	0.98666
1478.91698	0.98686
1476.86008	0.98681
1474.80317	0.98611
1472.74626	0.98519
1470.68935	0.98450
1468.63244	0.98397
1466.57553	0.98312
1464.51863	0.98189
1462.46172	0.98099
1460.40481	0.98041
1458.34790	0.97959
1456.29099	0.97820
1454.23409	0.97718
1452.17718	0.97672
1450.12027	0.97615
1448.06336	0.97499
1446.00645	0.97346
1443.94954	0.97219
1441.89264	0.97128
1439.83573	0.97066
1437.77882	0.97002
1435.72191	0.96894
1433.66500	0.96796
1431.60810	0.96749
1429.55119	0.96765
1427.49428	0.96839
1425.43737	0.96924
1423.38046	0.97024
1421.32355	0.97147
1419.26665	0.97240
1417.20974	0.97287
1415.15283	0.97353
1413.09592	0.97439
1411.03901	0.97512
1408.98211	0.97561
1406.92520	0.97583
1404.86829	0.97579
1402.81138	0.97567
1400.75447	0.97552
1398.69756	0.97517
1396.64066	0.97414
1394.58375	0.97217
1392.52684	0.96977
1390.46993	0.96729
1388.41302	0.96423
1386.35612	0.96044
1384.29921	0.95635
1382.24230	0.95200
1380.18539	0.94755
1378.12848	0.94324
1376.07157	0.93893
1374.01467	0.93434
1371.95776	0.93032
1369.90085	0.92772
1367.84394	0.92637
1365.78703	0.92647
1363.73013	0.92878
1361.67322	0.93397
1359.61631	0.94133
1357.55940	0.94921
1355.50249	0.95612
1353.44558	0.96150
1351.38868	0.96557
1349.33177	0.96860
1347.27486	0.97100
1345.21795	0.97275
1343.16104	0.97382
1341.10414	0.97445
1339.04723	0.97469
1336.99032	0.97481
1334.93341	0.97500
1332.87650	0.97524
1330.81959	0.97556
1328.76269	0.97560
1326.70578	0.97530
1324.64887	0.97518
1322.59196	0.97504
1320.53505	0.97469
1318.47815	0.97473
1316.42124	0.97506
1314.36433	0.97515
1312.30742	0.97520
1310.25051	0.97550
1308.19360	0.97594
1306.13670	0.97612
1304.07979	0.97596
1302.02288	0.97570
1299.96597	0.97539
1297.90906	0.97494
1295.85216	0.97419
1293.79525	0.97326
1291.73834	0.97245
1289.68143	0.97168
1287.62452	0.97065
1285.56761	0.96920
1283.51071	0.96750
1281.45380	0.96572
1279.39689	0.96386
1277.33998	0.96167
1275.28307	0.95924
1273.22617	0.95685
1271.16926	0.95420
1269.11235	0.95089
1267.05544	0.94731
1264.99853	0.94385
1262.94162	0.94018
1260.88472	0.93615
1258.82781	0.93162
1256.77090	0.92674
1254.71399	0.92177
1252.65708	0.91657
1250.60018	0.91111
1248.54327	0.90562
1246.48636	0.90027
1244.42945	0.89491
1242.37254	0.88942
1240.31563	0.88397
1238.25873	0.87873
1236.20182	0.87388
1234.14491	0.86938
1232.08800	0.86509
1230.03109	0.86111
1227.97419	0.85771
1225.91728	0.85508
1223.86037	0.85318
1221.80346	0.85168
1219.74655	0.85030
1217.68964	0.84930
1215.63274	0.84921
1213.57583	0.85015
1211.51892	0.85212
1209.46201	0.85527
1207.40510	0.85967
1205.34820	0.86544
1203.29129	0.87274
1201.23438	0.88136
1199.17747	0.89058
1197.12056	0.89976
1195.06365	0.90855
1193.00675	0.91646
1190.94984	0.92284
1188.89293	0.92743
1186.83602	0.93084
1184.77911	0.93359
1182.72221	0.93550
1180.66530	0.93627
1178.60839	0.93603
1176.55148	0.93524
1174.49457	0.93425
1172.43766	0.93312
1170.38076	0.93201
1168.32385	0.93115
1166.26694	0.93086
1164.21003	0.93108
1162.15312	0.93130
1160.09622	0.93169
1158.03931	0.93261
1155.98240	0.93389
1153.92549	0.93553
1151.86858	0.93742
1149.81167	0.93896
1147.75477	0.93999
1145.69786	0.94067
1143.64095	0.94120
1141.58404	0.94159
1139.52713	0.94140
1137.47023	0.94052
1135.41332	0.93946
1133.35641	0.93826
1131.29950	0.93653
1129.24259	0.93471
1127.18568	0.93361
1125.12878	0.93312
1123.07187	0.93254
1121.01496	0.93172
1118.95805	0.93118
1116.90114	0.93106
1114.84424	0.93101
1112.78733	0.93097
1110.73042	0.93083
1108.67351	0.93039
1106.61660	0.92984
1104.55969	0.92938
1102.50279	0.92874
1100.44588	0.92753
1098.38897	0.92575
1096.33206	0.92382
1094.27515	0.92185
1092.21825	0.91944
1090.16134	0.91665
1088.10443	0.91391
1086.04752	0.91114
1083.99061	0.90812
1081.93370	0.90497
1079.87680	0.90166
1077.81989	0.89854
1075.76298	0.89599
1073.70607	0.89340
1071.64916	0.89062
1069.59226	0.88779
1067.53535	0.88467
1065.47844	0.88178
1063.42153	0.87937
1061.36462	0.87661
1059.30771	0.87336
1057.25081	0.87000
1055.19390	0.86666
1053.13699	0.86348
1051.08008	0.86027
1049.02317	0.85661
1046.96627	0.85293
1044.90936	0.85002
1042.85245	0.84773
1040.79554	0.84538
1038.73863	0.84276
1036.68172	0.84037
1034.62482	0.83860
1032.56791	0.83705
1030.51100	0.83573
1028.45409	0.83545
1026.39718	0.83644
1024.34028	0.83842
1022.28337	0.84081
1020.22646	0.84313
1018.16955	0.84574
1016.11264	0.84873
1014.05573	0.85179
1011.99883	0.85526
1009.94192	0.85916
1007.88501	0.86295
1005.82810	0.86643
1003.77119	0.86980
1001.71429	0.87314
999.65738	0.87641
997.60047	0.87959
995.54356	0.88252
993.48665	0.88512
991.42974	0.88737
989.37284	0.88926
987.31593	0.89088
985.25902	0.89237
983.20211	0.89402
981.14520	0.89606
979.08830	0.89823
977.03139	0.90033
974.97448	0.90280
972.91757	0.90583
970.86066	0.90899
968.80375	0.91179
966.74685	0.91418
964.68994	0.91658
962.63303	0.91900
960.57612	0.92089
958.51921	0.92208
956.46231	0.92292
954.40540	0.92368
952.34849	0.92450
950.29158	0.92554
948.23467	0.92668
946.17776	0.92786
944.12086	0.92936
942.06395	0.93109
940.00704	0.93275
937.95013	0.93411
935.89322	0.93480
933.83632	0.93477
931.77941	0.93478
929.72250	0.93531
927.66559	0.93560
925.60868	0.93497
923.55177	0.93369
921.49487	0.93239
919.43796	0.93157
917.38105	0.93082
915.32414	0.92970
913.26723	0.92856
911.21033	0.92773
909.15342	0.92697
907.09651	0.92592
905.03960	0.92451
902.98269	0.92310
900.92578	0.92222
898.86888	0.92217
896.81197	0.92285
894.75506	0.92393
892.69815	0.92528
890.64124	0.92686
888.58434	0.92828
886.52743	0.92924
884.47052	0.93030
882.41361	0.93175
880.35670	0.93304
878.29979	0.93449
876.24289	0.93627
874.18598	0.93789
872.12907	0.94006
870.07216	0.94297
868.01525	0.94506
865.95835	0.94611
863.90144	0.94756
861.84453	0.94940
859.78762	0.95106
857.73071	0.95225
855.67380	0.95260
853.61690	0.95245
851.55999	0.95241
849.50308	0.95251
847.44617	0.95238
845.38926	0.95164
843.33236	0.95056
841.27545	0.94988
839.21854	0.94991
837.16163	0.95020
835.10472	0.95061
833.04781	0.95172
830.99091	0.95334
828.93400	0.95466
826.87709	0.95578
824.82018	0.95723
822.76327	0.95858
820.70637	0.95918
818.64946	0.95941
816.59255	0.95983
814.53564	0.96035
812.47873	0.96113
810.42182	0.96212
808.36492	0.96268
806.30801	0.96290
804.25110	0.96299
802.19419	0.96271
800.13728	0.96247
798.08038	0.96284
796.02347	0.96377
793.96656	0.96459
791.90965	0.96484
789.85274	0.96527
787.79583	0.96612
785.73893	0.96615
783.68202	0.96526
781.62511	0.96504
779.56820	0.96581
777.51129	0.96613
775.45439	0.96577
773.39748	0.96595
771.34057	0.96718
769.28366	0.96824
767.22675	0.96830
765.16984	0.96793
763.11294	0.96739
761.05603	0.96702
758.99912	0.96736
756.94221	0.96780
754.88530	0.96776
752.82839	0.96792
750.77149	0.96832
748.71458	0.96835
746.65767	0.96833
744.60076	0.96838
742.54385	0.96797
740.48695	0.96735
738.43004	0.96721
736.37313	0.96743
734.31622	0.96746
732.25931	0.96725
730.20240	0.96719
728.14550	0.96725
726.08859	0.96691
724.03168	0.96596
721.97477	0.96522
719.91786	0.96531
717.86096	0.96562
715.80405	0.96567
713.74714	0.96549
711.69023	0.96497
709.63332	0.96438
707.57641	0.96410
705.51951	0.96385
703.46260	0.96333
701.40569	0.96281
699.34878	0.96267
697.29187	0.96283
695.23497	0.96262
693.17806	0.96191
691.12115	0.96107
689.06424	0.96080
687.00733	0.96123
684.95042	0.96079
682.89352	0.95932
680.83661	0.95849
678.77970	0.95884
676.72279	0.95956
674.66588	0.95986
672.60898	0.95986
670.55207	0.96031
668.49516	0.96074
666.43825	0.96042
664.38134	0.96021
662.32443	0.95994
660.26753	0.95991
658.21062	0.95990
656.15371	0.95880
654.09680	0.95740
652.03989	0.95637
649.98299	0.95510
647.92608	0.95371
645.86917	0.95288
643.81226	0.95270
641.75535	0.95267
639.69844	0.95238
637.64154	0.95143
635.58463	0.94999
633.52772	0.94902
631.47081	0.94873
629.41390	0.94891
627.35700	0.94884
625.30009	0.94721
623.24318	0.94487
621.18627	0.94409
619.12936	0.94443
617.07245	0.94378
615.01555	0.94164
612.95864	0.93864
610.90173	0.93519
608.84482	0.93191
606.78791	0.92914
604.73101	0.92621
602.67410	0.92302
600.61719	0.92153
598.56028	0.92278
596.50337	0.92528
594.44646	0.92780
592.38956	0.93018
590.33265	0.93235
588.27574	0.93431
586.21883	0.93688
584.16192	0.93973
582.10502	0.94098
580.04811	0.94143
577.99120	0.94263
575.93429	0.94355
573.87738	0.94429
571.82047	0.94496
569.76357	0.94465
567.70666	0.94427
565.64975	0.94405
563.59284	0.94281
561.53593	0.94064
559.47903	0.93850
557.42212	0.93681
555.36521	0.93665
553.30830	0.93841
551.25139	0.93991
549.19448	0.94081
547.13758	0.94227
545.08067	0.94398
543.02376	0.94491
540.96685	0.94487
538.90994	0.94465
536.85304	0.94387
534.79613	0.94285
532.73922	0.94338
530.68231	0.94482
528.62540	0.94508
526.56849	0.94478
524.51159	0.94499
522.45468	0.94427
520.39777	0.94242
518.34086	0.94064
516.28395	0.93979
514.22705	0.94062
512.17014	0.94160
510.11323	0.94090
508.05632	0.94035
505.99941	0.94142
503.94250	0.94110
501.88560	0.93821
499.82869	0.93628
497.77178	0.93641
495.71487	0.93669
493.65796	0.93558
491.60106	0.93383
489.54415	0.93369
487.48724	0.93526
485.43033	0.93579
483.37342	0.93332
481.31651	0.93107
479.25961	0.93139
477.20270	0.93212
475.14579	0.93253
473.08888	0.93314
471.03197	0.93289
468.97507	0.93179
466.91816	0.93052
464.86125	0.92909
462.80434	0.92803
460.74743	0.92676
458.69052	0.92514
456.63362	0.92465
454.57671	0.92418
452.51980	0.92310
450.46289	0.92287
448.40598	0.92167
446.34908	0.91929
444.29217	0.91844
442.23526	0.91887
440.17835	0.92063
438.12144	0.92364
436.06453	0.92527
434.00763	0.92411
431.95072	0.92244
429.89381	0.92170
427.83690	0.92201
425.77999	0.92422
423.72309	0.92787
421.66618	0.93008
419.60927	0.92740
417.55236	0.92481
415.49545	0.92624
413.43854	0.92707
411.38164	0.92798
409.32473	0.93019
407.26782	0.93183
405.21091	0.93142
403.15400	0.92944
401.09710	0.92844
399.04019	0.93106
