3996.57260	0.98701
3994.51569	0.98767
3992.45878	0.98823
3990.40188	0.98845
3988.34497	0.98831
3986.28806	0.98803
3984.23115	0.98797
3982.17424	0.98795
3980.11733	0.98789
3978.06043	0.98766
3976.00352	0.98708
3973.94661	0.98671
3971.88970	0.98713
3969.83279	0.98775
3967.77589	0.98781
3965.71898	0.98763
3963.66207	0.98766
3961.60516	0.98779
3959.54825	0.98790
3957.49134	0.98795
3955.43444	0.98773
3953.37753	0.98733
3951.32062	0.98714
3949.26371	0.98708
3947.20680	0.98677
3945.14990	0.98649
3943.09299	0.98662
3941.03608	0.98672
3938.97917	0.98665
3936.92226	0.98659
3934.86535	0.98644
3932.80845	0.98654
3930.75154	0.98730
3928.69463	0.98808
3926.63772	0.98827
3924.58081	0.98792
3922.52391	0.98755
3920.46700	0.98773
3918.41009	0.98792
3916.35318	0.98757
3914.29627	0.98712
3912.23936	0.98694
3910.18246	0.98693
3908.12555	0.98705
3906.06864	0.98794
3904.01173	0.98941
3901.95482	0.98977
3899.89792	0.98882
3897.84101	0.98807
3895.78410	0.98783
3893.72719	0.98765
3891.67028	0.98767
3889.61337	0.98794
3887.55647	0.98814
3885.49956	0.98783
3883.44265	0.98745
3881.38574	0.98786
3879.32883	0.98848
3877.27193	0.98853
3875.21502	0.98815
3873.15811	0.98760
3871.10120	0.98720
3869.04429	0.98755
3866.98738	0.98820
3864.93048	0.98815
3862.87357	0.98734
3860.81666	0.98666
3858.75975	0.98703
3856.70284	0.98817
3854.64594	0.98884
3852.58903	0.98796
3850.53212	0.98741
3848.47521	0.98781
3846.41830	0.98814
3844.36139	0.98825
3842.30449	0.98843
3840.24758	0.98872
3838.19067	0.98886
3836.13376	0.98875
3834.07685	0.98863
3832.01995	0.98828
3829.96304	0.98785
3827.90613	0.98781
3825.84922	0.98762
3823.79231	0.98721
3821.73540	0.98702
3819.67850	0.98677
3817.62159	0.98670
3815.56468	0.98740
3813.50777	0.98811
3811.45086	0.98783
3809.39396	0.98710
3807.33705	0.98679
3805.28014	0.98698
3803.22323	0.98731
3801.16632	0.98766
3799.10941	0.98749
3797.05251	0.98709
3794.99560	0.98717
3792.93869	0.98726
3790.88178	0.98722
3788.82487	0.98726
3786.76796	0.98722
3784.71106	0.98732
3782.65415	0.98792
3780.59724	0.98864
3778.54033	0.98877
3776.48342	0.98831
3774.42652	0.98793
3772.36961	0.98817
3770.31270	0.98880
3768.25579	0.98927
3766.19888	0.98930
3764.14197	0.98883
3762.08507	0.98796
3760.02816	0.98728
3757.97125	0.98762
3755.91434	0.98824
3753.85743	0.98857
3751.80053	0.98945
3749.74362	0.99005
3747.68671	0.98931
3745.62980	0.98811
3743.57289	0.98708
3741.51598	0.98725
3739.45908	0.98789
3737.40217	0.98759
3735.34526	0.98654
3733.28835	0.98655
3731.23144	0.98740
3729.17454	0.98804
3727.11763	0.98821
3725.06072	0.98772
3723.00381	0.98718
3720.94690	0.98759
3718.88999	0.98831
3716.83309	0.98853
3714.77618	0.98847
3712.71927	0.98816
3710.66236	0.98769
3708.60545	0.98750
3706.54855	0.98784
3704.49164	0.98857
3702.43473	0.98893
3700.37782	0.98844
3698.32091	0.98779
3696.26400	0.98769
3694.20710	0.98822
3692.15019	0.98923
3690.09328	0.98963
3688.03637	0.98857
3685.97946	0.98809
3683.92256	0.98845
3681.86565	0.98896
3679.80874	0.98959
3677.75183	0.98941
3675.69492	0.98803
3673.63801	0.98707
3671.58111	0.98698
3669.52420	0.98691
3667.46729	0.98666
3665.41038	0.98630
3663.35347	0.98598
3661.29657	0.98611
3659.23966	0.98674
3657.18275	0.98709
3655.12584	0.98659
3653.06893	0.98605
3651.01202	0.98629
3648.95512	0.98668
3646.89821	0.98650
3644.84130	0.98624
3642.78439	0.98600
3640.72748	0.98638
3638.67058	0.98741
3636.61367	0.98807
3634.55676	0.98792
3632.49985	0.98738
3630.44294	0.98725
3628.38603	0.98736
3626.32913	0.98726
3624.27222	0.98764
3622.21531	0.98790
3620.15840	0.98685
3618.10149	0.98624
3616.04459	0.98716
3613.98768	0.98760
3611.93077	0.98721
3609.87386	0.98655
3607.81695	0.98641
3605.76004	0.98697
3603.70314	0.98718
3601.64623	0.98701
3599.58932	0.98691
3597.53241	0.98694
3595.47550	0.98688
3593.41860	0.98654
3591.36169	0.98634
3589.30478	0.98671
3587.24787	0.98729
3585.19096	0.98729
3583.13405	0.98673
3581.07715	0.98598
3579.02024	0.98580
3576.96333	0.98666
3574.90642	0.98759
3572.84951	0.98801
3570.79261	0.98818
3568.73570	0.98781
3566.67879	0.98659
3564.62188	0.98557
3562.56497	0.98540
3560.50806	0.98582
3558.45116	0.98654
3556.39425	0.98685
3554.33734	0.98636
3552.28043	0.98636
3550.22352	0.98749
3548.16662	0.98783
3546.10971	0.98730
3544.05280	0.98744
3541.99589	0.98759
3539.93898	0.98750
3537.88207	0.98774
3535.82517	0.98769
3533.76826	0.98719
3531.71135	0.98688
3529.65444	0.98677
3527.59753	0.98634
3525.54063	0.98567
3523.48372	0.98568
3521.42681	0.98649
3519.36990	0.98701
3517.31299	0.98670
3515.25608	0.98631
3513.19918	0.98626
3511.14227	0.98621
3509.08536	0.98621
3507.02845	0.98626
3504.97154	0.98619
3502.91464	0.98589
3500.85773	0.98564
3498.80082	0.98557
3496.74391	0.98529
3494.68700	0.98532
3492.63009	0.98610
3490.57319	0.98655
3488.51628	0.98604
3486.45937	0.98558
3484.40246	0.98570
3482.34555	0.98593
3480.28865	0.98628
3478.23174	0.98655
3476.17483	0.98626
3474.11792	0.98577
3472.06101	0.98573
3470.00410	0.98591
3467.94720	0.98589
3465.89029	0.98579
3463.83338	0.98573
3461.77647	0.98572
3459.71956	0.98577
3457.66266	0.98565
3455.60575	0.98562
3453.54884	0.98572
3451.49193	0.98577
3449.43502	0.98611
3447.37811	0.98662
3445.32121	0.98683
3443.26430	0.98662
3441.20739	0.98623
3439.15048	0.98633
3437.09357	0.98695
3435.03667	0.98717
3432.97976	0.98667
3430.92285	0.98623
3428.86594	0.98624
3426.80903	0.98617
3424.75212	0.98605
3422.69522	0.98613
3420.63831	0.98618
3418.58140	0.98642
3416.52449	0.98690
3414.46758	0.98715
3412.41068	0.98701
3410.35377	0.98705
3408.29686	0.98745
3406.23995	0.98738
3404.18304	0.98706
3402.12613	0.98722
3400.06923	0.98724
3398.01232	0.98702
3395.95541	0.98729
3393.89850	0.98752
3391.84159	0.98753
3389.78469	0.98751
3387.72778	0.98737
3385.67087	0.98746
3383.61396	0.98756
3381.55705	0.98760
3379.50014	0.98763
3377.44324	0.98738
3375.38633	0.98734
3373.32942	0.98768
3371.27251	0.98754
3369.21560	0.98691
3367.15870	0.98658
3365.10179	0.98652
3363.04488	0.98655
3360.98797	0.98685
3358.93106	0.98732
3356.87415	0.98767
3354.81725	0.98781
3352.76034	0.98764
3350.70343	0.98710
3348.64652	0.98667
3346.58961	0.98673
3344.53271	0.98680
3342.47580	0.98655
3340.41889	0.98626
3338.36198	0.98631
3336.30507	0.98659
3334.24816	0.98659
3332.19126	0.98652
3330.13435	0.98670
3328.07744	0.98683
3326.02053	0.98686
3323.96362	0.98696
3321.90672	0.98728
3319.84981	0.98769
3317.79290	0.98758
3315.73599	0.98692
3313.67908	0.98664
3311.62217	0.98698
3309.56527	0.98739
3307.50836	0.98762
3305.45145	0.98766
3303.39454	0.98758
3301.33763	0.98763
3299.28073	0.98747
3297.22382	0.98691
3295.16691	0.98678
3293.11000	0.98714
3291.05309	0.98742
3288.99618	0.98753
3286.93928	0.98760
3284.88237	0.98782
3282.82546	0.98787
3280.76855	0.98744
3278.71164	0.98692
3276.65474	0.98668
3274.59783	0.98684
3272.54092	0.98732
3270.48401	0.98752
3268.42710	0.98730
3266.37019	0.98727
3264.31329	0.98736
3262.25638	0.98733
3260.19947	0.98770
3258.14256	0.98805
3256.08565	0.98751
3254.02875	0.98681
3251.97184	0.98686
3249.91493	0.98736
3247.85802	0.98770
3245.80111	0.98736
3243.74420	0.98654
3241.68730	0.98635
3239.63039	0.98706
3237.57348	0.98779
3235.51657	0.98806
3233.45966	0.98826
3231.40276	0.98827
3229.34585	0.98776
3227.28894	0.98711
3225.23203	0.98669
3223.17512	0.98667
3221.11821	0.98686
3219.06131	0.98693
3217.00440	0.98665
3214.94749	0.98608
3212.89058	0.98600
3210.83367	0.98675
3208.77677	0.98770
3206.71986	0.98828
3204.66295	0.98811
3202.60604	0.98715
3200.54913	0.98628
3198.49222	0.98626
3196.43532	0.98673
3194.37841	0.98684
3192.32150	0.98659
3190.26459	0.98669
3188.20768	0.98703
3186.15078	0.98718
3184.09387	0.98719
3182.03696	0.98715
3179.98005	0.98714
3177.92314	0.98695
3175.86623	0.98703
3173.80933	0.98778
3171.75242	0.98816
3169.69551	0.98769
3167.63860	0.98718
3165.58169	0.98686
3163.52479	0.98653
3161.46788	0.98615
3159.41097	0.98591
3157.35406	0.98610
3155.29715	0.98671
3153.24024	0.98747
3151.18334	0.98786
3149.12643	0.98738
3147.06952	0.98666
3145.01261	0.98648
3142.95570	0.98630
3140.89880	0.98587
3138.84189	0.98607
3136.78498	0.98682
3134.72807	0.98699
3132.67116	0.98687
3130.61425	0.98718
3128.55735	0.98724
3126.50044	0.98666
3124.44353	0.98620
3122.38662	0.98648
3120.32971	0.98710
3118.27281	0.98733
3116.21590	0.98688
3114.15899	0.98645
3112.10208	0.98663
3110.04517	0.98688
3107.98826	0.98684
3105.93136	0.98639
3103.87445	0.98574
3101.81754	0.98575
3099.76063	0.98626
3097.70372	0.98643
3095.64682	0.98635
3093.58991	0.98622
3091.53300	0.98594
3089.47609	0.98578
3087.41918	0.98582
3085.36227	0.98581
3083.30537	0.98593
3081.24846	0.98639
3079.19155	0.98664
3077.13464	0.98634
3075.07773	0.98609
3073.02083	0.98621
3070.96392	0.98641
3068.90701	0.98663
3066.85010	0.98653
3064.79319	0.98620
3062.73628	0.98643
3060.67938	0.98679
3058.62247	0.98641
3056.56556	0.98587
3054.50865	0.98592
3052.45174	0.98605
3050.39484	0.98580
3048.33793	0.98554
3046.28102	0.98559
3044.22411	0.98584
3042.16720	0.98598
3040.11029	0.98606
3038.05339	0.98600
3035.99648	0.98560
3033.93957	0.98519
3031.88266	0.98507
3029.82575	0.98490
3027.76885	0.98447
3025.71194	0.98423
3023.65503	0.98435
3021.59812	0.98451
3019.54121	0.98452
3017.48430	0.98454
3015.42740	0.98473
3013.37049	0.98496
3011.31358	0.98516
3009.25667	0.98514
3007.19976	0.98485
3005.14286	0.98425
3003.08595	0.98345
3001.02904	0.98292
2998.97213	0.98277
2996.91522	0.98291
2994.85831	0.98308
2992.80141	0.98346
2990.74450	0.98406
2988.68759	0.98391
2986.63068	0.98288
2984.57377	0.98207
2982.51687	0.98196
2980.45996	0.98229
2978.40305	0.98267
2976.34614	0.98262
2974.28923	0.98220
2972.23232	0.98165
2970.17542	0.98098
2968.11851	0.98075
2966.06160	0.98079
2964.00469	0.98060
2961.94778	0.98059
2959.89088	0.98072
2957.83397	0.98051
2955.77706	0.97995
2953.72015	0.97929
2951.66324	0.97885
2949.60633	0.97871
2947.54943	0.97885
2945.49252	0.97939
2943.43561	0.97981
2941.37870	0.97951
2939.32179	0.97939
2937.26489	0.97998
2935.20798	0.98045
2933.15107	0.98068
2931.09416	0.98097
2929.03725	0.98117
2926.98034	0.98144
2924.92344	0.98177
2922.86653	0.98206
2920.80962	0.98250
2918.75271	0.98278
2916.69580	0.98238
2914.63890	0.98161
2912.58199	0.98116
2910.52508	0.98143
2908.46817	0.98202
2906.41126	0.98211
2904.35435	0.98196
2902.29745	0.98212
2900.24054	0.98205
2898.18363	0.98157
2896.12672	0.98153
2894.06981	0.98187
2892.01291	0.98197
2889.95600	0.98185
2887.89909	0.98180
2885.84218	0.98187
2883.78527	0.98188
2881.72836	0.98184
2879.67146	0.98192
2877.61455	0.98212
2875.55764	0.98205
2873.50073	0.98155
2871.44382	0.98119
2869.38692	0.98152
2867.33001	0.98218
2865.27310	0.98257
2863.21619	0.98265
2861.15928	0.98272
2859.10237	0.98287
2857.04547	0.98295
2854.98856	0.98311
2852.93165	0.98349
2850.87474	0.98372
2848.81783	0.98382
2846.76093	0.98404
2844.70402	0.98420
2842.64711	0.98449
2840.59020	0.98521
2838.53329	0.98570
2836.47638	0.98544
2834.41948	0.98506
2832.36257	0.98516
2830.30566	0.98533
2828.24875	0.98541
2826.19184	0.98569
2824.13494	0.98594
2822.07803	0.98593
2820.02112	0.98581
2817.96421	0.98583
2815.90730	0.98575
2813.85039	0.98545
2811.79349	0.98545
2809.73658	0.98561
2807.67967	0.98547
2805.62276	0.98522
2803.56585	0.98522
2801.50895	0.98538
2799.45204	0.98567
2797.39513	0.98623
2795.33822	0.98654
2793.28131	0.98610
2791.22440	0.98549
2789.16750	0.98519
2787.11059	0.98524
2785.05368	0.98550
2782.99677	0.98564
2780.93986	0.98560
2778.88296	0.98561
2776.82605	0.98576
2774.76914	0.98590
2772.71223	0.98588
2770.65532	0.98566
2768.59841	0.98560
2766.54151	0.98604
2764.48460	0.98636
2762.42769	0.98600
2760.37078	0.98566
2758.31387	0.98562
2756.25697	0.98570
2754.20006	0.98594
2752.14315	0.98586
2750.08624	0.98546
2748.02933	0.98544
2745.97242	0.98581
2743.91552	0.98598
2741.85861	0.98579
2739.80170	0.98563
2737.74479	0.98570
2735.68788	0.98574
2733.63098	0.98529
2731.57407	0.98485
2729.51716	0.98510
2727.46025	0.98554
2725.40334	0.98552
2723.34643	0.98545
2721.28953	0.98570
2719.23262	0.98599
2717.17571	0.98620
2715.11880	0.98632
2713.06189	0.98621
2711.00499	0.98585
2708.94808	0.98564
2706.89117	0.98556
2704.83426	0.98563
2702.77735	0.98594
2700.72044	0.98600
2698.66354	0.98589
2696.60663	0.98589
2694.54972	0.98578
2692.49281	0.98577
2690.43590	0.98591
2688.37900	0.98572
2686.32209	0.98529
2684.26518	0.98515
2682.20827	0.98531
2680.15136	0.98536
2678.09445	0.98535
2676.03755	0.98572
2673.98064	0.98615
2671.92373	0.98635
2669.86682	0.98655
2667.80991	0.98653
2665.75301	0.98616
2663.69610	0.98571
2661.63919	0.98539
2659.58228	0.98532
2657.52537	0.98558
2655.46846	0.98594
2653.41156	0.98584
2651.35465	0.98546
2649.29774	0.98549
2647.24083	0.98575
2645.18392	0.98569
2643.12702	0.98544
2641.07011	0.98546
2639.01320	0.98570
2636.95629	0.98567
2634.89938	0.98533
2632.84247	0.98528
2630.78557	0.98593
2628.72866	0.98660
2626.67175	0.98672
2624.61484	0.98648
2622.55793	0.98606
2620.50103	0.98592
2618.44412	0.98620
2616.38721	0.98623
2614.33030	0.98587
2612.27339	0.98567
2610.21648	0.98579
2608.15958	0.98594
2606.10267	0.98604
2604.04576	0.98619
2601.98885	0.98623
2599.93194	0.98617
2597.87504	0.98660
2595.81813	0.98711
2593.76122	0.98716
2591.70431	0.98731
2589.64740	0.98745
2587.59049	0.98712
2585.53359	0.98677
2583.47668	0.98673
2581.41977	0.98663
2579.36286	0.98654
2577.30595	0.98675
2575.24905	0.98747
2573.19214	0.98810
2571.13523	0.98750
2569.07832	0.98646
2567.02141	0.98615
2564.96450	0.98633
2562.90760	0.98686
2560.85069	0.98748
2558.79378	0.98769
2556.73687	0.98787
2554.67996	0.98816
2552.62306	0.98807
2550.56615	0.98758
2548.50924	0.98718
2546.45233	0.98731
2544.39542	0.98772
2542.33851	0.98762
2540.28161	0.98691
2538.22470	0.98651
2536.16779	0.98681
2534.11088	0.98692
2532.05397	0.98637
2529.99707	0.98601
2527.94016	0.98589
2525.88325	0.98566
2523.82634	0.98607
2521.76943	0.98695
2519.71252	0.98753
2517.65562	0.98783
2515.59871	0.98748
2513.54180	0.98632
2511.48489	0.98574
2509.42798	0.98625
2507.37108	0.98655
2505.31417	0.98650
2503.25726	0.98674
2501.20035	0.98727
2499.14344	0.98817
2497.08653	0.98916
2495.02963	0.98928
2492.97272	0.98854
2490.91581	0.98813
2488.85890	0.98824
2486.80199	0.98825
2484.74509	0.98809
2482.68818	0.98768
2480.63127	0.98729
2478.57436	0.98740
2476.51745	0.98765
2474.46054	0.98763
2472.40364	0.98734
2470.34673	0.98692
2468.28982	0.98696
2466.23291	0.98728
2464.17600	0.98710
2462.11910	0.98711
2460.06219	0.98765
2458.00528	0.98770
2455.94837	0.98732
2453.89146	0.98742
2451.83455	0.98794
2449.77765	0.98821
2447.72074	0.98803
2445.66383	0.98756
2443.60692	0.98706
2441.55001	0.98645
2439.49311	0.98570
2437.43620	0.98561
2435.37929	0.98635
2433.32238	0.98711
2431.26547	0.98760
2429.20856	0.98813
2427.15166	0.98848
2425.09475	0.98817
2423.03784	0.98755
2420.98093	0.98707
2418.92402	0.98696
2416.86712	0.98708
2414.81021	0.98683
2412.75330	0.98629
2410.69639	0.98603
2408.63948	0.98619
2406.58257	0.98661
2404.52567	0.98714
2402.46876	0.98752
2400.41185	0.98781
2398.35494	0.98788
2396.29803	0.98756
2394.24113	0.98750
2392.18422	0.98784
2390.12731	0.98780
2388.07040	0.98714
2386.01349	0.98658
2383.95658	0.98670
2381.89968	0.98685
2379.84277	0.98676
2377.78586	0.98701
2375.72895	0.98753
2373.67204	0.98789
2371.61514	0.98763
2369.55823	0.98729
2367.50132	0.98749
2365.44441	0.98750
2363.38750	0.98725
2361.33059	0.98707
2359.27369	0.98704
2357.21678	0.98690
2355.15987	0.98654
2353.10296	0.98671
2351.04605	0.98720
2348.98915	0.98740
2346.93224	0.98753
2344.87533	0.98773
2342.81842	0.98776
2340.76151	0.98789
2338.70460	0.98825
2336.64770	0.98836
2334.59079	0.98849
2332.53388	0.98889
2330.47697	0.98917
2328.42006	0.98861
2326.36316	0.98758
2324.30625	0.98718
2322.24934	0.98718
2320.19243	0.98675
2318.13552	0.98607
2316.07861	0.98583
2314.02171	0.98609
2311.96480	0.98637
2309.90789	0.98655
2307.85098	0.98674
2305.79407	0.98663
2303.73717	0.98639
2301.68026	0.98664
2299.62335	0.98714
2297.56644	0.98741
2295.50953	0.98751
2293.45262	0.98735
2291.39572	0.98705
2289.33881	0.98669
2287.28190	0.98639
2285.22499	0.98636
2283.16808	0.98647
2281.11117	0.98702
2279.05427	0.98776
2276.99736	0.98777
2274.94045	0.98745
2272.88354	0.98742
2270.82663	0.98789
2268.76973	0.98841
2266.71282	0.98784
2264.65591	0.98673
2262.59900	0.98597
2260.54209	0.98562
2258.48518	0.98615
2256.42828	0.98720
2254.37137	0.98788
2252.31446	0.98822
2250.25755	0.98802
2248.20064	0.98767
2246.14374	0.98774
2244.08683	0.98700
2242.02992	0.98590
2239.97301	0.98607
2237.91610	0.98641
2235.85919	0.98613
2233.80229	0.98626
2231.74538	0.98615
2229.68847	0.98503
2227.63156	0.98425
2225.57465	0.98410
2223.51775	0.98396
2221.46084	0.98462
2219.40393	0.98638
2217.34702	0.98771
2215.29011	0.98823
2213.23320	0.98826
2211.17630	0.98772
2209.11939	0.98781
2207.06248	0.98868
2205.00557	0.98872
2202.94866	0.98817
2200.89176	0.98860
2198.83485	0.99013
2196.77794	0.99081
2194.72103	0.98960
2192.66412	0.98798
2190.60721	0.98734
2188.55031	0.98793
2186.49340	0.98891
2184.43649	0.98848
2182.37958	0.98657
2180.32267	0.98549
2178.26577	0.98584
2176.20886	0.98609
2174.15195	0.98715
2172.09504	0.98899
2170.03813	0.98882
2167.98122	0.98791
2165.92432	0.98739
2163.86741	0.98466
2161.81050	0.98231
2159.75359	0.98451
2157.69668	0.98821
2155.63978	0.98961
2153.58287	0.98912
2151.52596	0.98879
2149.46905	0.98982
2147.41214	0.99076
2145.35523	0.98974
2143.29833	0.98765
2141.24142	0.98631
2139.18451	0.98631
2137.12760	0.98775
2135.07069	0.98988
2133.01379	0.99114
2130.95688	0.99062
2128.89997	0.98939
2126.84306	0.98865
2124.78615	0.98810
2122.72924	0.98834
2120.67234	0.98980
2118.61543	0.99040
2116.55852	0.98864
2114.50161	0.98627
2112.44470	0.98507
2110.38780	0.98486
2108.33089	0.98534
2106.27398	0.98603
2104.21707	0.98628
2102.16016	0.98613
2100.10325	0.98595
2098.04635	0.98591
2095.98944	0.98609
2093.93253	0.98631
2091.87562	0.98670
2089.81871	0.98798
2087.76181	0.98931
2085.70490	0.98913
2083.64799	0.98808
2081.59108	0.98735
2079.53417	0.98663
2077.47726	0.98605
2075.42036	0.98683
2073.36345	0.98868
2071.30654	0.98974
2069.24963	0.98972
2067.19272	0.98986
2065.13582	0.98996
2063.07891	0.98998
2061.02200	0.98961
2058.96509	0.98832
2056.90818	0.98769
2054.85127	0.98733
2052.79437	0.98585
2050.73746	0.98514
2048.68055	0.98566
2046.62364	0.98633
2044.56673	0.98771
2042.50983	0.98868
2040.45292	0.98889
2038.39601	0.98968
2036.33910	0.98973
2034.28219	0.98902
2032.22528	0.98901
2030.16838	0.98884
2028.11147	0.98846
2026.05456	0.98849
2023.99765	0.98764
2021.94074	0.98586
2019.88384	0.98611
2017.82693	0.98952
2015.77002	0.99222
2013.71311	0.99202
2011.65620	0.99092
2009.59929	0.98966
2007.54239	0.98853
2005.48548	0.98887
2003.42857	0.98957
2001.37166	0.98833
1999.31475	0.98625
1997.25785	0.98540
1995.20094	0.98566
1993.14403	0.98658
1991.08712	0.98811
1989.03021	0.99014
1986.97330	0.99208
1984.91640	0.99245
1982.85949	0.99149
1980.80258	0.99100
1978.74567	0.99040
1976.68876	0.98896
1974.63186	0.98711
1972.57495	0.98649
1970.51804	0.98825
1968.46113	0.98902
1966.40422	0.98805
1964.34731	0.98770
1962.29041	0.98740
1960.23350	0.98717
1958.17659	0.98742
1956.11968	0.98794
1954.06277	0.98914
1952.00587	0.99053
1949.94896	0.99070
1947.89205	0.98971
1945.83514	0.98880
1943.77823	0.98847
1941.72132	0.98872
1939.66442	0.98883
1937.60751	0.98852
1935.55060	0.98858
1933.49369	0.98924
1931.43678	0.99018
1929.37988	0.99063
1927.32297	0.99023
1925.26606	0.98984
1923.20915	0.98944
1921.15224	0.98846
1919.09533	0.98752
1917.03843	0.98709
1914.98152	0.98718
1912.92461	0.98795
1910.86770	0.98876
1908.81079	0.98922
1906.75389	0.98984
1904.69698	0.99045
1902.64007	0.99054
1900.58316	0.99000
1898.52625	0.98958
1896.46934	0.98965
1894.41244	0.98972
1892.35553	0.98989
1890.29862	0.99016
1888.24171	0.99038
1886.18480	0.99077
1884.12790	0.99077
1882.07099	0.99010
1880.01408	0.98979
1877.95717	0.99030
1875.90026	0.99088
1873.84335	0.99100
1871.78645	0.99076
1869.72954	0.99011
1867.67263	0.98950
1865.61572	0.98949
1863.55881	0.98978
1861.50191	0.99027
1859.44500	0.99077
1857.38809	0.99071
1855.33118	0.99013
1853.27427	0.98979
1851.21736	0.98980
1849.16046	0.98974
1847.10355	0.98993
1845.04664	0.99035
1842.98973	0.98996
1840.93282	0.98896
1838.87592	0.98868
1836.81901	0.98925
1834.76210	0.98986
1832.70519	0.99009
1830.64828	0.99022
1828.59137	0.99042
1826.53447	0.99061
1824.47756	0.99031
1822.42065	0.98982
1820.36374	0.98978
1818.30683	0.98980
1816.24993	0.98951
1814.19302	0.98906
1812.13611	0.98895
1810.07920	0.98912
1808.02229	0.98900
1805.96538	0.98854
1803.90848	0.98821
1801.85157	0.98804
1799.79466	0.98772
1797.73775	0.98695
1795.68084	0.98611
1793.62394	0.98584
1791.56703	0.98563
1789.51012	0.98471
1787.45321	0.98364
1785.39630	0.98263
1783.33939	0.98118
1781.28249	0.97921
1779.22558	0.97669
1777.16867	0.97384
1775.11176	0.97040
1773.05485	0.96501
1770.99795	0.95776
1768.94104	0.94991
1766.88413	0.94082
1764.82722	0.93113
1762.77031	0.91993
1760.71340	0.90717
1758.65650	0.89649
1756.59959	0.88679
1754.54268	0.87856
1752.48577	0.87227
1750.42886	0.86551
1748.37196	0.85889
1746.31505	0.85388
1744.25814	0.84944
1742.20123	0.84536
1740.14432	0.84217
1738.08741	0.84078
1736.03051	0.84133
1733.97360	0.84329
1731.91669	0.84810
1729.85978	0.85564
1727.80287	0.86477
1725.74597	0.87475
1723.68906	0.88540
1721.63215	0.89553
1719.57524	0.90484
1717.51833	0.91436
1715.46142	0.92272
1713.40452	0.92903
1711.34761	0.93423
1709.29070	0.93837
1707.23379	0.94162
1705.17688	0.94484
1703.11998	0.94836
1701.06307	0.95191
1699.00616	0.95485
1696.94925	0.95696
1694.89234	0.95879
1692.83543	0.96046
1690.77853	0.96212
1688.72162	0.96361
1686.66471	0.96506
1684.60780	0.96667
1682.55089	0.96756
1680.49399	0.96812
1678.43708	0.96887
1676.38017	0.96955
1674.32326	0.97005
1672.26635	0.97052
1670.20944	0.97074
1668.15254	0.97067
1666.09563	0.97099
1664.03872	0.97156
1661.98181	0.97224
1659.92490	0.97290
1657.86800	0.97320
1655.81109	0.97304
1653.75418	0.97214
1651.69727	0.97147
1649.64036	0.97208
1647.58345	0.97263
1645.52655	0.97265
1643.46964	0.97298
1641.41273	0.97363
1639.35582	0.97433
1637.29891	0.97494
1635.24201	0.97530
1633.18510	0.97553
1631.12819	0.97582
1629.07128	0.97605
1627.01437	0.97625
1624.95746	0.97667
1622.90056	0.97720
1620.84365	0.97756
1618.78674	0.97795
1616.72983	0.97827
1614.67292	0.97838
1612.61602	0.97862
1610.55911	0.97884
1608.50220	0.97912
1606.44529	0.97960
1604.38838	0.97997
1602.33147	0.98032
1600.27457	0.98074
1598.21766	0.98086
1596.16075	0.98085
1594.10384	0.98112
1592.04693	0.98143
1589.99003	0.98136
1587.93312	0.98119
1585.87621	0.98141
1583.81930	0.98174
1581.76239	0.98186
1579.70548	0.98193
1577.64858	0.98181
1575.59167	0.98136
1573.53476	0.98141
1571.47785	0.98191
1569.42094	0.98231
1567.36404	0.98247
1565.30713	0.98251
1563.25022	0.98262
1561.19331	0.98296
1559.13640	0.98339
1557.07949	0.98309
1555.02259	0.98263
1552.96568	0.98268
1550.90877	0.98289
1548.85186	0.98273
1546.79495	0.98262
1544.73805	0.98303
1542.68114	0.98359
1540.62423	0.98387
1538.56732	0.98393
1536.51041	0.98375
1534.45350	0.98342
1532.39660	0.98320
1530.33969	0.98317
1528.28278	0.98314
1526.22587	0.98303
1524.16896	0.98292
1522.11206	0.98304
1520.05515	0.98330
1517.99824	0.98331
1515.94133	0.98325
1513.88442	0.98327
1511.82751	0.98342
1509.77061	0.98365
1507.71370	0.98355
1505.65679	0.98332
1503.59988	0.98368
1501.54297	0.98424
1499.48607	0.98472
1497.42916	0.98481
1495.37225	0.98439
1493.31534	0.98392
1491.25843	0.98372
1489.20152	0.98390
1487.14462	0.98413
1485.08771	0.98402
1483.03080	0.98378
1480.97389	0.98361
1478.91698	0.98353
1476.86008	0.98338
1474.80317	0.98303
1472.74626	0.98239
1470.68935	0.98130
1468.63244	0.98003
1466.57553	0.97872
1464.51863	0.97747
1462.46172	0.97660
1460.40481	0.97607
1458.34790	0.97519
1456.29099	0.97349
1454.23409	0.97222
1452.17718	0.97177
1450.12027	0.97129
1448.06336	0.97011
1446.00645	0.96863
1443.94954	0.96748
1441.89264	0.96641
1439.83573	0.96523
1437.77882	0.96395
1435.72191	0.96256
1433.66500	0.96171
1431.60810	0.96147
1429.55119	0.96185
1427.49428	0.96277
1425.43737	0.96390
1423.38046	0.96525
1421.32355	0.96688
1419.26665	0.96856
1417.20974	0.96972
1415.15283	0.97042
1413.09592	0.97113
1411.03901	0.97183
1408.98211	0.97242
1406.92520	0.97302
1404.86829	0.97357
1402.81138	0.97370
1400.75447	0.97353
1398.69756	0.97309
1396.64066	0.97184
1394.58375	0.96941
1392.52684	0.96616
1390.46993	0.96250
1388.41302	0.95777
1386.35612	0.95169
1384.29921	0.94561
1382.24230	0.93985
1380.18539	0.93420
1378.12848	0.92899
1376.07157	0.92389
1374.01467	0.91804
1371.95776	0.91222
1369.90085	0.90761
1367.84394	0.90424
1365.78703	0.90322
1363.73013	0.90584
1361.67322	0.91253
1359.61631	0.92211
1357.55940	0.93294
1355.50249	0.94368
1353.44558	0.95291
1351.38868	0.95959
1349.33177	0.96383
1347.27486	0.96671
1345.21795	0.96899
1343.16104	0.97064
1341.10414	0.97173
1339.04723	0.97264
1336.99032	0.97333
1334.93341	0.97356
1332.87650	0.97343
1330.81959	0.97304
1328.76269	0.97258
1326.70578	0.97227
1324.64887	0.97211
1322.59196	0.97205
1320.53505	0.97228
1318.47815	0.97278
1316.42124	0.97324
1314.36433	0.97364
1312.30742	0.97414
1310.25051	0.97467
1308.19360	0.97532
1306.13670	0.97600
1304.07979	0.97624
1302.02288	0.97595
1299.96597	0.97533
1297.90906	0.97456
1295.85216	0.97396
1293.79525	0.97345
1291.73834	0.97270
1289.68143	0.97183
1287.62452	0.97103
1285.56761	0.97006
1283.51071	0.96865
1281.45380	0.96688
1279.39689	0.96491
1277.33998	0.96261
1275.28307	0.95979
1273.22617	0.95661
1271.16926	0.95337
1269.11235	0.94987
1267.05544	0.94563
1264.99853	0.94066
1262.94162	0.93528
1260.88472	0.92979
1258.82781	0.92416
1256.77090	0.91799
1254.71399	0.91121
1252.65708	0.90393
1250.60018	0.89613
1248.54327	0.88818
1246.48636	0.88022
1244.42945	0.87187
1242.37254	0.86301
1240.31563	0.85397
1238.25873	0.84514
1236.20182	0.83674
1234.14491	0.82905
1232.08800	0.82237
1230.03109	0.81666
1227.97419	0.81197
1225.91728	0.80854
1223.86037	0.80631
1221.80346	0.80464
1219.74655	0.80282
1217.68964	0.80079
1215.63274	0.79882
1213.57583	0.79707
1211.51892	0.79599
1209.46201	0.79639
1207.40510	0.79907
1205.34820	0.80448
1203.29129	0.81266
1201.23438	0.82339
1199.17747	0.83599
1197.12056	0.84921
1195.06365	0.86186
1193.00675	0.87334
1190.94984	0.88317
1188.89293	0.89106
1186.83602	0.89713
1184.77911	0.90148
1182.72221	0.90417
1180.66530	0.90539
1178.60839	0.90563
1176.55148	0.90538
1174.49457	0.90499
1172.43766	0.90460
1170.38076	0.90401
1168.32385	0.90350
1166.26694	0.90342
1164.21003	0.90373
1162.15312	0.90453
1160.09622	0.90586
1158.03931	0.90749
1155.98240	0.90951
1153.92549	0.91197
1151.86858	0.91452
1149.81167	0.91702
1147.75477	0.91953
1145.69786	0.92166
1143.64095	0.92291
1141.58404	0.92334
1139.52713	0.92359
1137.47023	0.92361
1135.41332	0.92264
1133.35641	0.92112
1131.29950	0.91965
1129.24259	0.91791
1127.18568	0.91628
1125.12878	0.91534
1123.07187	0.91486
1121.01496	0.91490
1118.95805	0.91555
1116.90114	0.91630
1114.84424	0.91693
1112.78733	0.91756
1110.73042	0.91806
1108.67351	0.91832
1106.61660	0.91842
1104.55969	0.91828
1102.50279	0.91769
1100.44588	0.91614
1098.38897	0.91311
1096.33206	0.90900
1094.27515	0.90482
1092.21825	0.90071
1090.16134	0.89619
1088.10443	0.89158
1086.04752	0.88732
1083.99061	0.88351
1081.93370	0.88013
1079.87680	0.87672
1077.81989	0.87289
1075.76298	0.86887
1073.70607	0.86482
1071.64916	0.86098
1069.59226	0.85771
1067.53535	0.85496
1065.47844	0.85220
1063.42153	0.84899
1061.36462	0.84521
1059.30771	0.84076
1057.25081	0.83559
1055.19390	0.82990
1053.13699	0.82397
1051.08008	0.81804
1049.02317	0.81260
1046.96627	0.80794
1044.90936	0.80406
1042.85245	0.80069
1040.79554	0.79748
1038.73863	0.79471
1036.68172	0.79256
1034.62482	0.79060
1032.56791	0.78887
1030.51100	0.78826
1028.45409	0.78941
1026.39718	0.79213
1024.34028	0.79597
1022.28337	0.80041
1020.22646	0.80520
1018.16955	0.81056
1016.11264	0.81621
1014.05573	0.82156
1011.99883	0.82680
1009.94192	0.83231
1007.88501	0.83789
1005.82810	0.84342
1003.77119	0.84870
1001.71429	0.85344
999.65738	0.85771
997.60047	0.86154
995.54356	0.86484
993.48665	0.86731
991.42974	0.86905
989.37284	0.87075
987.31593	0.87267
985.25902	0.87478
983.20211	0.87717
981.14520	0.87987
979.08830	0.88281
977.03139	0.88598
974.97448	0.88936
972.91757	0.89297
970.86066	0.89669
968.80375	0.90024
966.74685	0.90331
964.68994	0.90555
962.63303	0.90670
960.57612	0.90716
958.51921	0.90760
956.46231	0.90794
954.40540	0.90817
952.34849	0.90873
950.29158	0.90959
948.23467	0.91070
946.17776	0.91238
944.12086	0.91468
942.06395	0.91681
940.00704	0.91818
937.95013	0.91928
935.89322	0.92023
933.83632	0.92061
931.77941	0.92051
929.72250	0.92045
927.66559	0.92045
925.60868	0.92032
923.55177	0.91990
921.49487	0.91867
919.43796	0.91705
917.38105	0.91616
915.32414	0.91563
913.26723	0.91444
911.21033	0.91230
909.15342	0.90933
907.09651	0.90574
905.03960	0.90201
902.98269	0.89879
900.92578	0.89646
898.86888	0.89562
896.81197	0.89670
894.75506	0.89890
892.69815	0.90166
890.64124	0.90509
888.58434	0.90839
886.52743	0.91084
884.47052	0.91269
882.41361	0.91411
880.35670	0.91487
878.29979	0.91514
876.24289	0.91530
874.18598	0.91554
872.12907	0.91668
870.07216	0.91940
868.01525	0.92282
865.95835	0.92612
863.90144	0.92920
861.84453	0.93156
859.78762	0.93308
857.73071	0.93419
855.67380	0.93536
853.61690	0.93664
851.55999	0.93761
849.50308	0.93800
847.44617	0.93765
845.38926	0.93698
843.33236	0.93611
841.27545	0.93469
839.21854	0.93344
837.16163	0.93309
835.10472	0.93398
833.04781	0.93590
830.99091	0.93773
828.93400	0.93914
826.87709	0.94059
824.82018	0.94239
822.76327	0.94422
820.70637	0.94567
818.64946	0.94664
816.59255	0.94710
814.53564	0.94769
812.47873	0.94848
810.42182	0.94863
808.36492	0.94893
806.30801	0.95022
804.25110	0.95144
802.19419	0.95184
800.13728	0.95198
798.08038	0.95220
796.02347	0.95201
793.96656	0.95163
791.90965	0.95198
789.85274	0.95270
787.79583	0.95327
785.73893	0.95386
783.68202	0.95437
781.62511	0.95457
779.56820	0.95486
777.51129	0.95546
775.45439	0.95574
773.39748	0.95587
771.34057	0.95610
769.28366	0.95621
767.22675	0.95637
765.16984	0.95683
763.11294	0.95735
761.05603	0.95728
758.99912	0.95703
756.94221	0.95729
754.88530	0.95739
752.82839	0.95693
750.77149	0.95643
748.71458	0.95621
746.65767	0.95663
744.60076	0.95768
742.54385	0.95858
740.48695	0.95894
738.43004	0.95888
736.37313	0.95882
734.31622	0.95876
732.25931	0.95803
730.20240	0.95687
728.14550	0.95613
726.08859	0.95582
724.03168	0.95550
721.97477	0.95494
719.91786	0.95440
717.86096	0.95440
715.80405	0.95480
713.74714	0.95488
711.69023	0.95438
709.63332	0.95375
707.57641	0.95342
705.51951	0.95272
703.46260	0.95124
701.40569	0.94997
699.34878	0.94983
697.29187	0.95054
695.23497	0.95070
693.17806	0.95014
691.12115	0.94991
689.06424	0.94973
687.00733	0.94960
684.95042	0.95006
682.89352	0.95055
680.83661	0.95113
678.77970	0.95191
676.72279	0.95237
674.66588	0.95236
672.60898	0.95237
670.55207	0.95298
668.49516	0.95323
666.43825	0.95174
664.38134	0.95077
662.32443	0.95058
660.26753	0.94997
658.21062	0.94930
656.15371	0.94861
654.09680	0.94718
652.03989	0.94564
649.98299	0.94459
647.92608	0.94382
645.86917	0.94294
643.81226	0.94223
641.75535	0.94226
639.69844	0.94274
637.64154	0.94319
635.58463	0.94356
633.52772	0.94347
631.47081	0.94278
629.41390	0.94170
627.35700	0.94024
625.30009	0.93891
623.24318	0.93829
621.18627	0.93750
619.12936	0.93521
617.07245	0.93262
615.01555	0.93118
612.95864	0.92907
610.90173	0.92557
608.84482	0.92110
606.78791	0.91488
604.73101	0.90853
602.67410	0.90493
600.61719	0.90383
598.56028	0.90431
596.50337	0.90683
594.44646	0.91050
592.38956	0.91374
590.33265	0.91654
588.27574	0.92008
586.21883	0.92500
584.16192	0.93035
582.10502	0.93434
580.04811	0.93705
577.99120	0.93969
575.93429	0.94142
573.87738	0.94130
571.82047	0.94080
569.76357	0.94089
567.70666	0.94099
565.64975	0.94060
563.59284	0.93885
561.53593	0.93633
559.47903	0.93463
557.42212	0.93325
555.36521	0.93261
553.30830	0.93356
551.25139	0.93564
549.19448	0.93933
547.13758	0.94305
545.08067	0.94298
543.02376	0.94069
540.96685	0.94098
538.90994	0.94350
536.85304	0.94477
534.79613	0.94430
532.73922	0.94390
530.68231	0.94417
528.62540	0.94442
526.56849	0.94391
524.51159	0.94338
522.45468	0.94384
520.39777	0.94456
518.34086	0.94540
516.28395	0.94581
514.22705	0.94503
512.17014	0.94406
510.11323	0.94387
508.05632	0.94445
505.99941	0.94489
503.94250	0.94383
501.88560	0.94125
499.82869	0.93899
497.77178	0.93748
495.71487	0.93612
493.65796	0.93581
491.60106	0.93705
489.54415	0.93774
487.48724	0.93619
485.43033	0.93400
483.37342	0.93321
481.31651	0.93335
479.25961	0.93326
477.20270	0.93309
475.14579	0.93327
473.08888	0.93366
471.03197	0.93418
468.97507	0.93492
466.91816	0.93562
464.86125	0.93591
462.80434	0.93500
460.74743	0.93271
458.69052	0.93070
456.63362	0.92874
454.57671	0.92691
452.51980	0.92642
450.46289	0.92510
448.40598	0.92233
446.34908	0.92026
444.29217	0.92122
442.23526	0.92472
440.17835	0.92633
438.12144	0.92635
436.06453	0.92844
434.00763	0.93154
431.95072	0.93123
429.89381	0.92822
427.83690	0.92869
425.77999	0.93389
423.72309	0.93595
421.66618	0.93200
419.60927	0.92872
417.55236	0.92811
415.49545	0.92768
413.43854	0.92670
411.38164	0.92551
409.32473	0.92536
407.26782	0.92555
405.21091	0.92461
403.15400	0.92136
401.09710	0.91608
399.04019	0.91381
