3996.57260	0.98990
3994.51569	0.98970
3992.45878	0.98990
3990.40188	0.98997
3988.34497	0.98993
3986.28806	0.99045
3984.23115	0.99113
3982.17424	0.99092
3980.11733	0.99031
3978.06043	0.99035
3976.00352	0.99064
3973.94661	0.99074
3971.88970	0.99076
3969.83279	0.99069
3967.77589	0.99050
3965.71898	0.99032
3963.66207	0.99035
3961.60516	0.99072
3959.54825	0.99136
3957.49134	0.99163
3955.43444	0.99155
3953.37753	0.99162
3951.32062	0.99173
3949.26371	0.99158
3947.20680	0.99096
3945.14990	0.98994
3943.09299	0.98934
3941.03608	0.98998
3938.97917	0.99094
3936.92226	0.99120
3934.86535	0.99117
3932.80845	0.99110
3930.75154	0.99093
3928.69463	0.99086
3926.63772	0.99080
3924.58081	0.99043
3922.52391	0.99024
3920.46700	0.99071
3918.41009	0.99105
3916.35318	0.99104
3914.29627	0.99132
3912.23936	0.99166
3910.18246	0.99176
3908.12555	0.99151
3906.06864	0.99110
3904.01173	0.99092
3901.95482	0.99057
3899.89792	0.99000
3897.84101	0.99032
3895.78410	0.99110
3893.72719	0.99127
3891.67028	0.99096
3889.61337	0.99074
3887.55647	0.99062
3885.49956	0.99034
3883.44265	0.99003
3881.38574	0.99012
3879.32883	0.99033
3877.27193	0.98985
3875.21502	0.98919
3873.15811	0.98969
3871.10120	0.99112
3869.04429	0.99164
3866.98738	0.99080
3864.93048	0.98985
3862.87357	0.98976
3860.81666	0.99034
3858.75975	0.99058
3856.70284	0.99069
3854.64594	0.99138
3852.58903	0.99161
3850.53212	0.99138
3848.47521	0.99160
3846.41830	0.99145
3844.36139	0.99099
3842.30449	0.99112
3840.24758	0.99155
3838.19067	0.99177
3836.13376	0.99176
3834.07685	0.99130
3832.01995	0.99053
3829.96304	0.98993
3827.90613	0.98996
3825.84922	0.99085
3823.79231	0.99186
3821.73540	0.99181
3819.67850	0.99061
3817.62159	0.98970
3815.56468	0.98986
3813.50777	0.99023
3811.45086	0.99027
3809.39396	0.99050
3807.33705	0.99100
3805.28014	0.99147
3803.22323	0.99177
3801.16632	0.99194
3799.10941	0.99179
3797.05251	0.99154
3794.99560	0.99179
3792.93869	0.99235
3790.88178	0.99255
3788.82487	0.99237
3786.76796	0.99212
3784.71106	0.99176
3782.65415	0.99150
3780.59724	0.99151
3778.54033	0.99118
3776.48342	0.99053
3774.42652	0.99031
3772.36961	0.99076
3770.31270	0.99164
3768.25579	0.99156
3766.19888	0.99055
3764.14197	0.99019
3762.08507	0.99056
3760.02816	0.99121
3757.97125	0.99129
3755.91434	0.99038
3753.85743	0.98983
3751.80053	0.99016
3749.74362	0.99032
3747.68671	0.99051
3745.62980	0.99109
3743.57289	0.99082
3741.51598	0.99009
3739.45908	0.99016
3737.40217	0.99061
3735.34526	0.99120
3733.28835	0.99159
3731.23144	0.99149
3729.17454	0.99157
3727.11763	0.99136
3725.06072	0.99048
3723.00381	0.99001
3720.94690	0.99007
3718.88999	0.98988
3716.83309	0.98963
3714.77618	0.98929
3712.71927	0.98852
3710.66236	0.98832
3708.60545	0.98879
3706.54855	0.98877
3704.49164	0.98843
3702.43473	0.98836
3700.37782	0.98898
3698.32091	0.99005
3696.26400	0.99101
3694.20710	0.99146
3692.15019	0.99170
3690.09328	0.99163
3688.03637	0.99074
3685.97946	0.99023
3683.92256	0.99085
3681.86565	0.99182
3679.80874	0.99177
3677.75183	0.99066
3675.69492	0.98989
3673.63801	0.99027
3671.58111	0.99106
3669.52420	0.99133
3667.46729	0.99113
3665.41038	0.99126
3663.35347	0.99131
3661.29657	0.99081
3659.23966	0.99012
3657.18275	0.98969
3655.12584	0.98956
3653.06893	0.98970
3651.01202	0.98992
3648.95512	0.98960
3646.89821	0.98874
3644.84130	0.98883
3642.78439	0.98939
3640.72748	0.98900
3638.67058	0.98825
3636.61367	0.98824
3634.55676	0.98862
3632.49985	0.98905
3630.44294	0.98922
3628.38603	0.98895
3626.32913	0.98895
3624.27222	0.98923
3622.21531	0.98939
3620.15840	0.98931
3618.10149	0.98901
3616.04459	0.98836
3613.98768	0.98780
3611.93077	0.98758
3609.87386	0.98747
3607.81695	0.98785
3605.76004	0.98825
3603.70314	0.98806
3601.64623	0.98774
3599.58932	0.98755
3597.53241	0.98741
3595.47550	0.98714
3593.41860	0.98661
3591.36169	0.98638
3589.30478	0.98657
3587.24787	0.98684
3585.19096	0.98722
3583.13405	0.98774
3581.07715	0.98797
3579.02024	0.98763
3576.96333	0.98761
3574.90642	0.98738
3572.84951	0.98565
3570.79261	0.98396
3568.73570	0.98374
3566.67879	0.98407
3564.62188	0.98366
3562.56497	0.98313
3560.50806	0.98311
3558.45116	0.98326
3556.39425	0.98322
3554.33734	0.98306
3552.28043	0.98297
3550.22352	0.98333
3548.16662	0.98413
3546.10971	0.98429
3544.05280	0.98328
3541.99589	0.98231
3539.93898	0.98178
3537.88207	0.98146
3535.82517	0.98165
3533.76826	0.98189
3531.71135	0.98123
3529.65444	0.98030
3527.59753	0.98022
3525.54063	0.98057
3523.48372	0.98050
3521.42681	0.98003
3519.36990	0.97990
3517.31299	0.98051
3515.25608	0.98089
3513.19918	0.98060
3511.14227	0.97995
3509.08536	0.97938
3507.02845	0.97936
3504.97154	0.97931
3502.91464	0.97862
3500.85773	0.97770
3498.80082	0.97708
3496.74391	0.97691
3494.68700	0.97708
3492.63009	0.97738
3490.57319	0.97753
3488.51628	0.97748
3486.45937	0.97781
3484.40246	0.97851
3482.34555	0.97846
3480.28865	0.97772
3478.23174	0.97765
3476.17483	0.97801
3474.11792	0.97779
3472.06101	0.97735
3470.00410	0.97716
3467.94720	0.97732
3465.89029	0.97774
3463.83338	0.97796
3461.77647	0.97787
3459.71956	0.97793
3457.66266	0.97826
3455.60575	0.97833
3453.54884	0.97813
3451.49193	0.97807
3449.43502	0.97855
3447.37811	0.97936
3445.32121	0.97980
3443.26430	0.97977
3441.20739	0.97964
3439.15048	0.97935
3437.09357	0.97915
3435.03667	0.97966
3432.97976	0.98024
3430.92285	0.98038
3428.86594	0.98034
3426.80903	0.98022
3424.75212	0.98017
3422.69522	0.98034
3420.63831	0.98062
3418.58140	0.98085
3416.52449	0.98100
3414.46758	0.98095
3412.41068	0.98124
3410.35377	0.98219
3408.29686	0.98279
3406.23995	0.98236
3404.18304	0.98177
3402.12613	0.98125
3400.06923	0.98071
3398.01232	0.98092
3395.95541	0.98151
3393.89850	0.98158
3391.84159	0.98128
3389.78469	0.98122
3387.72778	0.98167
3385.67087	0.98224
3383.61396	0.98256
3381.55705	0.98285
3379.50014	0.98319
3377.44324	0.98305
3375.38633	0.98244
3373.32942	0.98213
3371.27251	0.98267
3369.21560	0.98351
3367.15870	0.98387
3365.10179	0.98412
3363.04488	0.98449
3360.98797	0.98428
3358.93106	0.98361
3356.87415	0.98358
3354.81725	0.98440
3352.76034	0.98483
3350.70343	0.98451
3348.64652	0.98419
3346.58961	0.98349
3344.53271	0.98304
3342.47580	0.98391
3340.41889	0.98467
3338.36198	0.98447
3336.30507	0.98413
3334.24816	0.98379
3332.19126	0.98339
3330.13435	0.98345
3328.07744	0.98423
3326.02053	0.98491
3323.96362	0.98505
3321.90672	0.98557
3319.84981	0.98621
3317.79290	0.98593
3315.73599	0.98543
3313.67908	0.98569
3311.62217	0.98643
3309.56527	0.98690
3307.50836	0.98659
3305.45145	0.98598
3303.39454	0.98597
3301.33763	0.98633
3299.28073	0.98637
3297.22382	0.98626
3295.16691	0.98641
3293.11000	0.98656
3291.05309	0.98645
3288.99618	0.98626
3286.93928	0.98607
3284.88237	0.98600
3282.82546	0.98649
3280.76855	0.98729
3278.71164	0.98737
3276.65474	0.98665
3274.59783	0.98608
3272.54092	0.98600
3270.48401	0.98612
3268.42710	0.98637
3266.37019	0.98657
3264.31329	0.98661
3262.25638	0.98662
3260.19947	0.98650
3258.14256	0.98657
3256.08565	0.98725
3254.02875	0.98783
3251.97184	0.98742
3249.91493	0.98685
3247.85802	0.98708
3245.80111	0.98758
3243.74420	0.98790
3241.68730	0.98809
3239.63039	0.98780
3237.57348	0.98707
3235.51657	0.98678
3233.45966	0.98694
3231.40276	0.98681
3229.34585	0.98656
3227.28894	0.98682
3225.23203	0.98735
3223.17512	0.98777
3221.11821	0.98806
3219.06131	0.98813
3217.00440	0.98803
3214.94749	0.98804
3212.89058	0.98822
3210.83367	0.98811
3208.77677	0.98772
3206.71986	0.98763
3204.66295	0.98785
3202.60604	0.98801
3200.54913	0.98812
3198.49222	0.98823
3196.43532	0.98835
3194.37841	0.98851
3192.32150	0.98847
3190.26459	0.98820
3188.20768	0.98826
3186.15078	0.98862
3184.09387	0.98870
3182.03696	0.98860
3179.98005	0.98846
3177.92314	0.98846
3175.86623	0.98903
3173.80933	0.98946
3171.75242	0.98921
3169.69551	0.98896
3167.63860	0.98887
3165.58169	0.98877
3163.52479	0.98871
3161.46788	0.98857
3159.41097	0.98875
3157.35406	0.98922
3155.29715	0.98923
3153.24024	0.98895
3151.18334	0.98873
3149.12643	0.98821
3147.06952	0.98791
3145.01261	0.98841
3142.95570	0.98876
3140.89880	0.98867
3138.84189	0.98894
3136.78498	0.98919
3134.72807	0.98887
3132.67116	0.98886
3130.61425	0.98957
3128.55735	0.99009
3126.50044	0.98990
3124.44353	0.98942
3122.38662	0.98919
3120.32971	0.98946
3118.27281	0.98984
3116.21590	0.98970
3114.15899	0.98906
3112.10208	0.98851
3110.04517	0.98838
3107.98826	0.98837
3105.93136	0.98855
3103.87445	0.98907
3101.81754	0.98945
3099.76063	0.98939
3097.70372	0.98917
3095.64682	0.98898
3093.58991	0.98879
3091.53300	0.98858
3089.47609	0.98834
3087.41918	0.98826
3085.36227	0.98842
3083.30537	0.98864
3081.24846	0.98871
3079.19155	0.98861
3077.13464	0.98853
3075.07773	0.98842
3073.02083	0.98827
3070.96392	0.98842
3068.90701	0.98865
3066.85010	0.98851
3064.79319	0.98857
3062.73628	0.98940
3060.67938	0.99032
3058.62247	0.99046
3056.56556	0.98996
3054.50865	0.98950
3052.45174	0.98915
3050.39484	0.98880
3048.33793	0.98871
3046.28102	0.98886
3044.22411	0.98875
3042.16720	0.98844
3040.11029	0.98854
3038.05339	0.98899
3035.99648	0.98930
3033.93957	0.98897
3031.88266	0.98819
3029.82575	0.98794
3027.76885	0.98843
3025.71194	0.98875
3023.65503	0.98836
3021.59812	0.98783
3019.54121	0.98766
3017.48430	0.98779
3015.42740	0.98783
3013.37049	0.98756
3011.31358	0.98737
3009.25667	0.98766
3007.19976	0.98802
3005.14286	0.98803
3003.08595	0.98794
3001.02904	0.98793
2998.97213	0.98800
2996.91522	0.98791
2994.85831	0.98741
2992.80141	0.98693
2990.74450	0.98698
2988.68759	0.98730
2986.63068	0.98747
2984.57377	0.98728
2982.51687	0.98678
2980.45996	0.98639
2978.40305	0.98616
2976.34614	0.98573
2974.28923	0.98531
2972.23232	0.98535
2970.17542	0.98552
2968.11851	0.98525
2966.06160	0.98468
2964.00469	0.98441
2961.94778	0.98462
2959.89088	0.98466
2957.83397	0.98419
2955.77706	0.98390
2953.72015	0.98398
2951.66324	0.98402
2949.60633	0.98414
2947.54943	0.98421
2945.49252	0.98385
2943.43561	0.98325
2941.37870	0.98293
2939.32179	0.98307
2937.26489	0.98340
2935.20798	0.98373
2933.15107	0.98406
2931.09416	0.98438
2929.03725	0.98450
2926.98034	0.98430
2924.92344	0.98422
2922.86653	0.98421
2920.80962	0.98416
2918.75271	0.98463
2916.69580	0.98515
2914.63890	0.98473
2912.58199	0.98408
2910.52508	0.98398
2908.46817	0.98402
2906.41126	0.98392
2904.35435	0.98365
2902.29745	0.98345
2900.24054	0.98362
2898.18363	0.98389
2896.12672	0.98389
2894.06981	0.98352
2892.01291	0.98317
2889.95600	0.98309
2887.89909	0.98318
2885.84218	0.98353
2883.78527	0.98393
2881.72836	0.98403
2879.67146	0.98379
2877.61455	0.98357
2875.55764	0.98371
2873.50073	0.98408
2871.44382	0.98442
2869.38692	0.98469
2867.33001	0.98501
2865.27310	0.98524
2863.21619	0.98527
2861.15928	0.98554
2859.10237	0.98590
2857.04547	0.98569
2854.98856	0.98536
2852.93165	0.98564
2850.87474	0.98626
2848.81783	0.98683
2846.76093	0.98725
2844.70402	0.98751
2842.64711	0.98763
2840.59020	0.98756
2838.53329	0.98749
2836.47638	0.98761
2834.41948	0.98806
2832.36257	0.98877
2830.30566	0.98915
2828.24875	0.98900
2826.19184	0.98867
2824.13494	0.98845
2822.07803	0.98840
2820.02112	0.98849
2817.96421	0.98864
2815.90730	0.98854
2813.85039	0.98826
2811.79349	0.98815
2809.73658	0.98818
2807.67967	0.98831
2805.62276	0.98855
2803.56585	0.98864
2801.50895	0.98868
2799.45204	0.98905
2797.39513	0.98951
2795.33822	0.98967
2793.28131	0.98962
2791.22440	0.98972
2789.16750	0.98982
2787.11059	0.98947
2785.05368	0.98913
2782.99677	0.98912
2780.93986	0.98901
2778.88296	0.98889
2776.82605	0.98899
2774.76914	0.98891
2772.71223	0.98875
2770.65532	0.98884
2768.59841	0.98894
2766.54151	0.98899
2764.48460	0.98913
2762.42769	0.98937
2760.37078	0.98944
2758.31387	0.98915
2756.25697	0.98873
2754.20006	0.98857
2752.14315	0.98856
2750.08624	0.98843
2748.02933	0.98859
2745.97242	0.98895
2743.91552	0.98885
2741.85861	0.98859
2739.80170	0.98872
2737.74479	0.98914
2735.68788	0.98944
2733.63098	0.98943
2731.57407	0.98914
2729.51716	0.98887
2727.46025	0.98900
2725.40334	0.98936
2723.34643	0.98956
2721.28953	0.98929
2719.23262	0.98885
2717.17571	0.98901
2715.11880	0.98947
2713.06189	0.98940
2711.00499	0.98904
2708.94808	0.98901
2706.89117	0.98926
2704.83426	0.98955
2702.77735	0.98963
2700.72044	0.98966
2698.66354	0.98997
2696.60663	0.99010
2694.54972	0.98983
2692.49281	0.98950
2690.43590	0.98953
2688.37900	0.98999
2686.32209	0.99024
2684.26518	0.98987
2682.20827	0.98935
2680.15136	0.98917
2678.09445	0.98933
2676.03755	0.98958
2673.98064	0.98954
2671.92373	0.98921
2669.86682	0.98913
2667.80991	0.98936
2665.75301	0.98955
2663.69610	0.98979
2661.63919	0.98984
2659.58228	0.98934
2657.52537	0.98877
2655.46846	0.98863
2653.41156	0.98884
2651.35465	0.98912
2649.29774	0.98929
2647.24083	0.98923
2645.18392	0.98892
2643.12702	0.98862
2641.07011	0.98856
2639.01320	0.98873
2636.95629	0.98901
2634.89938	0.98921
2632.84247	0.98934
2630.78557	0.98953
2628.72866	0.98957
2626.67175	0.98935
2624.61484	0.98909
2622.55793	0.98925
2620.50103	0.98977
2618.44412	0.99016
2616.38721	0.99030
2614.33030	0.99022
2612.27339	0.98976
2610.21648	0.98924
2608.15958	0.98921
2606.10267	0.98957
2604.04576	0.98975
2601.98885	0.98963
2599.93194	0.98966
2597.87504	0.98974
2595.81813	0.98952
2593.76122	0.98948
2591.70431	0.98988
2589.64740	0.99027
2587.59049	0.99055
2585.53359	0.99076
2583.47668	0.99072
2581.41977	0.99058
2579.36286	0.99064
2577.30595	0.99063
2575.24905	0.99040
2573.19214	0.99029
2571.13523	0.99032
2569.07832	0.99070
2567.02141	0.99135
2564.96450	0.99139
2562.90760	0.99059
2560.85069	0.98988
2558.79378	0.99000
2556.73687	0.99036
2554.67996	0.99042
2552.62306	0.99049
2550.56615	0.99052
2548.50924	0.99043
2546.45233	0.99046
2544.39542	0.99053
2542.33851	0.99020
2540.28161	0.99011
2538.22470	0.99086
2536.16779	0.99132
2534.11088	0.99083
2532.05397	0.99005
2529.99707	0.98969
2527.94016	0.99012
2525.88325	0.99071
2523.82634	0.99073
2521.76943	0.99102
2519.71252	0.99173
2517.65562	0.99150
2515.59871	0.99055
2513.54180	0.99039
2511.48489	0.99094
2509.42798	0.99131
2507.37108	0.99157
2505.31417	0.99184
2503.25726	0.99191
2501.20035	0.99185
2499.14344	0.99164
2497.08653	0.99115
2495.02963	0.99077
2492.97272	0.99096
2490.91581	0.99124
2488.85890	0.99126
2486.80199	0.99096
2484.74509	0.99033
2482.68818	0.98994
2480.63127	0.99008
2478.57436	0.99070
2476.51745	0.99142
2474.46054	0.99147
2472.40364	0.99100
2470.34673	0.99106
2468.28982	0.99143
2466.23291	0.99112
2464.17600	0.99070
2462.11910	0.99084
2460.06219	0.99104
2458.00528	0.99101
2455.94837	0.99080
2453.89146	0.99034
2451.83455	0.98995
2449.77765	0.98977
2447.72074	0.98977
2445.66383	0.98984
2443.60692	0.98977
2441.55001	0.98976
2439.49311	0.99017
2437.43620	0.99125
2435.37929	0.99194
2433.32238	0.99168
2431.26547	0.99152
2429.20856	0.99120
2427.15166	0.99052
2425.09475	0.99018
2423.03784	0.99013
2420.98093	0.99050
2418.92402	0.99135
2416.86712	0.99193
2414.81021	0.99179
2412.75330	0.99131
2410.69639	0.99102
2408.63948	0.99115
2406.58257	0.99148
2404.52567	0.99148
2402.46876	0.99131
2400.41185	0.99153
2398.35494	0.99172
2396.29803	0.99136
2394.24113	0.99117
2392.18422	0.99133
2390.12731	0.99126
2388.07040	0.99105
2386.01349	0.99095
2383.95658	0.99117
2381.89968	0.99148
2379.84277	0.99135
2377.78586	0.99110
2375.72895	0.99126
2373.67204	0.99183
2371.61514	0.99223
2369.55823	0.99204
2367.50132	0.99157
2365.44441	0.99068
2363.38750	0.99006
2361.33059	0.99053
2359.27369	0.99141
2357.21678	0.99180
2355.15987	0.99134
2353.10296	0.99145
2351.04605	0.99259
2348.98915	0.99313
2346.93224	0.99261
2344.87533	0.99167
2342.81842	0.99090
2340.76151	0.99051
2338.70460	0.99044
2336.64770	0.99046
2334.59079	0.99056
2332.53388	0.99086
2330.47697	0.99084
2328.42006	0.99037
2326.36316	0.98992
2324.30625	0.98962
2322.24934	0.98972
2320.19243	0.99014
2318.13552	0.99022
2316.07861	0.99016
2314.02171	0.99060
2311.96480	0.99115
2309.90789	0.99090
2307.85098	0.99000
2305.79407	0.98951
2303.73717	0.98992
2301.68026	0.99057
2299.62335	0.99076
2297.56644	0.99062
2295.50953	0.99043
2293.45262	0.99062
2291.39572	0.99115
2289.33881	0.99111
2287.28190	0.99027
2285.22499	0.98931
2283.16808	0.98879
2281.11117	0.98868
2279.05427	0.98901
2276.99736	0.98975
2274.94045	0.99010
2272.88354	0.98988
2270.82663	0.98962
2268.76973	0.98998
2266.71282	0.99083
2264.65591	0.99071
2262.59900	0.98988
2260.54209	0.98985
2258.48518	0.99043
2256.42828	0.99051
2254.37137	0.99005
2252.31446	0.99054
2250.25755	0.99186
2248.20064	0.99192
2246.14374	0.99095
2244.08683	0.99035
2242.02992	0.99008
2239.97301	0.99016
2237.91610	0.99093
2235.85919	0.99161
2233.80229	0.99114
2231.74538	0.99087
2229.68847	0.99193
2227.63156	0.99269
2225.57465	0.99272
2223.51775	0.99192
2221.46084	0.98946
2219.40393	0.98798
2217.34702	0.98975
2215.29011	0.99229
2213.23320	0.99296
2211.17630	0.99204
2209.11939	0.99158
2207.06248	0.99303
2205.00557	0.99504
2202.94866	0.99532
2200.89176	0.99364
2198.83485	0.99171
2196.77794	0.99061
2194.72103	0.99039
2192.66412	0.99065
2190.60721	0.99009
2188.55031	0.98894
2186.49340	0.98891
2184.43649	0.99029
2182.37958	0.99240
2180.32267	0.99363
2178.26577	0.99319
2176.20886	0.99240
2174.15195	0.99175
2172.09504	0.99177
2170.03813	0.99219
2167.98122	0.99069
2165.92432	0.98840
2163.86741	0.98829
2161.81050	0.98987
2159.75359	0.99135
2157.69668	0.99198
2155.63978	0.99238
2153.58287	0.99411
2151.52596	0.99661
2149.46905	0.99683
2147.41214	0.99515
2145.35523	0.99426
2143.29833	0.99425
2141.24142	0.99374
2139.18451	0.99307
2137.12760	0.99374
2135.07069	0.99438
2133.01379	0.99368
2130.95688	0.99310
2128.89997	0.99309
2126.84306	0.99263
2124.78615	0.99189
2122.72924	0.99156
2120.67234	0.99171
2118.61543	0.99235
2116.55852	0.99271
2114.50161	0.99194
2112.44470	0.99094
2110.38780	0.99101
2108.33089	0.99148
2106.27398	0.99106
2104.21707	0.99081
2102.16016	0.99145
2100.10325	0.99176
2098.04635	0.99172
2095.98944	0.99188
2093.93253	0.99196
2091.87562	0.99179
2089.81871	0.99171
2087.76181	0.99165
2085.70490	0.99151
2083.64799	0.99204
2081.59108	0.99285
2079.53417	0.99286
2077.47726	0.99193
2075.42036	0.99113
2073.36345	0.99148
2071.30654	0.99204
2069.24963	0.99223
2067.19272	0.99289
2065.13582	0.99360
2063.07891	0.99294
2061.02200	0.99120
2058.96509	0.98983
2056.90818	0.99038
2054.85127	0.99205
2052.79437	0.99202
2050.73746	0.99114
2048.68055	0.99170
2046.62364	0.99316
2044.56673	0.99410
2042.50983	0.99489
2040.45292	0.99598
2038.39601	0.99498
2036.33910	0.99165
2034.28219	0.98993
2032.22528	0.99058
2030.16838	0.99121
2028.11147	0.99189
2026.05456	0.99360
2023.99765	0.99502
2021.94074	0.99397
2019.88384	0.99208
2017.82693	0.99179
2015.77002	0.99209
2013.71311	0.99272
2011.65620	0.99374
2009.59929	0.99438
2007.54239	0.99458
2005.48548	0.99410
2003.42857	0.99262
2001.37166	0.99119
1999.31475	0.99169
1997.25785	0.99294
1995.20094	0.99352
1993.14403	0.99382
1991.08712	0.99249
1989.03021	0.99018
1986.97330	0.99057
1984.91640	0.99357
1982.85949	0.99438
1980.80258	0.99210
1978.74567	0.99071
1976.68876	0.99054
1974.63186	0.99089
1972.57495	0.99217
1970.51804	0.99250
1968.46113	0.99148
1966.40422	0.99202
1964.34731	0.99488
1962.29041	0.99689
1960.23350	0.99612
1958.17659	0.99376
1956.11968	0.99227
1954.06277	0.99265
1952.00587	0.99317
1949.94896	0.99283
1947.89205	0.99240
1945.83514	0.99212
1943.77823	0.99249
1941.72132	0.99343
1939.66442	0.99392
1937.60751	0.99404
1935.55060	0.99392
1933.49369	0.99360
1931.43678	0.99348
1929.37988	0.99335
1927.32297	0.99313
1925.26606	0.99313
1923.20915	0.99290
1921.15224	0.99245
1919.09533	0.99239
1917.03843	0.99251
1914.98152	0.99246
1912.92461	0.99225
1910.86770	0.99213
1908.81079	0.99197
1906.75389	0.99160
1904.69698	0.99138
1902.64007	0.99185
1900.58316	0.99307
1898.52625	0.99397
1896.46934	0.99342
1894.41244	0.99222
1892.35553	0.99193
1890.29862	0.99244
1888.24171	0.99307
1886.18480	0.99330
1884.12790	0.99304
1882.07099	0.99287
1880.01408	0.99285
1877.95717	0.99273
1875.90026	0.99282
1873.84335	0.99319
1871.78645	0.99350
1869.72954	0.99388
1867.67263	0.99456
1865.61572	0.99503
1863.55881	0.99451
1861.50191	0.99338
1859.44500	0.99288
1857.38809	0.99334
1855.33118	0.99396
1853.27427	0.99410
1851.21736	0.99377
1849.16046	0.99320
1847.10355	0.99267
1845.04664	0.99258
1842.98973	0.99280
1840.93282	0.99280
1838.87592	0.99262
1836.81901	0.99267
1834.76210	0.99316
1832.70519	0.99345
1830.64828	0.99343
1828.59137	0.99302
1826.53447	0.99235
1824.47756	0.99234
1822.42065	0.99292
1820.36374	0.99304
1818.30683	0.99262
1816.24993	0.99231
1814.19302	0.99214
1812.13611	0.99171
1810.07920	0.99130
1808.02229	0.99142
1805.96538	0.99157
1803.90848	0.99139
1801.85157	0.99098
1799.79466	0.99057
1797.73775	0.99014
1795.68084	0.98958
1793.62394	0.98909
1791.56703	0.98870
1789.51012	0.98799
1787.45321	0.98724
1785.39630	0.98702
1783.33939	0.98666
1781.28249	0.98558
1779.22558	0.98433
1777.16867	0.98299
1775.11176	0.98100
1773.05485	0.97798
1770.99795	0.97379
1768.94104	0.96858
1766.88413	0.96229
1764.82722	0.95510
1762.77031	0.94595
1760.71340	0.93518
1758.65650	0.92591
1756.59959	0.91727
1754.54268	0.90952
1752.48577	0.90304
1750.42886	0.89613
1748.37196	0.88961
1746.31505	0.88462
1744.25814	0.88059
1742.20123	0.87793
1740.14432	0.87674
1738.08741	0.87652
1736.03051	0.87748
1733.97360	0.88013
1731.91669	0.88376
1729.85978	0.88726
1727.80287	0.89144
1725.74597	0.89650
1723.68906	0.90233
1721.63215	0.90821
1719.57524	0.91382
1717.51833	0.92065
1715.46142	0.92865
1713.40452	0.93545
1711.34761	0.94094
1709.29070	0.94559
1707.23379	0.94999
1705.17688	0.95435
1703.11998	0.95767
1701.06307	0.96057
1699.00616	0.96395
1696.94925	0.96666
1694.89234	0.96876
1692.83543	0.97023
1690.77853	0.97132
1688.72162	0.97244
1686.66471	0.97334
1684.60780	0.97393
1682.55089	0.97462
1680.49399	0.97549
1678.43708	0.97628
1676.38017	0.97708
1674.32326	0.97762
1672.26635	0.97777
1670.20944	0.97802
1668.15254	0.97823
1666.09563	0.97846
1664.03872	0.97892
1661.98181	0.97922
1659.92490	0.97905
1657.86800	0.97898
1655.81109	0.97940
1653.75418	0.97967
1651.69727	0.97845
1649.64036	0.97723
1647.58345	0.97658
1645.52655	0.97670
1643.46964	0.97728
1641.41273	0.97776
1639.35582	0.97807
1637.29891	0.97827
1635.24201	0.97853
1633.18510	0.97876
1631.12819	0.97916
1629.07128	0.97970
1627.01437	0.97988
1624.95746	0.97969
1622.90056	0.97950
1620.84365	0.97957
1618.78674	0.97988
1616.72983	0.98039
1614.67292	0.98084
1612.61602	0.98104
1610.55911	0.98131
1608.50220	0.98190
1606.44529	0.98256
1604.38838	0.98313
1602.33147	0.98367
1600.27457	0.98403
1598.21766	0.98407
1596.16075	0.98395
1594.10384	0.98415
1592.04693	0.98455
1589.99003	0.98469
1587.93312	0.98476
1585.87621	0.98493
1583.81930	0.98506
1581.76239	0.98529
1579.70548	0.98557
1577.64858	0.98568
1575.59167	0.98560
1573.53476	0.98563
1571.47785	0.98572
1569.42094	0.98587
1567.36404	0.98613
1565.30713	0.98635
1563.25022	0.98633
1561.19331	0.98623
1559.13640	0.98651
1557.07949	0.98694
1555.02259	0.98713
1552.96568	0.98715
1550.90877	0.98703
1548.85186	0.98683
1546.79495	0.98667
1544.73805	0.98678
1542.68114	0.98729
1540.62423	0.98782
1538.56732	0.98785
1536.51041	0.98768
1534.45350	0.98763
1532.39660	0.98767
1530.33969	0.98771
1528.28278	0.98784
1526.22587	0.98786
1524.16896	0.98802
1522.11206	0.98876
1520.05515	0.98923
1517.99824	0.98898
1515.94133	0.98847
1513.88442	0.98796
1511.82751	0.98787
1509.77061	0.98836
1507.71370	0.98894
1505.65679	0.98876
1503.59988	0.98819
1501.54297	0.98783
1499.48607	0.98780
1497.42916	0.98797
1495.37225	0.98785
1493.31534	0.98761
1491.25843	0.98763
1489.20152	0.98779
1487.14462	0.98755
1485.08771	0.98707
1483.03080	0.98683
1480.97389	0.98673
1478.91698	0.98641
1476.86008	0.98590
1474.80317	0.98545
1472.74626	0.98484
1470.68935	0.98370
1468.63244	0.98281
1466.57553	0.98225
1464.51863	0.98128
1462.46172	0.98000
1460.40481	0.97904
1458.34790	0.97801
1456.29099	0.97615
1454.23409	0.97447
1452.17718	0.97360
1450.12027	0.97320
1448.06336	0.97268
1446.00645	0.97152
1443.94954	0.97003
1441.89264	0.96898
1439.83573	0.96858
1437.77882	0.96808
1435.72191	0.96695
1433.66500	0.96618
1431.60810	0.96613
1429.55119	0.96641
1427.49428	0.96670
1425.43737	0.96705
1423.38046	0.96760
1421.32355	0.96836
1419.26665	0.96932
1417.20974	0.97004
1415.15283	0.97040
1413.09592	0.97086
1411.03901	0.97146
1408.98211	0.97188
1406.92520	0.97205
1404.86829	0.97216
1402.81138	0.97233
1400.75447	0.97252
1398.69756	0.97222
1396.64066	0.97087
1394.58375	0.96853
1392.52684	0.96585
1390.46993	0.96294
1388.41302	0.95908
1386.35612	0.95414
1384.29921	0.94913
1382.24230	0.94421
1380.18539	0.93921
1378.12848	0.93446
1376.07157	0.92989
1374.01467	0.92530
1371.95776	0.92181
1369.90085	0.92015
1367.84394	0.92014
1365.78703	0.92218
1363.73013	0.92679
1361.67322	0.93404
1359.61631	0.94217
1357.55940	0.94985
1355.50249	0.95660
1353.44558	0.96187
1351.38868	0.96555
1349.33177	0.96799
1347.27486	0.96977
1345.21795	0.97105
1343.16104	0.97158
1341.10414	0.97155
1339.04723	0.97163
1336.99032	0.97201
1334.93341	0.97224
1332.87650	0.97226
1330.81959	0.97205
1328.76269	0.97139
1326.70578	0.97063
1324.64887	0.97011
1322.59196	0.96981
1320.53505	0.96973
1318.47815	0.96975
1316.42124	0.96996
1314.36433	0.97038
1312.30742	0.97068
1310.25051	0.97076
1308.19360	0.97065
1306.13670	0.97056
1304.07979	0.97061
1302.02288	0.97053
1299.96597	0.97009
1297.90906	0.96942
1295.85216	0.96860
1293.79525	0.96755
1291.73834	0.96625
1289.68143	0.96458
1287.62452	0.96280
1285.56761	0.96114
1283.51071	0.95933
1281.45380	0.95708
1279.39689	0.95448
1277.33998	0.95169
1275.28307	0.94845
1273.22617	0.94493
1271.16926	0.94127
1269.11235	0.93732
1267.05544	0.93323
1264.99853	0.92874
1262.94162	0.92351
1260.88472	0.91788
1258.82781	0.91195
1256.77090	0.90568
1254.71399	0.89932
1252.65708	0.89301
1250.60018	0.88658
1248.54327	0.87980
1246.48636	0.87292
1244.42945	0.86620
1242.37254	0.85950
1240.31563	0.85273
1238.25873	0.84617
1236.20182	0.84008
1234.14491	0.83446
1232.08800	0.82932
1230.03109	0.82494
1227.97419	0.82173
1225.91728	0.81995
1223.86037	0.81956
1221.80346	0.82061
1219.74655	0.82337
1217.68964	0.82788
1215.63274	0.83379
1213.57583	0.84094
1211.51892	0.84951
1209.46201	0.85928
1207.40510	0.86968
1205.34820	0.88056
1203.29129	0.89166
1201.23438	0.90229
1199.17747	0.91191
1197.12056	0.92024
1195.06365	0.92716
1193.00675	0.93250
1190.94984	0.93660
1188.89293	0.93998
1186.83602	0.94237
1184.77911	0.94337
1182.72221	0.94321
1180.66530	0.94239
1178.60839	0.94115
1176.55148	0.93929
1174.49457	0.93704
1172.43766	0.93512
1170.38076	0.93360
1168.32385	0.93220
1166.26694	0.93100
1164.21003	0.93023
1162.15312	0.93025
1160.09622	0.93127
1158.03931	0.93285
1155.98240	0.93451
1153.92549	0.93615
1151.86858	0.93778
1149.81167	0.93939
1147.75477	0.94068
1145.69786	0.94122
1143.64095	0.94093
1141.58404	0.94020
1139.52713	0.93925
1137.47023	0.93795
1135.41332	0.93636
1133.35641	0.93441
1131.29950	0.93214
1129.24259	0.93003
1127.18568	0.92824
1125.12878	0.92676
1123.07187	0.92575
1121.01496	0.92490
1118.95805	0.92396
1116.90114	0.92339
1114.84424	0.92346
1112.78733	0.92359
1110.73042	0.92309
1108.67351	0.92212
1106.61660	0.92107
1104.55969	0.91987
1102.50279	0.91837
1100.44588	0.91674
1098.38897	0.91475
1096.33206	0.91199
1094.27515	0.90880
1092.21825	0.90547
1090.16134	0.90174
1088.10443	0.89762
1086.04752	0.89343
1083.99061	0.88926
1081.93370	0.88509
1079.87680	0.88081
1077.81989	0.87646
1075.76298	0.87222
1073.70607	0.86811
1071.64916	0.86446
1069.59226	0.86142
1067.53535	0.85832
1065.47844	0.85506
1063.42153	0.85199
1061.36462	0.84872
1059.30771	0.84513
1057.25081	0.84166
1055.19390	0.83828
1053.13699	0.83478
1051.08008	0.83115
1049.02317	0.82747
1046.96627	0.82402
1044.90936	0.82099
1042.85245	0.81813
1040.79554	0.81563
1038.73863	0.81360
1036.68172	0.81169
1034.62482	0.81041
1032.56791	0.81036
1030.51100	0.81137
1028.45409	0.81385
1026.39718	0.81822
1024.34028	0.82385
1022.28337	0.82985
1020.22646	0.83631
1018.16955	0.84313
1016.11264	0.84961
1014.05573	0.85585
1011.99883	0.86197
1009.94192	0.86761
1007.88501	0.87261
1005.82810	0.87733
1003.77119	0.88216
1001.71429	0.88693
999.65738	0.89124
997.60047	0.89488
995.54356	0.89810
993.48665	0.90125
991.42974	0.90427
989.37284	0.90687
987.31593	0.90906
985.25902	0.91097
983.20211	0.91259
981.14520	0.91425
979.08830	0.91611
977.03139	0.91819
974.97448	0.92073
972.91757	0.92369
970.86066	0.92667
968.80375	0.92956
966.74685	0.93258
964.68994	0.93535
962.63303	0.93734
960.57612	0.93872
958.51921	0.94000
956.46231	0.94132
954.40540	0.94243
952.34849	0.94326
950.29158	0.94422
948.23467	0.94520
946.17776	0.94601
944.12086	0.94702
942.06395	0.94812
940.00704	0.94859
937.95013	0.94849
935.89322	0.94868
933.83632	0.94917
931.77941	0.94950
929.72250	0.94933
927.66559	0.94838
925.60868	0.94690
923.55177	0.94575
921.49487	0.94528
919.43796	0.94506
917.38105	0.94468
915.32414	0.94403
913.26723	0.94312
911.21033	0.94208
909.15342	0.94114
907.09651	0.94012
905.03960	0.93921
902.98269	0.93912
900.92578	0.93981
898.86888	0.94050
896.81197	0.94104
894.75506	0.94219
892.69815	0.94346
890.64124	0.94420
888.58434	0.94498
886.52743	0.94618
884.47052	0.94761
882.41361	0.94914
880.35670	0.95079
878.29979	0.95263
876.24289	0.95466
874.18598	0.95653
872.12907	0.95826
870.07216	0.95971
868.01525	0.96076
865.95835	0.96205
863.90144	0.96384
861.84453	0.96565
859.78762	0.96676
857.73071	0.96704
855.67380	0.96729
853.61690	0.96751
851.55999	0.96736
849.50308	0.96715
847.44617	0.96677
845.38926	0.96628
843.33236	0.96587
841.27545	0.96539
839.21854	0.96546
837.16163	0.96611
835.10472	0.96662
833.04781	0.96686
830.99091	0.96710
828.93400	0.96754
826.87709	0.96829
824.82018	0.96924
822.76327	0.97009
820.70637	0.97076
818.64946	0.97134
816.59255	0.97175
814.53564	0.97212
812.47873	0.97272
810.42182	0.97345
808.36492	0.97408
806.30801	0.97452
804.25110	0.97474
802.19419	0.97452
800.13728	0.97408
798.08038	0.97414
796.02347	0.97486
793.96656	0.97557
791.90965	0.97559
789.85274	0.97548
787.79583	0.97592
785.73893	0.97594
783.68202	0.97528
781.62511	0.97496
779.56820	0.97495
777.51129	0.97490
775.45439	0.97525
773.39748	0.97596
771.34057	0.97593
769.28366	0.97516
767.22675	0.97493
765.16984	0.97516
763.11294	0.97510
761.05603	0.97509
758.99912	0.97581
756.94221	0.97702
754.88530	0.97758
752.82839	0.97726
750.77149	0.97677
748.71458	0.97635
746.65767	0.97610
744.60076	0.97629
742.54385	0.97677
740.48695	0.97697
738.43004	0.97658
736.37313	0.97584
734.31622	0.97508
732.25931	0.97443
730.20240	0.97410
728.14550	0.97426
726.08859	0.97423
724.03168	0.97353
721.97477	0.97280
719.91786	0.97270
717.86096	0.97297
715.80405	0.97283
713.74714	0.97233
711.69023	0.97196
709.63332	0.97139
707.57641	0.97059
705.51951	0.96997
703.46260	0.96930
701.40569	0.96852
699.34878	0.96785
697.29187	0.96705
695.23497	0.96609
693.17806	0.96523
691.12115	0.96458
689.06424	0.96423
687.00733	0.96418
684.95042	0.96430
682.89352	0.96436
680.83661	0.96420
678.77970	0.96376
676.72279	0.96326
674.66588	0.96338
672.60898	0.96427
670.55207	0.96537
668.49516	0.96592
666.43825	0.96509
664.38134	0.96432
662.32443	0.96395
660.26753	0.96316
658.21062	0.96223
656.15371	0.96170
654.09680	0.96142
652.03989	0.96101
649.98299	0.95984
647.92608	0.95807
645.86917	0.95659
643.81226	0.95594
641.75535	0.95582
639.69844	0.95544
637.64154	0.95482
635.58463	0.95405
633.52772	0.95310
631.47081	0.95214
629.41390	0.95108
627.35700	0.95004
625.30009	0.94947
623.24318	0.94939
621.18627	0.94885
619.12936	0.94717
617.07245	0.94508
615.01555	0.94308
612.95864	0.94000
610.90173	0.93572
608.84482	0.93193
606.78791	0.92886
604.73101	0.92607
602.67410	0.92485
600.61719	0.92615
598.56028	0.92897
596.50337	0.93233
594.44646	0.93550
592.38956	0.93837
590.33265	0.94148
588.27574	0.94421
586.21883	0.94541
584.16192	0.94588
582.10502	0.94731
580.04811	0.94808
577.99120	0.94690
575.93429	0.94642
573.87738	0.94724
571.82047	0.94713
569.76357	0.94620
567.70666	0.94555
565.64975	0.94419
563.59284	0.94174
561.53593	0.94024
559.47903	0.94094
557.42212	0.94325
555.36521	0.94603
553.30830	0.94729
551.25139	0.94743
549.19448	0.94765
547.13758	0.94702
545.08067	0.94700
543.02376	0.94789
540.96685	0.94788
538.90994	0.94802
536.85304	0.94856
534.79613	0.94847
532.73922	0.94841
530.68231	0.94852
528.62540	0.94786
526.56849	0.94692
524.51159	0.94668
522.45468	0.94648
520.39777	0.94514
518.34086	0.94350
516.28395	0.94340
514.22705	0.94431
512.17014	0.94465
510.11323	0.94479
508.05632	0.94526
505.99941	0.94459
503.94250	0.94274
501.88560	0.94094
499.82869	0.93963
497.77178	0.93882
495.71487	0.93820
493.65796	0.93794
491.60106	0.93761
489.54415	0.93729
487.48724	0.93782
485.43033	0.93876
483.37342	0.94050
481.31651	0.94175
479.25961	0.94062
477.20270	0.93955
475.14579	0.93907
473.08888	0.93685
471.03197	0.93498
468.97507	0.93522
466.91816	0.93457
464.86125	0.93232
462.80434	0.92993
460.74743	0.92835
458.69052	0.92831
456.63362	0.92935
454.57671	0.93086
452.51980	0.93151
450.46289	0.93030
448.40598	0.92934
446.34908	0.93007
444.29217	0.93133
442.23526	0.93132
440.17835	0.92949
438.12144	0.92912
436.06453	0.93167
434.00763	0.93287
431.95072	0.93090
429.89381	0.92968
427.83690	0.93107
425.77999	0.93229
423.72309	0.93306
421.66618	0.93288
419.60927	0.92867
417.55236	0.92891
415.49545	0.93548
413.43854	0.93862
411.38164	0.93933
409.32473	0.94180
407.26782	0.94545
405.21091	0.94801
403.15400	0.94677
401.09710	0.94000
399.04019	0.92891
