3996.57260	0.98865
3994.51569	0.98886
3992.45878	0.98833
3990.40188	0.98771
3988.34497	0.98775
3986.28806	0.98787
3984.23115	0.98762
3982.17424	0.98755
3980.11733	0.98824
3978.06043	0.98917
3976.00352	0.98945
3973.94661	0.98948
3971.88970	0.98974
3969.83279	0.98967
3967.77589	0.98896
3965.71898	0.98818
3963.66207	0.98784
3961.60516	0.98778
3959.54825	0.98776
3957.49134	0.98773
3955.43444	0.98761
3953.37753	0.98797
3951.32062	0.98917
3949.26371	0.98992
3947.20680	0.98975
3945.14990	0.98987
3943.09299	0.99006
3941.03608	0.98953
3938.97917	0.98876
3936.92226	0.98829
3934.86535	0.98830
3932.80845	0.98867
3930.75154	0.98905
3928.69463	0.98909
3926.63772	0.98937
3924.58081	0.98993
3922.52391	0.98942
3920.46700	0.98830
3918.41009	0.98814
3916.35318	0.98866
3914.29627	0.98871
3912.23936	0.98845
3910.18246	0.98812
3908.12555	0.98782
3906.06864	0.98801
3904.01173	0.98848
3901.95482	0.98842
3899.89792	0.98802
3897.84101	0.98779
3895.78410	0.98770
3893.72719	0.98792
3891.67028	0.98890
3889.61337	0.99030
3887.55647	0.99099
3885.49956	0.99038
3883.44265	0.98930
3881.38574	0.98874
3879.32883	0.98847
3877.27193	0.98812
3875.21502	0.98760
3873.15811	0.98734
3871.10120	0.98766
3869.04429	0.98809
3866.98738	0.98860
3864.93048	0.98931
3862.87357	0.98973
3860.81666	0.98951
3858.75975	0.98905
3856.70284	0.98862
3854.64594	0.98815
3852.58903	0.98803
3850.53212	0.98840
3848.47521	0.98878
3846.41830	0.98911
3844.36139	0.98914
3842.30449	0.98887
3840.24758	0.98900
3838.19067	0.98972
3836.13376	0.99000
3834.07685	0.98961
3832.01995	0.98958
3829.96304	0.98981
3827.90613	0.98958
3825.84922	0.98950
3823.79231	0.99011
3821.73540	0.99059
3819.67850	0.99012
3817.62159	0.98974
3815.56468	0.99012
3813.50777	0.98991
3811.45086	0.98882
3809.39396	0.98844
3807.33705	0.98901
3805.28014	0.98905
3803.22323	0.98912
3801.16632	0.98985
3799.10941	0.99014
3797.05251	0.99001
3794.99560	0.98998
3792.93869	0.98968
3790.88178	0.98908
3788.82487	0.98866
3786.76796	0.98828
3784.71106	0.98784
3782.65415	0.98762
3780.59724	0.98759
3778.54033	0.98786
3776.48342	0.98863
3774.42652	0.98960
3772.36961	0.99011
3770.31270	0.98992
3768.25579	0.98981
3766.19888	0.98985
3764.14197	0.98929
3762.08507	0.98888
3760.02816	0.98956
3757.97125	0.99027
3755.91434	0.98952
3753.85743	0.98805
3751.80053	0.98723
3749.74362	0.98787
3747.68671	0.98878
3745.62980	0.98880
3743.57289	0.98867
3741.51598	0.98885
3739.45908	0.98868
3737.40217	0.98842
3735.34526	0.98870
3733.28835	0.98924
3731.23144	0.98924
3729.17454	0.98901
3727.11763	0.98886
3725.06072	0.98878
3723.00381	0.98897
3720.94690	0.98908
3718.88999	0.98878
3716.83309	0.98873
3714.77618	0.98925
3712.71927	0.99019
3710.66236	0.99123
3708.60545	0.99130
3706.54855	0.99058
3704.49164	0.98999
3702.43473	0.98978
3700.37782	0.98968
3698.32091	0.98930
3696.26400	0.98917
3694.20710	0.98942
3692.15019	0.98923
3690.09328	0.98821
3688.03637	0.98727
3685.97946	0.98759
3683.92256	0.98854
3681.86565	0.98903
3679.80874	0.98926
3677.75183	0.98982
3675.69492	0.98967
3673.63801	0.98895
3671.58111	0.98917
3669.52420	0.98934
3667.46729	0.98877
3665.41038	0.98793
3663.35347	0.98730
3661.29657	0.98764
3659.23966	0.98892
3657.18275	0.98986
3655.12584	0.98973
3653.06893	0.98930
3651.01202	0.98878
3648.95512	0.98735
3646.89821	0.98611
3644.84130	0.98658
3642.78439	0.98773
3640.72748	0.98817
3638.67058	0.98782
3636.61367	0.98794
3634.55676	0.98842
3632.49985	0.98858
3630.44294	0.98845
3628.38603	0.98733
3626.32913	0.98673
3624.27222	0.98768
3622.21531	0.98860
3620.15840	0.98874
3618.10149	0.98824
3616.04459	0.98720
3613.98768	0.98618
3611.93077	0.98598
3609.87386	0.98648
3607.81695	0.98704
3605.76004	0.98727
3603.70314	0.98721
3601.64623	0.98745
3599.58932	0.98768
3597.53241	0.98715
3595.47550	0.98674
3593.41860	0.98702
3591.36169	0.98761
3589.30478	0.98798
3587.24787	0.98713
3585.19096	0.98581
3583.13405	0.98571
3581.07715	0.98643
3579.02024	0.98682
3576.96333	0.98647
3574.90642	0.98589
3572.84951	0.98534
3570.79261	0.98474
3568.73570	0.98421
3566.67879	0.98389
3564.62188	0.98443
3562.56497	0.98548
3560.50806	0.98554
3558.45116	0.98459
3556.39425	0.98391
3554.33734	0.98390
3552.28043	0.98388
3550.22352	0.98361
3548.16662	0.98336
3546.10971	0.98302
3544.05280	0.98291
3541.99589	0.98282
3539.93898	0.98238
3537.88207	0.98215
3535.82517	0.98187
3533.76826	0.98144
3531.71135	0.98136
3529.65444	0.98136
3527.59753	0.98133
3525.54063	0.98147
3523.48372	0.98181
3521.42681	0.98213
3519.36990	0.98226
3517.31299	0.98210
3515.25608	0.98151
3513.19918	0.98088
3511.14227	0.98077
3509.08536	0.98082
3507.02845	0.98056
3504.97154	0.98045
3502.91464	0.98074
3500.85773	0.98112
3498.80082	0.98126
3496.74391	0.98091
3494.68700	0.98029
3492.63009	0.97975
3490.57319	0.97936
3488.51628	0.97926
3486.45937	0.97949
3484.40246	0.97972
3482.34555	0.97944
3480.28865	0.97903
3478.23174	0.97947
3476.17483	0.98017
3474.11792	0.98043
3472.06101	0.98078
3470.00410	0.98079
3467.94720	0.97998
3465.89029	0.97922
3463.83338	0.97910
3461.77647	0.97938
3459.71956	0.97987
3457.66266	0.98032
3455.60575	0.98040
3453.54884	0.98050
3451.49193	0.98083
3449.43502	0.98088
3447.37811	0.98046
3445.32121	0.98009
3443.26430	0.98034
3441.20739	0.98105
3439.15048	0.98189
3437.09357	0.98258
3435.03667	0.98275
3432.97976	0.98259
3430.92285	0.98245
3428.86594	0.98237
3426.80903	0.98223
3424.75212	0.98192
3422.69522	0.98142
3420.63831	0.98120
3418.58140	0.98175
3416.52449	0.98232
3414.46758	0.98247
3412.41068	0.98252
3410.35377	0.98261
3408.29686	0.98302
3406.23995	0.98365
3404.18304	0.98365
3402.12613	0.98304
3400.06923	0.98305
3398.01232	0.98333
3395.95541	0.98297
3393.89850	0.98297
3391.84159	0.98367
3389.78469	0.98384
3387.72778	0.98319
3385.67087	0.98258
3383.61396	0.98233
3381.55705	0.98223
3379.50014	0.98233
3377.44324	0.98257
3375.38633	0.98288
3373.32942	0.98338
3371.27251	0.98372
3369.21560	0.98371
3367.15870	0.98381
3365.10179	0.98423
3363.04488	0.98453
3360.98797	0.98465
3358.93106	0.98474
3356.87415	0.98455
3354.81725	0.98430
3352.76034	0.98461
3350.70343	0.98513
3348.64652	0.98537
3346.58961	0.98572
3344.53271	0.98601
3342.47580	0.98584
3340.41889	0.98543
3338.36198	0.98514
3336.30507	0.98531
3334.24816	0.98538
3332.19126	0.98500
3330.13435	0.98489
3328.07744	0.98506
3326.02053	0.98495
3323.96362	0.98447
3321.90672	0.98414
3319.84981	0.98448
3317.79290	0.98491
3315.73599	0.98479
3313.67908	0.98465
3311.62217	0.98478
3309.56527	0.98495
3307.50836	0.98523
3305.45145	0.98560
3303.39454	0.98615
3301.33763	0.98688
3299.28073	0.98700
3297.22382	0.98647
3295.16691	0.98625
3293.11000	0.98636
3291.05309	0.98639
3288.99618	0.98626
3286.93928	0.98608
3284.88237	0.98584
3282.82546	0.98561
3280.76855	0.98548
3278.71164	0.98538
3276.65474	0.98581
3274.59783	0.98644
3272.54092	0.98618
3270.48401	0.98556
3268.42710	0.98542
3266.37019	0.98536
3264.31329	0.98519
3262.25638	0.98532
3260.19947	0.98585
3258.14256	0.98625
3256.08565	0.98624
3254.02875	0.98602
3251.97184	0.98595
3249.91493	0.98640
3247.85802	0.98687
3245.80111	0.98662
3243.74420	0.98585
3241.68730	0.98558
3239.63039	0.98624
3237.57348	0.98682
3235.51657	0.98651
3233.45966	0.98597
3231.40276	0.98594
3229.34585	0.98626
3227.28894	0.98667
3225.23203	0.98681
3223.17512	0.98652
3221.11821	0.98652
3219.06131	0.98691
3217.00440	0.98697
3214.94749	0.98686
3212.89058	0.98688
3210.83367	0.98673
3208.77677	0.98655
3206.71986	0.98674
3204.66295	0.98697
3202.60604	0.98700
3200.54913	0.98708
3198.49222	0.98684
3196.43532	0.98633
3194.37841	0.98618
3192.32150	0.98605
3190.26459	0.98584
3188.20768	0.98637
3186.15078	0.98707
3184.09387	0.98660
3182.03696	0.98599
3179.98005	0.98655
3177.92314	0.98717
3175.86623	0.98696
3173.80933	0.98645
3171.75242	0.98606
3169.69551	0.98637
3167.63860	0.98723
3165.58169	0.98750
3163.52479	0.98713
3161.46788	0.98683
3159.41097	0.98660
3157.35406	0.98625
3155.29715	0.98601
3153.24024	0.98587
3151.18334	0.98584
3149.12643	0.98618
3147.06952	0.98679
3145.01261	0.98728
3142.95570	0.98736
3140.89880	0.98713
3138.84189	0.98716
3136.78498	0.98741
3134.72807	0.98744
3132.67116	0.98737
3130.61425	0.98723
3128.55735	0.98705
3126.50044	0.98691
3124.44353	0.98667
3122.38662	0.98639
3120.32971	0.98636
3118.27281	0.98673
3116.21590	0.98716
3114.15899	0.98759
3112.10208	0.98781
3110.04517	0.98762
3107.98826	0.98758
3105.93136	0.98771
3103.87445	0.98750
3101.81754	0.98716
3099.76063	0.98704
3097.70372	0.98684
3095.64682	0.98671
3093.58991	0.98704
3091.53300	0.98725
3089.47609	0.98718
3087.41918	0.98734
3085.36227	0.98747
3083.30537	0.98753
3081.24846	0.98753
3079.19155	0.98727
3077.13464	0.98700
3075.07773	0.98678
3073.02083	0.98664
3070.96392	0.98672
3068.90701	0.98670
3066.85010	0.98653
3064.79319	0.98650
3062.73628	0.98641
3060.67938	0.98622
3058.62247	0.98614
3056.56556	0.98631
3054.50865	0.98673
3052.45174	0.98671
3050.39484	0.98625
3048.33793	0.98609
3046.28102	0.98635
3044.22411	0.98656
3042.16720	0.98656
3040.11029	0.98660
3038.05339	0.98654
3035.99648	0.98622
3033.93957	0.98603
3031.88266	0.98617
3029.82575	0.98621
3027.76885	0.98605
3025.71194	0.98610
3023.65503	0.98635
3021.59812	0.98637
3019.54121	0.98605
3017.48430	0.98581
3015.42740	0.98587
3013.37049	0.98588
3011.31358	0.98565
3009.25667	0.98538
3007.19976	0.98521
3005.14286	0.98521
3003.08595	0.98528
3001.02904	0.98535
2998.97213	0.98533
2996.91522	0.98525
2994.85831	0.98525
2992.80141	0.98532
2990.74450	0.98530
2988.68759	0.98508
2986.63068	0.98482
2984.57377	0.98469
2982.51687	0.98460
2980.45996	0.98464
2978.40305	0.98462
2976.34614	0.98415
2974.28923	0.98363
2972.23232	0.98365
2970.17542	0.98399
2968.11851	0.98385
2966.06160	0.98300
2964.00469	0.98211
2961.94778	0.98158
2959.89088	0.98129
2957.83397	0.98109
2955.77706	0.98103
2953.72015	0.98108
2951.66324	0.98099
2949.60633	0.98075
2947.54943	0.98054
2945.49252	0.98056
2943.43561	0.98065
2941.37870	0.98072
2939.32179	0.98100
2937.26489	0.98144
2935.20798	0.98178
2933.15107	0.98191
2931.09416	0.98194
2929.03725	0.98214
2926.98034	0.98232
2924.92344	0.98210
2922.86653	0.98187
2920.80962	0.98213
2918.75271	0.98262
2916.69580	0.98287
2914.63890	0.98295
2912.58199	0.98293
2910.52508	0.98247
2908.46817	0.98181
2906.41126	0.98159
2904.35435	0.98173
2902.29745	0.98168
2900.24054	0.98148
2898.18363	0.98152
2896.12672	0.98185
2894.06981	0.98210
2892.01291	0.98197
2889.95600	0.98173
2887.89909	0.98191
2885.84218	0.98229
2883.78527	0.98243
2881.72836	0.98247
2879.67146	0.98246
2877.61455	0.98238
2875.55764	0.98253
2873.50073	0.98273
2871.44382	0.98270
2869.38692	0.98244
2867.33001	0.98244
2865.27310	0.98282
2863.21619	0.98296
2861.15928	0.98289
2859.10237	0.98333
2857.04547	0.98414
2854.98856	0.98450
2852.93165	0.98450
2850.87474	0.98452
2848.81783	0.98453
2846.76093	0.98467
2844.70402	0.98485
2842.64711	0.98493
2840.59020	0.98514
2838.53329	0.98528
2836.47638	0.98532
2834.41948	0.98543
2832.36257	0.98543
2830.30566	0.98534
2828.24875	0.98524
2826.19184	0.98523
2824.13494	0.98545
2822.07803	0.98570
2820.02112	0.98577
2817.96421	0.98556
2815.90730	0.98527
2813.85039	0.98522
2811.79349	0.98558
2809.73658	0.98613
2807.67967	0.98641
2805.62276	0.98645
2803.56585	0.98649
2801.50895	0.98630
2799.45204	0.98585
2797.39513	0.98556
2795.33822	0.98562
2793.28131	0.98602
2791.22440	0.98653
2789.16750	0.98674
2787.11059	0.98653
2785.05368	0.98620
2782.99677	0.98611
2780.93986	0.98629
2778.88296	0.98651
2776.82605	0.98656
2774.76914	0.98639
2772.71223	0.98624
2770.65532	0.98616
2768.59841	0.98595
2766.54151	0.98591
2764.48460	0.98613
2762.42769	0.98638
2760.37078	0.98671
2758.31387	0.98697
2756.25697	0.98686
2754.20006	0.98657
2752.14315	0.98646
2750.08624	0.98655
2748.02933	0.98652
2745.97242	0.98629
2743.91552	0.98609
2741.85861	0.98604
2739.80170	0.98612
2737.74479	0.98616
2735.68788	0.98615
2733.63098	0.98612
2731.57407	0.98597
2729.51716	0.98593
2727.46025	0.98607
2725.40334	0.98618
2723.34643	0.98641
2721.28953	0.98673
2719.23262	0.98671
2717.17571	0.98652
2715.11880	0.98650
2713.06189	0.98643
2711.00499	0.98637
2708.94808	0.98656
2706.89117	0.98666
2704.83426	0.98658
2702.77735	0.98662
2700.72044	0.98681
2698.66354	0.98704
2696.60663	0.98703
2694.54972	0.98676
2692.49281	0.98682
2690.43590	0.98714
2688.37900	0.98713
2686.32209	0.98693
2684.26518	0.98681
2682.20827	0.98689
2680.15136	0.98721
2678.09445	0.98736
2676.03755	0.98720
2673.98064	0.98701
2671.92373	0.98693
2669.86682	0.98688
2667.80991	0.98676
2665.75301	0.98655
2663.69610	0.98616
2661.63919	0.98585
2659.58228	0.98583
2657.52537	0.98591
2655.46846	0.98609
2653.41156	0.98632
2651.35465	0.98631
2649.29774	0.98612
2647.24083	0.98614
2645.18392	0.98645
2643.12702	0.98652
2641.07011	0.98631
2639.01320	0.98612
2636.95629	0.98566
2634.89938	0.98536
2632.84247	0.98568
2630.78557	0.98597
2628.72866	0.98596
2626.67175	0.98615
2624.61484	0.98660
2622.55793	0.98669
2620.50103	0.98634
2618.44412	0.98617
2616.38721	0.98661
2614.33030	0.98717
2612.27339	0.98694
2610.21648	0.98638
2608.15958	0.98631
2606.10267	0.98671
2604.04576	0.98730
2601.98885	0.98760
2599.93194	0.98744
2597.87504	0.98721
2595.81813	0.98720
2593.76122	0.98728
2591.70431	0.98729
2589.64740	0.98731
2587.59049	0.98749
2585.53359	0.98777
2583.47668	0.98747
2581.41977	0.98660
2579.36286	0.98620
2577.30595	0.98632
2575.24905	0.98654
2573.19214	0.98686
2571.13523	0.98708
2569.07832	0.98707
2567.02141	0.98700
2564.96450	0.98682
2562.90760	0.98683
2560.85069	0.98758
2558.79378	0.98860
2556.73687	0.98874
2554.67996	0.98774
2552.62306	0.98655
2550.56615	0.98602
2548.50924	0.98611
2546.45233	0.98649
2544.39542	0.98712
2542.33851	0.98762
2540.28161	0.98741
2538.22470	0.98704
2536.16779	0.98673
2534.11088	0.98631
2532.05397	0.98635
2529.99707	0.98656
2527.94016	0.98706
2525.88325	0.98826
2523.82634	0.98870
2521.76943	0.98783
2519.71252	0.98725
2517.65562	0.98758
2515.59871	0.98792
2513.54180	0.98760
2511.48489	0.98728
2509.42798	0.98774
2507.37108	0.98844
2505.31417	0.98823
2503.25726	0.98733
2501.20035	0.98716
2499.14344	0.98735
2497.08653	0.98690
2495.02963	0.98659
2492.97272	0.98703
2490.91581	0.98772
2488.85890	0.98795
2486.80199	0.98777
2484.74509	0.98790
2482.68818	0.98841
2480.63127	0.98856
2478.57436	0.98797
2476.51745	0.98765
2474.46054	0.98810
2472.40364	0.98853
2470.34673	0.98843
2468.28982	0.98813
2466.23291	0.98804
2464.17600	0.98786
2462.11910	0.98773
2460.06219	0.98815
2458.00528	0.98853
2455.94837	0.98832
2453.89146	0.98766
2451.83455	0.98682
2449.77765	0.98642
2447.72074	0.98674
2445.66383	0.98739
2443.60692	0.98777
2441.55001	0.98749
2439.49311	0.98733
2437.43620	0.98780
2435.37929	0.98813
2433.32238	0.98789
2431.26547	0.98747
2429.20856	0.98733
2427.15166	0.98744
2425.09475	0.98760
2423.03784	0.98777
2420.98093	0.98793
2418.92402	0.98812
2416.86712	0.98854
2414.81021	0.98867
2412.75330	0.98800
2410.69639	0.98737
2408.63948	0.98723
2406.58257	0.98745
2404.52567	0.98793
2402.46876	0.98793
2400.41185	0.98736
2398.35494	0.98733
2396.29803	0.98776
2394.24113	0.98824
2392.18422	0.98890
2390.12731	0.98917
2388.07040	0.98860
2386.01349	0.98805
2383.95658	0.98795
2381.89968	0.98790
2379.84277	0.98813
2377.78586	0.98880
2375.72895	0.98948
2373.67204	0.98976
2371.61514	0.98965
2369.55823	0.98976
2367.50132	0.99001
2365.44441	0.98953
2363.38750	0.98826
2361.33059	0.98781
2359.27369	0.98830
2357.21678	0.98818
2355.15987	0.98758
2353.10296	0.98729
2351.04605	0.98776
2348.98915	0.98856
2346.93224	0.98887
2344.87533	0.98847
2342.81842	0.98774
2340.76151	0.98707
2338.70460	0.98655
2336.64770	0.98657
2334.59079	0.98718
2332.53388	0.98781
2330.47697	0.98775
2328.42006	0.98669
2326.36316	0.98514
2324.30625	0.98438
2322.24934	0.98490
2320.19243	0.98545
2318.13552	0.98574
2316.07861	0.98647
2314.02171	0.98746
2311.96480	0.98769
2309.90789	0.98705
2307.85098	0.98723
2305.79407	0.98828
2303.73717	0.98854
2301.68026	0.98813
2299.62335	0.98754
2297.56644	0.98684
2295.50953	0.98654
2293.45262	0.98628
2291.39572	0.98571
2289.33881	0.98557
2287.28190	0.98646
2285.22499	0.98738
2283.16808	0.98699
2281.11117	0.98624
2279.05427	0.98663
2276.99736	0.98751
2274.94045	0.98770
2272.88354	0.98719
2270.82663	0.98652
2268.76973	0.98591
2266.71282	0.98572
2264.65591	0.98673
2262.59900	0.98825
2260.54209	0.98847
2258.48518	0.98720
2256.42828	0.98604
2254.37137	0.98654
2252.31446	0.98835
2250.25755	0.98950
2248.20064	0.98944
2246.14374	0.99024
2244.08683	0.99181
2242.02992	0.99065
2239.97301	0.98721
2237.91610	0.98574
2235.85919	0.98682
2233.80229	0.98869
2231.74538	0.98959
2229.68847	0.98840
2227.63156	0.98669
2225.57465	0.98532
2223.51775	0.98447
2221.46084	0.98532
2219.40393	0.98741
2217.34702	0.98886
2215.29011	0.98845
2213.23320	0.98734
2211.17630	0.98758
2209.11939	0.98812
2207.06248	0.98759
2205.00557	0.98686
2202.94866	0.98634
2200.89176	0.98666
2198.83485	0.98812
2196.77794	0.98957
2194.72103	0.99026
2192.66412	0.99040
2190.60721	0.99036
2188.55031	0.98998
2186.49340	0.98852
2184.43649	0.98621
2182.37958	0.98498
2180.32267	0.98536
2178.26577	0.98734
2176.20886	0.99036
2174.15195	0.99178
2172.09504	0.99118
2170.03813	0.98989
2167.98122	0.98872
2165.92432	0.98898
2163.86741	0.98976
2161.81050	0.98890
2159.75359	0.98741
2157.69668	0.98726
2155.63978	0.98730
2153.58287	0.98719
2151.52596	0.98886
2149.46905	0.99118
2147.41214	0.99143
2145.35523	0.99065
2143.29833	0.99098
2141.24142	0.99175
2139.18451	0.99117
2137.12760	0.98982
2135.07069	0.98927
2133.01379	0.98901
2130.95688	0.98870
2128.89997	0.98937
2126.84306	0.99009
2124.78615	0.98961
2122.72924	0.98864
2120.67234	0.98847
2118.61543	0.98917
2116.55852	0.98867
2114.50161	0.98682
2112.44470	0.98634
2110.38780	0.98733
2108.33089	0.98830
2106.27398	0.98901
2104.21707	0.98907
2102.16016	0.98870
2100.10325	0.98837
2098.04635	0.98750
2095.98944	0.98677
2093.93253	0.98752
2091.87562	0.98866
2089.81871	0.98889
2087.76181	0.98839
2085.70490	0.98745
2083.64799	0.98677
2081.59108	0.98683
2079.53417	0.98751
2077.47726	0.98805
2075.42036	0.98786
2073.36345	0.98844
2071.30654	0.98992
2069.24963	0.99028
2067.19272	0.98907
2065.13582	0.98787
2063.07891	0.98834
2061.02200	0.98931
2058.96509	0.98947
2056.90818	0.98983
2054.85127	0.99067
2052.79437	0.99095
2050.73746	0.99102
2048.68055	0.99163
2046.62364	0.99058
2044.56673	0.98820
2042.50983	0.98839
2040.45292	0.99020
2038.39601	0.98972
2036.33910	0.98769
2034.28219	0.98729
2032.22528	0.98809
2030.16838	0.98959
2028.11147	0.99165
2026.05456	0.99227
2023.99765	0.99127
2021.94074	0.99029
2019.88384	0.99001
2017.82693	0.99045
2015.77002	0.99182
2013.71311	0.99226
2011.65620	0.99091
2009.59929	0.98971
2007.54239	0.98910
2005.48548	0.98932
2003.42857	0.98966
2001.37166	0.98917
1999.31475	0.98915
1997.25785	0.98972
1995.20094	0.98977
1993.14403	0.98913
1991.08712	0.98850
1989.03021	0.98816
1986.97330	0.98807
1984.91640	0.98865
1982.85949	0.98847
1980.80258	0.98677
1978.74567	0.98668
1976.68876	0.98823
1974.63186	0.98812
1972.57495	0.98692
1970.51804	0.98599
1968.46113	0.98661
1966.40422	0.98854
1964.34731	0.98950
1962.29041	0.98925
1960.23350	0.98838
1958.17659	0.98851
1956.11968	0.99066
1954.06277	0.99160
1952.00587	0.98982
1949.94896	0.98863
1947.89205	0.98959
1945.83514	0.99095
1943.77823	0.99100
1941.72132	0.98977
1939.66442	0.98914
1937.60751	0.98904
1935.55060	0.98861
1933.49369	0.98837
1931.43678	0.98858
1929.37988	0.98925
1927.32297	0.98998
1925.26606	0.99011
1923.20915	0.98956
1921.15224	0.98946
1919.09533	0.99021
1917.03843	0.99016
1914.98152	0.98922
1912.92461	0.98885
1910.86770	0.98902
1908.81079	0.98930
1906.75389	0.98984
1904.69698	0.99029
1902.64007	0.99062
1900.58316	0.99105
1898.52625	0.99118
1896.46934	0.99101
1894.41244	0.99076
1892.35553	0.99035
1890.29862	0.99002
1888.24171	0.99028
1886.18480	0.99102
1884.12790	0.99136
1882.07099	0.99085
1880.01408	0.99027
1877.95717	0.99021
1875.90026	0.99048
1873.84335	0.99073
1871.78645	0.99047
1869.72954	0.99004
1867.67263	0.99011
1865.61572	0.99045
1863.55881	0.99098
1861.50191	0.99143
1859.44500	0.99129
1857.38809	0.99090
1855.33118	0.99078
1853.27427	0.99120
1851.21736	0.99149
1849.16046	0.99100
1847.10355	0.99081
1845.04664	0.99123
1842.98973	0.99100
1840.93282	0.99040
1838.87592	0.99019
1836.81901	0.99014
1834.76210	0.99035
1832.70519	0.99064
1830.64828	0.99048
1828.59137	0.99034
1826.53447	0.99078
1824.47756	0.99113
1822.42065	0.99087
1820.36374	0.99014
1818.30683	0.98947
1816.24993	0.98961
1814.19302	0.99005
1812.13611	0.98999
1810.07920	0.98957
1808.02229	0.98952
1805.96538	0.98990
1803.90848	0.99026
1801.85157	0.99042
1799.79466	0.99016
1797.73775	0.98957
1795.68084	0.98884
1793.62394	0.98790
1791.56703	0.98737
1789.51012	0.98749
1787.45321	0.98734
1785.39630	0.98702
1783.33939	0.98658
1781.28249	0.98555
1779.22558	0.98399
1777.16867	0.98224
1775.11176	0.98006
1773.05485	0.97685
1770.99795	0.97258
1768.94104	0.96763
1766.88413	0.96183
1764.82722	0.95537
1762.77031	0.94753
1760.71340	0.93880
1758.65650	0.93149
1756.59959	0.92456
1754.54268	0.91832
1752.48577	0.91315
1750.42886	0.90724
1748.37196	0.90084
1746.31505	0.89563
1744.25814	0.89160
1742.20123	0.88859
1740.14432	0.88618
1738.08741	0.88477
1736.03051	0.88466
1733.97360	0.88463
1731.91669	0.88524
1729.85978	0.88744
1727.80287	0.89075
1725.74597	0.89478
1723.68906	0.89939
1721.63215	0.90431
1719.57524	0.90963
1717.51833	0.91566
1715.46142	0.92163
1713.40452	0.92714
1711.34761	0.93251
1709.29070	0.93756
1707.23379	0.94223
1705.17688	0.94663
1703.11998	0.95038
1701.06307	0.95373
1699.00616	0.95655
1696.94925	0.95848
1694.89234	0.96064
1692.83543	0.96291
1690.77853	0.96476
1688.72162	0.96601
1686.66471	0.96665
1684.60780	0.96730
1682.55089	0.96855
1680.49399	0.96984
1678.43708	0.97092
1676.38017	0.97179
1674.32326	0.97245
1672.26635	0.97314
1670.20944	0.97372
1668.15254	0.97400
1666.09563	0.97428
1664.03872	0.97461
1661.98181	0.97484
1659.92490	0.97463
1657.86800	0.97417
1655.81109	0.97402
1653.75418	0.97435
1651.69727	0.97497
1649.64036	0.97547
1647.58345	0.97554
1645.52655	0.97519
1643.46964	0.97514
1641.41273	0.97524
1639.35582	0.97543
1637.29891	0.97557
1635.24201	0.97552
1633.18510	0.97594
1631.12819	0.97667
1629.07128	0.97711
1627.01437	0.97706
1624.95746	0.97695
1622.90056	0.97730
1620.84365	0.97795
1618.78674	0.97841
1616.72983	0.97855
1614.67292	0.97869
1612.61602	0.97913
1610.55911	0.97971
1608.50220	0.98013
1606.44529	0.98038
1604.38838	0.98067
1602.33147	0.98091
1600.27457	0.98111
1598.21766	0.98146
1596.16075	0.98178
1594.10384	0.98177
1592.04693	0.98160
1589.99003	0.98161
1587.93312	0.98179
1585.87621	0.98205
1583.81930	0.98226
1581.76239	0.98239
1579.70548	0.98248
1577.64858	0.98239
1575.59167	0.98218
1573.53476	0.98231
1571.47785	0.98281
1569.42094	0.98335
1567.36404	0.98354
1565.30713	0.98364
1563.25022	0.98379
1561.19331	0.98379
1559.13640	0.98341
1557.07949	0.98309
1555.02259	0.98305
1552.96568	0.98304
1550.90877	0.98320
1548.85186	0.98353
1546.79495	0.98398
1544.73805	0.98446
1542.68114	0.98479
1540.62423	0.98477
1538.56732	0.98430
1536.51041	0.98401
1534.45350	0.98399
1532.39660	0.98400
1530.33969	0.98396
1528.28278	0.98396
1526.22587	0.98425
1524.16896	0.98493
1522.11206	0.98559
1520.05515	0.98568
1517.99824	0.98533
1515.94133	0.98497
1513.88442	0.98474
1511.82751	0.98475
1509.77061	0.98507
1507.71370	0.98530
1505.65679	0.98516
1503.59988	0.98528
1501.54297	0.98551
1499.48607	0.98554
1497.42916	0.98521
1495.37225	0.98471
1493.31534	0.98458
1491.25843	0.98491
1489.20152	0.98531
1487.14462	0.98517
1485.08771	0.98482
1483.03080	0.98467
1480.97389	0.98469
1478.91698	0.98487
1476.86008	0.98498
1474.80317	0.98464
1472.74626	0.98379
1470.68935	0.98284
1468.63244	0.98221
1466.57553	0.98146
1464.51863	0.98008
1462.46172	0.97880
1460.40481	0.97808
1458.34790	0.97719
1456.29099	0.97565
1454.23409	0.97476
1452.17718	0.97455
1450.12027	0.97417
1448.06336	0.97319
1446.00645	0.97186
1443.94954	0.97079
1441.89264	0.97003
1439.83573	0.96950
1437.77882	0.96891
1435.72191	0.96782
1433.66500	0.96683
1431.60810	0.96623
1429.55119	0.96619
1427.49428	0.96679
1425.43737	0.96766
1423.38046	0.96867
1421.32355	0.96967
1419.26665	0.97059
1417.20974	0.97142
1415.15283	0.97220
1413.09592	0.97300
1411.03901	0.97366
1408.98211	0.97396
1406.92520	0.97412
1404.86829	0.97436
1402.81138	0.97456
1400.75447	0.97469
1398.69756	0.97453
1396.64066	0.97351
1394.58375	0.97135
1392.52684	0.96878
1390.46993	0.96631
1388.41302	0.96313
1386.35612	0.95904
1384.29921	0.95488
1382.24230	0.95078
1380.18539	0.94642
1378.12848	0.94188
1376.07157	0.93735
1374.01467	0.93293
1371.95776	0.92928
1369.90085	0.92670
1367.84394	0.92500
1365.78703	0.92479
1363.73013	0.92682
1361.67322	0.93176
1359.61631	0.93892
1357.55940	0.94665
1355.50249	0.95373
1353.44558	0.95957
1351.38868	0.96390
1349.33177	0.96679
1347.27486	0.96887
1345.21795	0.97050
1343.16104	0.97154
1341.10414	0.97206
1339.04723	0.97244
1336.99032	0.97292
1334.93341	0.97335
1332.87650	0.97367
1330.81959	0.97394
1328.76269	0.97391
1326.70578	0.97363
1324.64887	0.97359
1322.59196	0.97362
1320.53505	0.97348
1318.47815	0.97363
1316.42124	0.97397
1314.36433	0.97415
1312.30742	0.97424
1310.25051	0.97435
1308.19360	0.97462
1306.13670	0.97486
1304.07979	0.97489
1302.02288	0.97486
1299.96597	0.97482
1297.90906	0.97464
1295.85216	0.97412
1293.79525	0.97319
1291.73834	0.97205
1289.68143	0.97103
1287.62452	0.97014
1285.56761	0.96895
1283.51071	0.96726
1281.45380	0.96545
1279.39689	0.96369
1277.33998	0.96161
1275.28307	0.95931
1273.22617	0.95689
1271.16926	0.95391
1269.11235	0.95042
1267.05544	0.94692
1264.99853	0.94347
1262.94162	0.93962
1260.88472	0.93527
1258.82781	0.93063
1256.77090	0.92585
1254.71399	0.92083
1252.65708	0.91522
1250.60018	0.90920
1248.54327	0.90340
1246.48636	0.89795
1244.42945	0.89235
1242.37254	0.88623
1240.31563	0.88007
1238.25873	0.87435
1236.20182	0.86900
1234.14491	0.86394
1232.08800	0.85924
1230.03109	0.85495
1227.97419	0.85126
1225.91728	0.84843
1223.86037	0.84637
1221.80346	0.84471
1219.74655	0.84325
1217.68964	0.84228
1215.63274	0.84221
1213.57583	0.84298
1211.51892	0.84462
1209.46201	0.84756
1207.40510	0.85211
1205.34820	0.85831
1203.29129	0.86607
1201.23438	0.87515
1199.17747	0.88482
1197.12056	0.89441
1195.06365	0.90349
1193.00675	0.91156
1190.94984	0.91814
1188.89293	0.92312
1186.83602	0.92679
1184.77911	0.92948
1182.72221	0.93119
1180.66530	0.93196
1178.60839	0.93193
1176.55148	0.93141
1174.49457	0.93065
1172.43766	0.92960
1170.38076	0.92840
1168.32385	0.92758
1166.26694	0.92750
1164.21003	0.92778
1162.15312	0.92784
1160.09622	0.92803
1158.03931	0.92891
1155.98240	0.93030
1153.92549	0.93204
1151.86858	0.93410
1149.81167	0.93605
1147.75477	0.93735
1145.69786	0.93792
1143.64095	0.93827
1141.58404	0.93853
1139.52713	0.93832
1137.47023	0.93763
1135.41332	0.93655
1133.35641	0.93514
1131.29950	0.93368
1129.24259	0.93237
1127.18568	0.93138
1125.12878	0.93064
1123.07187	0.92977
1121.01496	0.92891
1118.95805	0.92858
1116.90114	0.92863
1114.84424	0.92847
1112.78733	0.92828
1110.73042	0.92838
1108.67351	0.92826
1106.61660	0.92788
1104.55969	0.92758
1102.50279	0.92712
1100.44588	0.92610
1098.38897	0.92441
1096.33206	0.92241
1094.27515	0.92031
1092.21825	0.91773
1090.16134	0.91472
1088.10443	0.91188
1086.04752	0.90911
1083.99061	0.90588
1081.93370	0.90242
1079.87680	0.89898
1077.81989	0.89569
1075.76298	0.89292
1073.70607	0.89024
1071.64916	0.88716
1069.59226	0.88381
1067.53535	0.88043
1065.47844	0.87758
1063.42153	0.87524
1061.36462	0.87245
1059.30771	0.86888
1057.25081	0.86503
1055.19390	0.86123
1053.13699	0.85750
1051.08008	0.85351
1049.02317	0.84938
1046.96627	0.84579
1044.90936	0.84286
1042.85245	0.84019
1040.79554	0.83722
1038.73863	0.83384
1036.68172	0.83089
1034.62482	0.82877
1032.56791	0.82704
1030.51100	0.82561
1028.45409	0.82516
1026.39718	0.82625
1024.34028	0.82836
1022.28337	0.83064
1020.22646	0.83315
1018.16955	0.83630
1016.11264	0.83981
1014.05573	0.84309
1011.99883	0.84653
1009.94192	0.85056
1007.88501	0.85464
1005.82810	0.85841
1003.77119	0.86211
1001.71429	0.86546
999.65738	0.86842
997.60047	0.87139
995.54356	0.87440
993.48665	0.87740
991.42974	0.88011
989.37284	0.88220
987.31593	0.88361
985.25902	0.88474
983.20211	0.88651
981.14520	0.88899
979.08830	0.89125
977.03139	0.89325
974.97448	0.89578
972.91757	0.89885
970.86066	0.90192
968.80375	0.90464
966.74685	0.90693
964.68994	0.90909
962.63303	0.91143
960.57612	0.91359
958.51921	0.91494
956.46231	0.91564
954.40540	0.91649
952.34849	0.91768
950.29158	0.91881
948.23467	0.91976
946.17776	0.92063
944.12086	0.92179
942.06395	0.92352
940.00704	0.92516
937.95013	0.92606
935.89322	0.92655
933.83632	0.92705
931.77941	0.92740
929.72250	0.92771
927.66559	0.92793
925.60868	0.92757
923.55177	0.92668
921.49487	0.92560
919.43796	0.92452
917.38105	0.92357
915.32414	0.92287
913.26723	0.92231
911.21033	0.92147
909.15342	0.92030
907.09651	0.91918
905.03960	0.91812
902.98269	0.91676
900.92578	0.91547
898.86888	0.91518
896.81197	0.91606
894.75506	0.91752
892.69815	0.91898
890.64124	0.92034
888.58434	0.92153
886.52743	0.92224
884.47052	0.92298
882.41361	0.92422
880.35670	0.92536
878.29979	0.92647
876.24289	0.92790
874.18598	0.92932
872.12907	0.93106
870.07216	0.93323
868.01525	0.93485
865.95835	0.93599
863.90144	0.93775
861.84453	0.93992
859.78762	0.94172
857.73071	0.94333
855.67380	0.94442
853.61690	0.94439
851.55999	0.94389
849.50308	0.94360
847.44617	0.94332
845.38926	0.94274
843.33236	0.94204
841.27545	0.94142
839.21854	0.94129
837.16163	0.94164
835.10472	0.94136
833.04781	0.94112
830.99091	0.94261
828.93400	0.94505
826.87709	0.94683
824.82018	0.94760
822.76327	0.94779
820.70637	0.94835
818.64946	0.94965
816.59255	0.95100
814.53564	0.95183
812.47873	0.95209
810.42182	0.95192
808.36492	0.95222
806.30801	0.95343
804.25110	0.95431
802.19419	0.95419
800.13728	0.95396
798.08038	0.95435
796.02347	0.95503
793.96656	0.95543
791.90965	0.95570
789.85274	0.95636
787.79583	0.95692
785.73893	0.95658
783.68202	0.95603
781.62511	0.95624
779.56820	0.95665
777.51129	0.95649
775.45439	0.95635
773.39748	0.95706
771.34057	0.95825
769.28366	0.95898
767.22675	0.95926
765.16984	0.95931
763.11294	0.95865
761.05603	0.95798
758.99912	0.95837
756.94221	0.95918
754.88530	0.95967
752.82839	0.95976
750.77149	0.95951
748.71458	0.95931
746.65767	0.95970
744.60076	0.96050
742.54385	0.96086
740.48695	0.96053
738.43004	0.96012
736.37313	0.96001
734.31622	0.95996
732.25931	0.95986
730.20240	0.95981
728.14550	0.95962
726.08859	0.95909
724.03168	0.95835
721.97477	0.95793
719.91786	0.95813
717.86096	0.95816
715.80405	0.95749
713.74714	0.95660
711.69023	0.95620
709.63332	0.95652
707.57641	0.95692
705.51951	0.95654
703.46260	0.95546
701.40569	0.95449
699.34878	0.95408
697.29187	0.95421
695.23497	0.95410
693.17806	0.95369
691.12115	0.95361
689.06424	0.95368
687.00733	0.95372
684.95042	0.95350
682.89352	0.95306
680.83661	0.95306
678.77970	0.95364
676.72279	0.95407
674.66588	0.95380
672.60898	0.95328
670.55207	0.95312
668.49516	0.95306
666.43825	0.95341
664.38134	0.95425
662.32443	0.95492
660.26753	0.95517
658.21062	0.95433
656.15371	0.95260
654.09680	0.95123
652.03989	0.95011
649.98299	0.94851
647.92608	0.94723
645.86917	0.94677
643.81226	0.94643
641.75535	0.94611
639.69844	0.94600
637.64154	0.94550
635.58463	0.94414
633.52772	0.94281
631.47081	0.94238
629.41390	0.94229
627.35700	0.94200
625.30009	0.94164
623.24318	0.94056
621.18627	0.93885
619.12936	0.93760
617.07245	0.93669
615.01555	0.93548
612.95864	0.93298
610.90173	0.92866
608.84482	0.92421
606.78791	0.92111
604.73101	0.91840
602.67410	0.91583
600.61719	0.91458
598.56028	0.91511
596.50337	0.91713
594.44646	0.91977
592.38956	0.92227
590.33265	0.92431
588.27574	0.92645
586.21883	0.92949
584.16192	0.93212
582.10502	0.93291
580.04811	0.93338
577.99120	0.93473
575.93429	0.93630
573.87738	0.93747
571.82047	0.93737
569.76357	0.93586
567.70666	0.93535
565.64975	0.93646
563.59284	0.93593
561.53593	0.93289
559.47903	0.93065
557.42212	0.93079
555.36521	0.93075
553.30830	0.93028
551.25139	0.93125
549.19448	0.93315
547.13758	0.93473
545.08067	0.93540
543.02376	0.93546
540.96685	0.93560
538.90994	0.93634
536.85304	0.93686
534.79613	0.93611
532.73922	0.93539
530.68231	0.93614
528.62540	0.93711
526.56849	0.93683
524.51159	0.93580
522.45468	0.93457
520.39777	0.93385
518.34086	0.93356
516.28395	0.93248
514.22705	0.93164
512.17014	0.93233
510.11323	0.93331
508.05632	0.93375
505.99941	0.93375
503.94250	0.93261
501.88560	0.93129
499.82869	0.93098
497.77178	0.93006
495.71487	0.92821
493.65796	0.92720
491.60106	0.92679
489.54415	0.92579
487.48724	0.92495
485.43033	0.92500
483.37342	0.92467
481.31651	0.92274
479.25961	0.92078
477.20270	0.92044
475.14579	0.92131
473.08888	0.92282
471.03197	0.92384
468.97507	0.92308
466.91816	0.92127
464.86125	0.91977
462.80434	0.91921
460.74743	0.91852
458.69052	0.91680
456.63362	0.91619
454.57671	0.91573
452.51980	0.91341
450.46289	0.91283
448.40598	0.91387
446.34908	0.91316
444.29217	0.91179
442.23526	0.91048
440.17835	0.90817
438.12144	0.90690
436.06453	0.90918
434.00763	0.91178
431.95072	0.91161
429.89381	0.91194
427.83690	0.91444
425.77999	0.91623
423.72309	0.91832
421.66618	0.92103
419.60927	0.91766
417.55236	0.91198
415.49545	0.91283
413.43854	0.91566
411.38164	0.91701
409.32473	0.91683
407.26782	0.91541
405.21091	0.91421
403.15400	0.91608
401.09710	0.91776
399.04019	0.91651
