3996.57260	0.98266
3994.51569	0.98343
3992.45878	0.98386
3990.40188	0.98371
3988.34497	0.98365
3986.28806	0.98425
3984.23115	0.98494
3982.17424	0.98480
3980.11733	0.98377
3978.06043	0.98277
3976.00352	0.98244
3973.94661	0.98255
3971.88970	0.98273
3969.83279	0.98330
3967.77589	0.98406
3965.71898	0.98397
3963.66207	0.98361
3961.60516	0.98410
3959.54825	0.98460
3957.49134	0.98451
3955.43444	0.98437
3953.37753	0.98434
3951.32062	0.98459
3949.26371	0.98533
3947.20680	0.98612
3945.14990	0.98605
3943.09299	0.98533
3941.03608	0.98494
3938.97917	0.98454
3936.92226	0.98406
3934.86535	0.98400
3932.80845	0.98430
3930.75154	0.98503
3928.69463	0.98552
3926.63772	0.98516
3924.58081	0.98435
3922.52391	0.98402
3920.46700	0.98460
3918.41009	0.98524
3916.35318	0.98485
3914.29627	0.98373
3912.23936	0.98327
3910.18246	0.98369
3908.12555	0.98381
3906.06864	0.98353
3904.01173	0.98374
3901.95482	0.98395
3899.89792	0.98357
3897.84101	0.98353
3895.78410	0.98402
3893.72719	0.98455
3891.67028	0.98487
3889.61337	0.98499
3887.55647	0.98538
3885.49956	0.98529
3883.44265	0.98412
3881.38574	0.98348
3879.32883	0.98396
3877.27193	0.98441
3875.21502	0.98457
3873.15811	0.98455
3871.10120	0.98436
3869.04429	0.98450
3866.98738	0.98427
3864.93048	0.98354
3862.87357	0.98397
3860.81666	0.98518
3858.75975	0.98546
3856.70284	0.98461
3854.64594	0.98306
3852.58903	0.98196
3850.53212	0.98251
3848.47521	0.98349
3846.41830	0.98426
3844.36139	0.98467
3842.30449	0.98464
3840.24758	0.98484
3838.19067	0.98529
3836.13376	0.98488
3834.07685	0.98422
3832.01995	0.98425
3829.96304	0.98460
3827.90613	0.98465
3825.84922	0.98455
3823.79231	0.98479
3821.73540	0.98506
3819.67850	0.98464
3817.62159	0.98405
3815.56468	0.98413
3813.50777	0.98454
3811.45086	0.98463
3809.39396	0.98442
3807.33705	0.98444
3805.28014	0.98507
3803.22323	0.98556
3801.16632	0.98530
3799.10941	0.98444
3797.05251	0.98401
3794.99560	0.98445
3792.93869	0.98488
3790.88178	0.98514
3788.82487	0.98517
3786.76796	0.98475
3784.71106	0.98472
3782.65415	0.98501
3780.59724	0.98492
3778.54033	0.98481
3776.48342	0.98509
3774.42652	0.98557
3772.36961	0.98612
3770.31270	0.98641
3768.25579	0.98629
3766.19888	0.98603
3764.14197	0.98513
3762.08507	0.98406
3760.02816	0.98408
3757.97125	0.98463
3755.91434	0.98481
3753.85743	0.98502
3751.80053	0.98517
3749.74362	0.98446
3747.68671	0.98391
3745.62980	0.98432
3743.57289	0.98463
3741.51598	0.98448
3739.45908	0.98439
3737.40217	0.98451
3735.34526	0.98540
3733.28835	0.98591
3731.23144	0.98512
3729.17454	0.98470
3727.11763	0.98501
3725.06072	0.98534
3723.00381	0.98545
3720.94690	0.98541
3718.88999	0.98524
3716.83309	0.98519
3714.77618	0.98529
3712.71927	0.98519
3710.66236	0.98474
3708.60545	0.98422
3706.54855	0.98390
3704.49164	0.98386
3702.43473	0.98433
3700.37782	0.98528
3698.32091	0.98593
3696.26400	0.98562
3694.20710	0.98464
3692.15019	0.98439
3690.09328	0.98511
3688.03637	0.98587
3685.97946	0.98639
3683.92256	0.98618
3681.86565	0.98551
3679.80874	0.98530
3677.75183	0.98524
3675.69492	0.98434
3673.63801	0.98394
3671.58111	0.98454
3669.52420	0.98484
3667.46729	0.98514
3665.41038	0.98556
3663.35347	0.98538
3661.29657	0.98474
3659.23966	0.98419
3657.18275	0.98405
3655.12584	0.98454
3653.06893	0.98504
3651.01202	0.98476
3648.95512	0.98358
3646.89821	0.98293
3644.84130	0.98348
3642.78439	0.98410
3640.72748	0.98422
3638.67058	0.98422
3636.61367	0.98445
3634.55676	0.98465
3632.49985	0.98456
3630.44294	0.98468
3628.38603	0.98479
3626.32913	0.98408
3624.27222	0.98361
3622.21531	0.98406
3620.15840	0.98485
3618.10149	0.98490
3616.04459	0.98426
3613.98768	0.98370
3611.93077	0.98330
3609.87386	0.98355
3607.81695	0.98467
3605.76004	0.98505
3603.70314	0.98422
3601.64623	0.98344
3599.58932	0.98355
3597.53241	0.98411
3595.47550	0.98413
3593.41860	0.98333
3591.36169	0.98276
3589.30478	0.98307
3587.24787	0.98330
3585.19096	0.98270
3583.13405	0.98193
3581.07715	0.98152
3579.02024	0.98151
3576.96333	0.98178
3574.90642	0.98194
3572.84951	0.98175
3570.79261	0.98155
3568.73570	0.98143
3566.67879	0.98134
3564.62188	0.98157
3562.56497	0.98197
3560.50806	0.98153
3558.45116	0.98057
3556.39425	0.98059
3554.33734	0.98143
3552.28043	0.98177
3550.22352	0.98156
3548.16662	0.98150
3546.10971	0.98095
3544.05280	0.98014
3541.99589	0.98018
3539.93898	0.98029
3537.88207	0.97969
3535.82517	0.97891
3533.76826	0.97869
3531.71135	0.97927
3529.65444	0.97976
3527.59753	0.97914
3525.54063	0.97839
3523.48372	0.97891
3521.42681	0.97964
3519.36990	0.97931
3517.31299	0.97849
3515.25608	0.97782
3513.19918	0.97760
3511.14227	0.97774
3509.08536	0.97784
3507.02845	0.97772
3504.97154	0.97737
3502.91464	0.97752
3500.85773	0.97829
3498.80082	0.97840
3496.74391	0.97756
3494.68700	0.97672
3492.63009	0.97637
3490.57319	0.97656
3488.51628	0.97703
3486.45937	0.97717
3484.40246	0.97711
3482.34555	0.97698
3480.28865	0.97656
3478.23174	0.97631
3476.17483	0.97668
3474.11792	0.97729
3472.06101	0.97769
3470.00410	0.97802
3467.94720	0.97812
3465.89029	0.97794
3463.83338	0.97788
3461.77647	0.97815
3459.71956	0.97845
3457.66266	0.97841
3455.60575	0.97840
3453.54884	0.97846
3451.49193	0.97814
3449.43502	0.97789
3447.37811	0.97821
3445.32121	0.97878
3443.26430	0.97890
3441.20739	0.97884
3439.15048	0.97943
3437.09357	0.97994
3435.03667	0.97977
3432.97976	0.97967
3430.92285	0.98002
3428.86594	0.98060
3426.80903	0.98119
3424.75212	0.98179
3422.69522	0.98225
3420.63831	0.98177
3418.58140	0.98076
3416.52449	0.98063
3414.46758	0.98152
3412.41068	0.98215
3410.35377	0.98181
3408.29686	0.98130
3406.23995	0.98136
3404.18304	0.98175
3402.12613	0.98191
3400.06923	0.98155
3398.01232	0.98121
3395.95541	0.98153
3393.89850	0.98220
3391.84159	0.98269
3389.78469	0.98318
3387.72778	0.98353
3385.67087	0.98322
3383.61396	0.98275
3381.55705	0.98263
3379.50014	0.98239
3377.44324	0.98201
3375.38633	0.98162
3373.32942	0.98157
3371.27251	0.98202
3369.21560	0.98232
3367.15870	0.98244
3365.10179	0.98264
3363.04488	0.98268
3360.98797	0.98270
3358.93106	0.98286
3356.87415	0.98317
3354.81725	0.98376
3352.76034	0.98418
3350.70343	0.98403
3348.64652	0.98346
3346.58961	0.98265
3344.53271	0.98220
3342.47580	0.98220
3340.41889	0.98229
3338.36198	0.98266
3336.30507	0.98316
3334.24816	0.98350
3332.19126	0.98367
3330.13435	0.98331
3328.07744	0.98275
3326.02053	0.98282
3323.96362	0.98351
3321.90672	0.98433
3319.84981	0.98497
3317.79290	0.98514
3315.73599	0.98462
3313.67908	0.98415
3311.62217	0.98396
3309.56527	0.98351
3307.50836	0.98319
3305.45145	0.98315
3303.39454	0.98303
3301.33763	0.98288
3299.28073	0.98300
3297.22382	0.98357
3295.16691	0.98421
3293.11000	0.98409
3291.05309	0.98329
3288.99618	0.98269
3286.93928	0.98276
3284.88237	0.98304
3282.82546	0.98310
3280.76855	0.98330
3278.71164	0.98373
3276.65474	0.98386
3274.59783	0.98363
3272.54092	0.98360
3270.48401	0.98379
3268.42710	0.98373
3266.37019	0.98368
3264.31329	0.98409
3262.25638	0.98425
3260.19947	0.98405
3258.14256	0.98407
3256.08565	0.98418
3254.02875	0.98433
3251.97184	0.98449
3249.91493	0.98453
3247.85802	0.98449
3245.80111	0.98422
3243.74420	0.98380
3241.68730	0.98363
3239.63039	0.98391
3237.57348	0.98462
3235.51657	0.98506
3233.45966	0.98474
3231.40276	0.98419
3229.34585	0.98382
3227.28894	0.98389
3225.23203	0.98447
3223.17512	0.98497
3221.11821	0.98491
3219.06131	0.98429
3217.00440	0.98376
3214.94749	0.98397
3212.89058	0.98465
3210.83367	0.98487
3208.77677	0.98469
3206.71986	0.98487
3204.66295	0.98491
3202.60604	0.98437
3200.54913	0.98401
3198.49222	0.98397
3196.43532	0.98376
3194.37841	0.98359
3192.32150	0.98389
3190.26459	0.98446
3188.20768	0.98479
3186.15078	0.98464
3184.09387	0.98429
3182.03696	0.98427
3179.98005	0.98447
3177.92314	0.98471
3175.86623	0.98473
3173.80933	0.98432
3171.75242	0.98397
3169.69551	0.98393
3167.63860	0.98417
3165.58169	0.98463
3163.52479	0.98483
3161.46788	0.98485
3159.41097	0.98504
3157.35406	0.98515
3155.29715	0.98487
3153.24024	0.98424
3151.18334	0.98363
3149.12643	0.98356
3147.06952	0.98398
3145.01261	0.98426
3142.95570	0.98419
3140.89880	0.98414
3138.84189	0.98405
3136.78498	0.98390
3134.72807	0.98406
3132.67116	0.98438
3130.61425	0.98450
3128.55735	0.98447
3126.50044	0.98437
3124.44353	0.98418
3122.38662	0.98419
3120.32971	0.98437
3118.27281	0.98407
3116.21590	0.98344
3114.15899	0.98357
3112.10208	0.98435
3110.04517	0.98483
3107.98826	0.98488
3105.93136	0.98472
3103.87445	0.98451
3101.81754	0.98429
3099.76063	0.98398
3097.70372	0.98371
3095.64682	0.98359
3093.58991	0.98389
3091.53300	0.98406
3089.47609	0.98353
3087.41918	0.98296
3085.36227	0.98280
3083.30537	0.98298
3081.24846	0.98349
3079.19155	0.98390
3077.13464	0.98374
3075.07773	0.98320
3073.02083	0.98275
3070.96392	0.98248
3068.90701	0.98255
3066.85010	0.98293
3064.79319	0.98331
3062.73628	0.98354
3060.67938	0.98308
3058.62247	0.98202
3056.56556	0.98159
3054.50865	0.98211
3052.45174	0.98270
3050.39484	0.98274
3048.33793	0.98254
3046.28102	0.98245
3044.22411	0.98240
3042.16720	0.98252
3040.11029	0.98260
3038.05339	0.98227
3035.99648	0.98173
3033.93957	0.98132
3031.88266	0.98122
3029.82575	0.98121
3027.76885	0.98088
3025.71194	0.98038
3023.65503	0.97997
3021.59812	0.97973
3019.54121	0.97992
3017.48430	0.98025
3015.42740	0.98019
3013.37049	0.97989
3011.31358	0.97972
3009.25667	0.97976
3007.19976	0.97974
3005.14286	0.97944
3003.08595	0.97920
3001.02904	0.97926
2998.97213	0.97911
2996.91522	0.97848
2994.85831	0.97790
2992.80141	0.97761
2990.74450	0.97742
2988.68759	0.97729
2986.63068	0.97727
2984.57377	0.97725
2982.51687	0.97718
2980.45996	0.97712
2978.40305	0.97682
2976.34614	0.97645
2974.28923	0.97613
2972.23232	0.97512
2970.17542	0.97367
2968.11851	0.97259
2966.06160	0.97184
2964.00469	0.97130
2961.94778	0.97101
2959.89088	0.97089
2957.83397	0.97093
2955.77706	0.97096
2953.72015	0.97102
2951.66324	0.97123
2949.60633	0.97121
2947.54943	0.97091
2945.49252	0.97052
2943.43561	0.97014
2941.37870	0.97012
2939.32179	0.97075
2937.26489	0.97174
2935.20798	0.97276
2933.15107	0.97363
2931.09416	0.97422
2929.03725	0.97462
2926.98034	0.97511
2924.92344	0.97556
2922.86653	0.97592
2920.80962	0.97631
2918.75271	0.97628
2916.69580	0.97582
2914.63890	0.97561
2912.58199	0.97560
2910.52508	0.97545
2908.46817	0.97522
2906.41126	0.97519
2904.35435	0.97547
2902.29745	0.97562
2900.24054	0.97540
2898.18363	0.97510
2896.12672	0.97478
2894.06981	0.97445
2892.01291	0.97431
2889.95600	0.97449
2887.89909	0.97485
2885.84218	0.97507
2883.78527	0.97494
2881.72836	0.97498
2879.67146	0.97545
2877.61455	0.97585
2875.55764	0.97619
2873.50073	0.97638
2871.44382	0.97627
2869.38692	0.97610
2867.33001	0.97621
2865.27310	0.97667
2863.21619	0.97713
2861.15928	0.97746
2859.10237	0.97798
2857.04547	0.97860
2854.98856	0.97931
2852.93165	0.97997
2850.87474	0.98019
2848.81783	0.98017
2846.76093	0.98039
2844.70402	0.98088
2842.64711	0.98135
2840.59020	0.98166
2838.53329	0.98180
2836.47638	0.98203
2834.41948	0.98246
2832.36257	0.98278
2830.30566	0.98299
2828.24875	0.98306
2826.19184	0.98276
2824.13494	0.98242
2822.07803	0.98244
2820.02112	0.98273
2817.96421	0.98304
2815.90730	0.98330
2813.85039	0.98344
2811.79349	0.98330
2809.73658	0.98310
2807.67967	0.98297
2805.62276	0.98294
2803.56585	0.98305
2801.50895	0.98328
2799.45204	0.98357
2797.39513	0.98378
2795.33822	0.98378
2793.28131	0.98344
2791.22440	0.98304
2789.16750	0.98303
2787.11059	0.98337
2785.05368	0.98360
2782.99677	0.98356
2780.93986	0.98355
2778.88296	0.98360
2776.82605	0.98357
2774.76914	0.98346
2772.71223	0.98343
2770.65532	0.98343
2768.59841	0.98331
2766.54151	0.98317
2764.48460	0.98311
2762.42769	0.98336
2760.37078	0.98385
2758.31387	0.98398
2756.25697	0.98390
2754.20006	0.98399
2752.14315	0.98412
2750.08624	0.98421
2748.02933	0.98409
2745.97242	0.98376
2743.91552	0.98361
2741.85861	0.98373
2739.80170	0.98383
2737.74479	0.98386
2735.68788	0.98399
2733.63098	0.98404
2731.57407	0.98396
2729.51716	0.98388
2727.46025	0.98394
2725.40334	0.98406
2723.34643	0.98390
2721.28953	0.98359
2719.23262	0.98350
2717.17571	0.98357
2715.11880	0.98362
2713.06189	0.98358
2711.00499	0.98364
2708.94808	0.98379
2706.89117	0.98385
2704.83426	0.98402
2702.77735	0.98419
2700.72044	0.98403
2698.66354	0.98392
2696.60663	0.98429
2694.54972	0.98467
2692.49281	0.98463
2690.43590	0.98448
2688.37900	0.98441
2686.32209	0.98433
2684.26518	0.98449
2682.20827	0.98462
2680.15136	0.98442
2678.09445	0.98417
2676.03755	0.98402
2673.98064	0.98376
2671.92373	0.98334
2669.86682	0.98304
2667.80991	0.98298
2665.75301	0.98308
2663.69610	0.98335
2661.63919	0.98372
2659.58228	0.98402
2657.52537	0.98417
2655.46846	0.98403
2653.41156	0.98355
2651.35465	0.98304
2649.29774	0.98278
2647.24083	0.98276
2645.18392	0.98299
2643.12702	0.98324
2641.07011	0.98323
2639.01320	0.98318
2636.95629	0.98331
2634.89938	0.98352
2632.84247	0.98376
2630.78557	0.98423
2628.72866	0.98459
2626.67175	0.98425
2624.61484	0.98373
2622.55793	0.98390
2620.50103	0.98455
2618.44412	0.98505
2616.38721	0.98523
2614.33030	0.98516
2612.27339	0.98486
2610.21648	0.98442
2608.15958	0.98412
2606.10267	0.98432
2604.04576	0.98483
2601.98885	0.98507
2599.93194	0.98527
2597.87504	0.98590
2595.81813	0.98618
2593.76122	0.98579
2591.70431	0.98552
2589.64740	0.98529
2587.59049	0.98461
2585.53359	0.98398
2583.47668	0.98387
2581.41977	0.98402
2579.36286	0.98448
2577.30595	0.98521
2575.24905	0.98551
2573.19214	0.98546
2571.13523	0.98555
2569.07832	0.98539
2567.02141	0.98495
2564.96450	0.98471
2562.90760	0.98494
2560.85069	0.98541
2558.79378	0.98563
2556.73687	0.98575
2554.67996	0.98587
2552.62306	0.98560
2550.56615	0.98529
2548.50924	0.98541
2546.45233	0.98530
2544.39542	0.98502
2542.33851	0.98547
2540.28161	0.98611
2538.22470	0.98585
2536.16779	0.98522
2534.11088	0.98509
2532.05397	0.98510
2529.99707	0.98507
2527.94016	0.98536
2525.88325	0.98518
2523.82634	0.98422
2521.76943	0.98410
2519.71252	0.98523
2517.65562	0.98637
2515.59871	0.98687
2513.54180	0.98661
2511.48489	0.98591
2509.42798	0.98546
2507.37108	0.98578
2505.31417	0.98645
2503.25726	0.98664
2501.20035	0.98639
2499.14344	0.98608
2497.08653	0.98582
2495.02963	0.98544
2492.97272	0.98516
2490.91581	0.98519
2488.85890	0.98550
2486.80199	0.98612
2484.74509	0.98665
2482.68818	0.98679
2480.63127	0.98652
2478.57436	0.98595
2476.51745	0.98569
2474.46054	0.98596
2472.40364	0.98629
2470.34673	0.98625
2468.28982	0.98605
2466.23291	0.98593
2464.17600	0.98578
2462.11910	0.98584
2460.06219	0.98572
2458.00528	0.98511
2455.94837	0.98495
2453.89146	0.98546
2451.83455	0.98601
2449.77765	0.98638
2447.72074	0.98643
2445.66383	0.98643
2443.60692	0.98660
2441.55001	0.98637
2439.49311	0.98553
2437.43620	0.98508
2435.37929	0.98559
2433.32238	0.98602
2431.26547	0.98602
2429.20856	0.98632
2427.15166	0.98686
2425.09475	0.98696
2423.03784	0.98672
2420.98093	0.98662
2418.92402	0.98659
2416.86712	0.98655
2414.81021	0.98646
2412.75330	0.98625
2410.69639	0.98579
2408.63948	0.98542
2406.58257	0.98568
2404.52567	0.98619
2402.46876	0.98651
2400.41185	0.98644
2398.35494	0.98626
2396.29803	0.98635
2394.24113	0.98628
2392.18422	0.98620
2390.12731	0.98634
2388.07040	0.98642
2386.01349	0.98659
2383.95658	0.98706
2381.89968	0.98757
2379.84277	0.98780
2377.78586	0.98768
2375.72895	0.98722
2373.67204	0.98647
2371.61514	0.98602
2369.55823	0.98658
2367.50132	0.98716
2365.44441	0.98663
2363.38750	0.98609
2361.33059	0.98646
2359.27369	0.98681
2357.21678	0.98625
2355.15987	0.98608
2353.10296	0.98635
2351.04605	0.98603
2348.98915	0.98555
2346.93224	0.98501
2344.87533	0.98442
2342.81842	0.98406
2340.76151	0.98420
2338.70460	0.98506
2336.64770	0.98557
2334.59079	0.98500
2332.53388	0.98429
2330.47697	0.98428
2328.42006	0.98447
2326.36316	0.98424
2324.30625	0.98422
2322.24934	0.98479
2320.19243	0.98502
2318.13552	0.98463
2316.07861	0.98465
2314.02171	0.98519
2311.96480	0.98566
2309.90789	0.98617
2307.85098	0.98647
2305.79407	0.98646
2303.73717	0.98678
2301.68026	0.98719
2299.62335	0.98703
2297.56644	0.98653
2295.50953	0.98639
2293.45262	0.98672
2291.39572	0.98664
2289.33881	0.98578
2287.28190	0.98489
2285.22499	0.98432
2283.16808	0.98443
2281.11117	0.98518
2279.05427	0.98567
2276.99736	0.98585
2274.94045	0.98608
2272.88354	0.98622
2270.82663	0.98668
2268.76973	0.98717
2266.71282	0.98713
2264.65591	0.98694
2262.59900	0.98645
2260.54209	0.98578
2258.48518	0.98559
2256.42828	0.98577
2254.37137	0.98588
2252.31446	0.98587
2250.25755	0.98589
2248.20064	0.98652
2246.14374	0.98746
2244.08683	0.98743
2242.02992	0.98649
2239.97301	0.98609
2237.91610	0.98724
2235.85919	0.98794
2233.80229	0.98641
2231.74538	0.98513
2229.68847	0.98571
2227.63156	0.98643
2225.57465	0.98626
2223.51775	0.98639
2221.46084	0.98717
2219.40393	0.98756
2217.34702	0.98752
2215.29011	0.98741
2213.23320	0.98701
2211.17630	0.98700
2209.11939	0.98741
2207.06248	0.98633
2205.00557	0.98483
2202.94866	0.98513
2200.89176	0.98555
2198.83485	0.98508
2196.77794	0.98541
2194.72103	0.98746
2192.66412	0.98978
2190.60721	0.99013
2188.55031	0.98825
2186.49340	0.98583
2184.43649	0.98512
2182.37958	0.98584
2180.32267	0.98668
2178.26577	0.98677
2176.20886	0.98566
2174.15195	0.98543
2172.09504	0.98539
2170.03813	0.98365
2167.98122	0.98307
2165.92432	0.98545
2163.86741	0.98784
2161.81050	0.98909
2159.75359	0.99098
2157.69668	0.99237
2155.63978	0.99096
2153.58287	0.98759
2151.52596	0.98568
2149.46905	0.98619
2147.41214	0.98657
2145.35523	0.98729
2143.29833	0.98954
2141.24142	0.99013
2139.18451	0.98803
2137.12760	0.98663
2135.07069	0.98732
2133.01379	0.98814
2130.95688	0.98759
2128.89997	0.98680
2126.84306	0.98666
2124.78615	0.98647
2122.72924	0.98581
2120.67234	0.98537
2118.61543	0.98542
2116.55852	0.98527
2114.50161	0.98477
2112.44470	0.98456
2110.38780	0.98491
2108.33089	0.98519
2106.27398	0.98503
2104.21707	0.98467
2102.16016	0.98501
2100.10325	0.98614
2098.04635	0.98693
2095.98944	0.98714
2093.93253	0.98678
2091.87562	0.98627
2089.81871	0.98644
2087.76181	0.98680
2085.70490	0.98687
2083.64799	0.98706
2081.59108	0.98737
2079.53417	0.98750
2077.47726	0.98745
2075.42036	0.98745
2073.36345	0.98747
2071.30654	0.98831
2069.24963	0.98981
2067.19272	0.98994
2065.13582	0.98935
2063.07891	0.98904
2061.02200	0.98775
2058.96509	0.98702
2056.90818	0.98814
2054.85127	0.98871
2052.79437	0.98824
2050.73746	0.98784
2048.68055	0.98761
2046.62364	0.98695
2044.56673	0.98662
2042.50983	0.98836
2040.45292	0.99048
2038.39601	0.99089
2036.33910	0.98960
2034.28219	0.98798
2032.22528	0.98791
2030.16838	0.98863
2028.11147	0.98832
2026.05456	0.98770
2023.99765	0.98888
2021.94074	0.99059
2019.88384	0.99059
2017.82693	0.99012
2015.77002	0.99125
2013.71311	0.99322
2011.65620	0.99270
2009.59929	0.99002
2007.54239	0.98937
2005.48548	0.99100
2003.42857	0.99180
2001.37166	0.99120
1999.31475	0.99062
1997.25785	0.99029
1995.20094	0.98990
1993.14403	0.98906
1991.08712	0.98773
1989.03021	0.98726
1986.97330	0.98751
1984.91640	0.98743
1982.85949	0.98774
1980.80258	0.98812
1978.74567	0.98754
1976.68876	0.98716
1974.63186	0.98755
1972.57495	0.98777
1970.51804	0.98820
1968.46113	0.98903
1966.40422	0.98963
1964.34731	0.98978
1962.29041	0.98899
1960.23350	0.98745
1958.17659	0.98719
1956.11968	0.98954
1954.06277	0.99174
1952.00587	0.99130
1949.94896	0.98940
1947.89205	0.98786
1945.83514	0.98778
1943.77823	0.98892
1941.72132	0.98917
1939.66442	0.98868
1937.60751	0.98906
1935.55060	0.98918
1933.49369	0.98849
1931.43678	0.98770
1929.37988	0.98756
1927.32297	0.98857
1925.26606	0.98993
1923.20915	0.98998
1921.15224	0.98849
1919.09533	0.98764
1917.03843	0.98842
1914.98152	0.98914
1912.92461	0.98932
1910.86770	0.99004
1908.81079	0.99060
1906.75389	0.98989
1904.69698	0.98879
1902.64007	0.98855
1900.58316	0.98890
1898.52625	0.98885
1896.46934	0.98848
1894.41244	0.98856
1892.35553	0.98929
1890.29862	0.98998
1888.24171	0.99005
1886.18480	0.98951
1884.12790	0.98878
1882.07099	0.98857
1880.01408	0.98936
1877.95717	0.98989
1875.90026	0.98942
1873.84335	0.98868
1871.78645	0.98816
1869.72954	0.98802
1867.67263	0.98797
1865.61572	0.98796
1863.55881	0.98834
1861.50191	0.98877
1859.44500	0.98846
1857.38809	0.98819
1855.33118	0.98854
1853.27427	0.98858
1851.21736	0.98821
1849.16046	0.98849
1847.10355	0.98899
1845.04664	0.98867
1842.98973	0.98814
1840.93282	0.98809
1838.87592	0.98822
1836.81901	0.98800
1834.76210	0.98747
1832.70519	0.98721
1830.64828	0.98746
1828.59137	0.98727
1826.53447	0.98684
1824.47756	0.98683
1822.42065	0.98678
1820.36374	0.98649
1818.30683	0.98609
1816.24993	0.98566
1814.19302	0.98484
1812.13611	0.98385
1810.07920	0.98285
1808.02229	0.98201
1805.96538	0.98157
1803.90848	0.98123
1801.85157	0.98030
1799.79466	0.97908
1797.73775	0.97823
1795.68084	0.97726
1793.62394	0.97544
1791.56703	0.97303
1789.51012	0.97129
1787.45321	0.96952
1785.39630	0.96703
1783.33939	0.96385
1781.28249	0.95960
1779.22558	0.95361
1777.16867	0.94675
1775.11176	0.93917
1773.05485	0.92782
1770.99795	0.91133
1768.94104	0.89274
1766.88413	0.87167
1764.82722	0.84914
1762.77031	0.82327
1760.71340	0.79374
1758.65650	0.76849
1756.59959	0.74690
1754.54268	0.72986
1752.48577	0.71724
1750.42886	0.70441
1748.37196	0.69212
1746.31505	0.68267
1744.25814	0.67543
1742.20123	0.67070
1740.14432	0.66887
1738.08741	0.67082
1736.03051	0.67814
1733.97360	0.69362
1731.91669	0.71477
1729.85978	0.73745
1727.80287	0.76311
1725.74597	0.78949
1723.68906	0.81519
1721.63215	0.83712
1719.57524	0.85519
1717.51833	0.87358
1715.46142	0.89017
1713.40452	0.90166
1711.34761	0.91082
1709.29070	0.91875
1707.23379	0.92533
1705.17688	0.93073
1703.11998	0.93508
1701.06307	0.93926
1699.00616	0.94364
1696.94925	0.94727
1694.89234	0.95064
1692.83543	0.95345
1690.77853	0.95559
1688.72162	0.95757
1686.66471	0.95923
1684.60780	0.96094
1682.55089	0.96270
1680.49399	0.96434
1678.43708	0.96568
1676.38017	0.96647
1674.32326	0.96698
1672.26635	0.96753
1670.20944	0.96809
1668.15254	0.96860
1666.09563	0.96903
1664.03872	0.96927
1661.98181	0.96942
1659.92490	0.96951
1657.86800	0.96943
1655.81109	0.96922
1653.75418	0.96913
1651.69727	0.96929
1649.64036	0.96961
1647.58345	0.96984
1645.52655	0.96980
1643.46964	0.96995
1641.41273	0.97023
1639.35582	0.97032
1637.29891	0.97036
1635.24201	0.97106
1633.18510	0.97213
1631.12819	0.97292
1629.07128	0.97328
1627.01437	0.97326
1624.95746	0.97367
1622.90056	0.97464
1620.84365	0.97533
1618.78674	0.97567
1616.72983	0.97596
1614.67292	0.97633
1612.61602	0.97683
1610.55911	0.97737
1608.50220	0.97795
1606.44529	0.97837
1604.38838	0.97862
1602.33147	0.97881
1600.27457	0.97910
1598.21766	0.97947
1596.16075	0.97959
1594.10384	0.97964
1592.04693	0.98006
1589.99003	0.98039
1587.93312	0.98023
1585.87621	0.98016
1583.81930	0.98057
1581.76239	0.98105
1579.70548	0.98126
1577.64858	0.98132
1575.59167	0.98124
1573.53476	0.98107
1571.47785	0.98093
1569.42094	0.98064
1567.36404	0.98016
1565.30713	0.97991
1563.25022	0.98004
1561.19331	0.98008
1559.13640	0.97966
1557.07949	0.97961
1555.02259	0.98009
1552.96568	0.98058
1550.90877	0.98088
1548.85186	0.98084
1546.79495	0.98084
1544.73805	0.98112
1542.68114	0.98124
1540.62423	0.98093
1538.56732	0.98083
1536.51041	0.98112
1534.45350	0.98135
1532.39660	0.98128
1530.33969	0.98092
1528.28278	0.98054
1526.22587	0.98046
1524.16896	0.98072
1522.11206	0.98079
1520.05515	0.98065
1517.99824	0.98076
1515.94133	0.98098
1513.88442	0.98118
1511.82751	0.98144
1509.77061	0.98143
1507.71370	0.98044
1505.65679	0.97972
1503.59988	0.98022
1501.54297	0.98045
1499.48607	0.98027
1497.42916	0.98009
1495.37225	0.98012
1493.31534	0.98025
1491.25843	0.98030
1489.20152	0.98027
1487.14462	0.98002
1485.08771	0.97946
1483.03080	0.97889
1480.97389	0.97841
1478.91698	0.97797
1476.86008	0.97733
1474.80317	0.97625
1472.74626	0.97459
1470.68935	0.97253
1468.63244	0.97054
1466.57553	0.96829
1464.51863	0.96547
1462.46172	0.96290
1460.40481	0.96093
1458.34790	0.95861
1456.29099	0.95577
1454.23409	0.95392
1452.17718	0.95271
1450.12027	0.95136
1448.06336	0.94944
1446.00645	0.94705
1443.94954	0.94464
1441.89264	0.94217
1439.83573	0.93981
1437.77882	0.93739
1435.72191	0.93500
1433.66500	0.93398
1431.60810	0.93412
1429.55119	0.93505
1427.49428	0.93670
1425.43737	0.93866
1423.38046	0.94082
1421.32355	0.94303
1419.26665	0.94516
1417.20974	0.94735
1415.15283	0.94952
1413.09592	0.95138
1411.03901	0.95273
1408.98211	0.95357
1406.92520	0.95398
1404.86829	0.95416
1402.81138	0.95419
1400.75447	0.95357
1398.69756	0.95164
1396.64066	0.94818
1394.58375	0.94257
1392.52684	0.93519
1390.46993	0.92689
1388.41302	0.91648
1386.35612	0.90377
1384.29921	0.89114
1382.24230	0.87903
1380.18539	0.86703
1378.12848	0.85557
1376.07157	0.84448
1374.01467	0.83303
1371.95776	0.82290
1369.90085	0.81600
1367.84394	0.81289
1365.78703	0.81513
1363.73013	0.82471
1361.67322	0.84285
1359.61631	0.86551
1357.55940	0.88847
1355.50249	0.90945
1353.44558	0.92592
1351.38868	0.93724
1349.33177	0.94447
1347.27486	0.94884
1345.21795	0.95167
1343.16104	0.95380
1341.10414	0.95535
1339.04723	0.95609
1336.99032	0.95595
1334.93341	0.95530
1332.87650	0.95460
1330.81959	0.95388
1328.76269	0.95297
1326.70578	0.95180
1324.64887	0.95059
1322.59196	0.94984
1320.53505	0.94967
1318.47815	0.95016
1316.42124	0.95126
1314.36433	0.95243
1312.30742	0.95335
1310.25051	0.95411
1308.19360	0.95466
1306.13670	0.95503
1304.07979	0.95500
1302.02288	0.95415
1299.96597	0.95270
1297.90906	0.95117
1295.85216	0.94941
1293.79525	0.94729
1291.73834	0.94505
1289.68143	0.94273
1287.62452	0.94000
1285.56761	0.93676
1283.51071	0.93302
1281.45380	0.92835
1279.39689	0.92299
1277.33998	0.91745
1275.28307	0.91120
1273.22617	0.90352
1271.16926	0.89457
1269.11235	0.88479
1267.05544	0.87429
1264.99853	0.86314
1262.94162	0.85126
1260.88472	0.83830
1258.82781	0.82418
1256.77090	0.80909
1254.71399	0.79299
1252.65708	0.77576
1250.60018	0.75778
1248.54327	0.73956
1246.48636	0.72092
1244.42945	0.70175
1242.37254	0.68247
1240.31563	0.66340
1238.25873	0.64479
1236.20182	0.62715
1234.14491	0.61135
1232.08800	0.59831
1230.03109	0.58841
1227.97419	0.58172
1225.91728	0.57795
1223.86037	0.57598
1221.80346	0.57479
1219.74655	0.57417
1217.68964	0.57409
1215.63274	0.57513
1213.57583	0.57896
1211.51892	0.58719
1209.46201	0.60118
1207.40510	0.62245
1205.34820	0.65126
1203.29129	0.68543
1201.23438	0.72157
1199.17747	0.75662
1197.12056	0.78800
1195.06365	0.81387
1193.00675	0.83379
1190.94984	0.84837
1188.89293	0.85840
1186.83602	0.86468
1184.77911	0.86790
1182.72221	0.86859
1180.66530	0.86708
1178.60839	0.86400
1176.55148	0.86031
1174.49457	0.85641
1172.43766	0.85241
1170.38076	0.84911
1168.32385	0.84708
1166.26694	0.84633
1164.21003	0.84652
1162.15312	0.84757
1160.09622	0.84994
1158.03931	0.85359
1155.98240	0.85798
1153.92549	0.86268
1151.86858	0.86718
1149.81167	0.87131
1147.75477	0.87495
1145.69786	0.87749
1143.64095	0.87826
1141.58404	0.87716
1139.52713	0.87498
1137.47023	0.87214
1135.41332	0.86828
1133.35641	0.86348
1131.29950	0.85812
1129.24259	0.85265
1127.18568	0.84790
1125.12878	0.84470
1123.07187	0.84336
1121.01496	0.84357
1118.95805	0.84436
1116.90114	0.84513
1114.84424	0.84594
1112.78733	0.84644
1110.73042	0.84632
1108.67351	0.84567
1106.61660	0.84438
1104.55969	0.84224
1102.50279	0.83857
1100.44588	0.83265
1098.38897	0.82473
1096.33206	0.81564
1094.27515	0.80554
1092.21825	0.79455
1090.16134	0.78365
1088.10443	0.77349
1086.04752	0.76410
1083.99061	0.75552
1081.93370	0.74759
1079.87680	0.73983
1077.81989	0.73184
1075.76298	0.72400
1073.70607	0.71690
1071.64916	0.71033
1069.59226	0.70378
1067.53535	0.69727
1065.47844	0.69084
1063.42153	0.68387
1061.36462	0.67549
1059.30771	0.66553
1057.25081	0.65425
1055.19390	0.64208
1053.13699	0.63000
1051.08008	0.61862
1049.02317	0.60838
1046.96627	0.59997
1044.90936	0.59342
1042.85245	0.58851
1040.79554	0.58476
1038.73863	0.58124
1036.68172	0.57838
1034.62482	0.57768
1032.56791	0.58040
1030.51100	0.58748
1028.45409	0.59914
1026.39718	0.61444
1024.34028	0.63223
1022.28337	0.65175
1020.22646	0.67194
1018.16955	0.69164
1016.11264	0.71037
1014.05573	0.72778
1011.99883	0.74358
1009.94192	0.75838
1007.88501	0.77286
1005.82810	0.78611
1003.77119	0.79742
1001.71429	0.80737
999.65738	0.81609
997.60047	0.82326
995.54356	0.82893
993.48665	0.83345
991.42974	0.83717
989.37284	0.84041
987.31593	0.84386
985.25902	0.84805
983.20211	0.85289
981.14520	0.85813
979.08830	0.86371
977.03139	0.86969
974.97448	0.87600
972.91757	0.88246
970.86066	0.88876
968.80375	0.89431
966.74685	0.89873
964.68994	0.90180
962.63303	0.90346
960.57612	0.90437
958.51921	0.90500
956.46231	0.90519
954.40540	0.90516
952.34849	0.90560
950.29158	0.90676
948.23467	0.90847
946.17776	0.91074
944.12086	0.91327
942.06395	0.91542
940.00704	0.91699
937.95013	0.91789
935.89322	0.91820
933.83632	0.91778
931.77941	0.91636
929.72250	0.91439
927.66559	0.91233
925.60868	0.90979
923.55177	0.90641
921.49487	0.90294
919.43796	0.89992
917.38105	0.89705
915.32414	0.89399
913.26723	0.89034
911.21033	0.88549
909.15342	0.87959
907.09651	0.87404
905.03960	0.86975
902.98269	0.86687
900.92578	0.86571
898.86888	0.86717
896.81197	0.87212
894.75506	0.87974
892.69815	0.88827
890.64124	0.89614
888.58434	0.90215
886.52743	0.90636
884.47052	0.90921
882.41361	0.91080
880.35670	0.91158
878.29979	0.91208
876.24289	0.91314
874.18598	0.91592
872.12907	0.92050
870.07216	0.92613
868.01525	0.93208
865.95835	0.93756
863.90144	0.94187
861.84453	0.94512
859.78762	0.94773
857.73071	0.94967
855.67380	0.95063
853.61690	0.95113
851.55999	0.95146
849.50308	0.95079
847.44617	0.94929
845.38926	0.94771
843.33236	0.94606
841.27545	0.94490
839.21854	0.94489
837.16163	0.94585
835.10472	0.94719
833.04781	0.94862
830.99091	0.95086
828.93400	0.95382
826.87709	0.95655
824.82018	0.95874
822.76327	0.96029
820.70637	0.96177
818.64946	0.96358
816.59255	0.96505
814.53564	0.96544
812.47873	0.96541
810.42182	0.96634
808.36492	0.96794
806.30801	0.96908
804.25110	0.96971
802.19419	0.97015
800.13728	0.97030
798.08038	0.97038
796.02347	0.97033
793.96656	0.96980
791.90965	0.96948
789.85274	0.96993
787.79583	0.97059
785.73893	0.97078
783.68202	0.97038
781.62511	0.97004
779.56820	0.97013
777.51129	0.97017
775.45439	0.97028
773.39748	0.97089
771.34057	0.97143
769.28366	0.97142
767.22675	0.97125
765.16984	0.97149
763.11294	0.97194
761.05603	0.97199
758.99912	0.97173
756.94221	0.97182
754.88530	0.97243
752.82839	0.97269
750.77149	0.97226
748.71458	0.97182
746.65767	0.97164
744.60076	0.97198
742.54385	0.97270
740.48695	0.97289
738.43004	0.97220
736.37313	0.97126
734.31622	0.97054
732.25931	0.96948
730.20240	0.96793
728.14550	0.96650
726.08859	0.96538
724.03168	0.96452
721.97477	0.96375
719.91786	0.96317
717.86096	0.96271
715.80405	0.96202
713.74714	0.96129
711.69023	0.96064
709.63332	0.95980
707.57641	0.95888
705.51951	0.95797
703.46260	0.95673
701.40569	0.95529
699.34878	0.95418
697.29187	0.95348
695.23497	0.95274
693.17806	0.95191
691.12115	0.95134
689.06424	0.95088
687.00733	0.95065
684.95042	0.95120
682.89352	0.95227
680.83661	0.95296
678.77970	0.95329
676.72279	0.95379
674.66588	0.95406
672.60898	0.95423
670.55207	0.95450
668.49516	0.95377
666.43825	0.95186
664.38134	0.95042
662.32443	0.94922
660.26753	0.94800
658.21062	0.94708
656.15371	0.94647
654.09680	0.94529
652.03989	0.94307
649.98299	0.93984
647.92608	0.93614
645.86917	0.93335
643.81226	0.93210
641.75535	0.93217
639.69844	0.93266
637.64154	0.93294
635.58463	0.93294
633.52772	0.93177
631.47081	0.92924
629.41390	0.92663
627.35700	0.92401
625.30009	0.92089
623.24318	0.91812
621.18627	0.91598
619.12936	0.91347
617.07245	0.90977
615.01555	0.90450
612.95864	0.89833
610.90173	0.89126
608.84482	0.88155
606.78791	0.86981
604.73101	0.86051
602.67410	0.85761
600.61719	0.86099
598.56028	0.86846
596.50337	0.87810
594.44646	0.88759
592.38956	0.89530
590.33265	0.90152
588.27574	0.90765
586.21883	0.91501
584.16192	0.92355
582.10502	0.93131
580.04811	0.93675
577.99120	0.93984
575.93429	0.94069
573.87738	0.94030
571.82047	0.93941
569.76357	0.93754
567.70666	0.93558
565.64975	0.93354
563.59284	0.93060
561.53593	0.92801
559.47903	0.92613
557.42212	0.92481
555.36521	0.92513
553.30830	0.92726
551.25139	0.93004
549.19448	0.93232
547.13758	0.93428
545.08067	0.93615
543.02376	0.93712
540.96685	0.93790
538.90994	0.93957
536.85304	0.94113
534.79613	0.94213
532.73922	0.94223
530.68231	0.94084
528.62540	0.93950
526.56849	0.94015
524.51159	0.94101
522.45468	0.93970
520.39777	0.93848
518.34086	0.93875
516.28395	0.93852
514.22705	0.93747
512.17014	0.93694
510.11323	0.93738
508.05632	0.93787
505.99941	0.93666
503.94250	0.93412
501.88560	0.93195
499.82869	0.92996
497.77178	0.92831
495.71487	0.92769
493.65796	0.92764
491.60106	0.92619
489.54415	0.92238
487.48724	0.91937
485.43033	0.91943
483.37342	0.92037
481.31651	0.91997
479.25961	0.91826
477.20270	0.91603
475.14579	0.91543
473.08888	0.91806
471.03197	0.92042
468.97507	0.91986
466.91816	0.92001
464.86125	0.92069
462.80434	0.91878
460.74743	0.91534
458.69052	0.91108
456.63362	0.90582
454.57671	0.90212
452.51980	0.90125
450.46289	0.90260
448.40598	0.90553
446.34908	0.90668
444.29217	0.90621
442.23526	0.90965
440.17835	0.91344
438.12144	0.91267
436.06453	0.91190
434.00763	0.91335
431.95072	0.91345
429.89381	0.91428
427.83690	0.91910
425.77999	0.92476
423.72309	0.92716
421.66618	0.92613
419.60927	0.92311
417.55236	0.92156
415.49545	0.92188
413.43854	0.91995
411.38164	0.91870
409.32473	0.91899
407.26782	0.91525
405.21091	0.91173
403.15400	0.91327
401.09710	0.91274
399.04019	0.90743
