3996.57260	0.97209
3994.51569	0.97092
3992.45878	0.97049
3990.40188	0.97141
3988.34497	0.97194
3986.28806	0.97179
3984.23115	0.97168
3982.17424	0.97194
3980.11733	0.97241
3978.06043	0.97234
3976.00352	0.97170
3973.94661	0.97124
3971.88970	0.97122
3969.83279	0.97164
3967.77589	0.97225
3965.71898	0.97242
3963.66207	0.97189
3961.60516	0.97157
3959.54825	0.97187
3957.49134	0.97211
3955.43444	0.97201
3953.37753	0.97156
3951.32062	0.97075
3949.26371	0.97002
3947.20680	0.97027
3945.14990	0.97123
3943.09299	0.97172
3941.03608	0.97198
3938.97917	0.97263
3936.92226	0.97297
3934.86535	0.97254
3932.80845	0.97201
3930.75154	0.97210
3928.69463	0.97247
3926.63772	0.97237
3924.58081	0.97177
3922.52391	0.97135
3920.46700	0.97126
3918.41009	0.97132
3916.35318	0.97163
3914.29627	0.97168
3912.23936	0.97119
3910.18246	0.97078
3908.12555	0.97128
3906.06864	0.97207
3904.01173	0.97123
3901.95482	0.96931
3899.89792	0.96901
3897.84101	0.97046
3895.78410	0.97192
3893.72719	0.97264
3891.67028	0.97263
3889.61337	0.97243
3887.55647	0.97263
3885.49956	0.97251
3883.44265	0.97183
3881.38574	0.97125
3879.32883	0.97164
3877.27193	0.97251
3875.21502	0.97249
3873.15811	0.97215
3871.10120	0.97209
3869.04429	0.97222
3866.98738	0.97255
3864.93048	0.97260
3862.87357	0.97236
3860.81666	0.97217
3858.75975	0.97212
3856.70284	0.97259
3854.64594	0.97296
3852.58903	0.97181
3850.53212	0.97132
3848.47521	0.97221
3846.41830	0.97324
3844.36139	0.97340
3842.30449	0.97258
3840.24758	0.97206
3838.19067	0.97265
3836.13376	0.97356
3834.07685	0.97353
3832.01995	0.97285
3829.96304	0.97248
3827.90613	0.97240
3825.84922	0.97247
3823.79231	0.97322
3821.73540	0.97377
3819.67850	0.97276
3817.62159	0.97183
3815.56468	0.97218
3813.50777	0.97324
3811.45086	0.97407
3809.39396	0.97460
3807.33705	0.97470
3805.28014	0.97441
3803.22323	0.97465
3801.16632	0.97509
3799.10941	0.97469
3797.05251	0.97384
3794.99560	0.97328
3792.93869	0.97323
3790.88178	0.97340
3788.82487	0.97369
3786.76796	0.97400
3784.71106	0.97402
3782.65415	0.97445
3780.59724	0.97566
3778.54033	0.97609
3776.48342	0.97549
3774.42652	0.97475
3772.36961	0.97389
3770.31270	0.97358
3768.25579	0.97422
3766.19888	0.97459
3764.14197	0.97403
3762.08507	0.97308
3760.02816	0.97238
3757.97125	0.97295
3755.91434	0.97462
3753.85743	0.97551
3751.80053	0.97518
3749.74362	0.97473
3747.68671	0.97417
3745.62980	0.97342
3743.57289	0.97354
3741.51598	0.97433
3739.45908	0.97484
3737.40217	0.97511
3735.34526	0.97466
3733.28835	0.97339
3731.23144	0.97302
3729.17454	0.97371
3727.11763	0.97458
3725.06072	0.97552
3723.00381	0.97592
3720.94690	0.97524
3718.88999	0.97500
3716.83309	0.97528
3714.77618	0.97485
3712.71927	0.97432
3710.66236	0.97491
3708.60545	0.97610
3706.54855	0.97659
3704.49164	0.97652
3702.43473	0.97628
3700.37782	0.97574
3698.32091	0.97536
3696.26400	0.97559
3694.20710	0.97604
3692.15019	0.97597
3690.09328	0.97546
3688.03637	0.97576
3685.97946	0.97672
3683.92256	0.97709
3681.86565	0.97649
3679.80874	0.97549
3677.75183	0.97532
3675.69492	0.97608
3673.63801	0.97689
3671.58111	0.97735
3669.52420	0.97686
3667.46729	0.97646
3665.41038	0.97679
3663.35347	0.97711
3661.29657	0.97680
3659.23966	0.97580
3657.18275	0.97514
3655.12584	0.97572
3653.06893	0.97721
3651.01202	0.97873
3648.95512	0.97880
3646.89821	0.97718
3644.84130	0.97588
3642.78439	0.97561
3640.72748	0.97597
3638.67058	0.97659
3636.61367	0.97705
3634.55676	0.97650
3632.49985	0.97525
3630.44294	0.97453
3628.38603	0.97438
3626.32913	0.97409
3624.27222	0.97407
3622.21531	0.97449
3620.15840	0.97476
3618.10149	0.97452
3616.04459	0.97415
3613.98768	0.97385
3611.93077	0.97354
3609.87386	0.97374
3607.81695	0.97424
3605.76004	0.97395
3603.70314	0.97328
3601.64623	0.97307
3599.58932	0.97311
3597.53241	0.97278
3595.47550	0.97218
3593.41860	0.97179
3591.36169	0.97175
3589.30478	0.97111
3587.24787	0.96942
3585.19096	0.96844
3583.13405	0.96845
3581.07715	0.96849
3579.02024	0.96863
3576.96333	0.96895
3574.90642	0.96888
3572.84951	0.96811
3570.79261	0.96688
3568.73570	0.96566
3566.67879	0.96508
3564.62188	0.96511
3562.56497	0.96498
3560.50806	0.96460
3558.45116	0.96464
3556.39425	0.96490
3554.33734	0.96401
3552.28043	0.96198
3550.22352	0.96036
3548.16662	0.95983
3546.10971	0.95996
3544.05280	0.95971
3541.99589	0.95897
3539.93898	0.95823
3537.88207	0.95731
3535.82517	0.95681
3533.76826	0.95706
3531.71135	0.95681
3529.65444	0.95579
3527.59753	0.95488
3525.54063	0.95385
3523.48372	0.95263
3521.42681	0.95179
3519.36990	0.95112
3517.31299	0.95029
3515.25608	0.94964
3513.19918	0.94948
3511.14227	0.94943
3509.08536	0.94870
3507.02845	0.94728
3504.97154	0.94600
3502.91464	0.94526
3500.85773	0.94470
3498.80082	0.94386
3496.74391	0.94256
3494.68700	0.94098
3492.63009	0.93988
3490.57319	0.93960
3488.51628	0.93944
3486.45937	0.93848
3484.40246	0.93715
3482.34555	0.93658
3480.28865	0.93658
3478.23174	0.93597
3476.17483	0.93436
3474.11792	0.93263
3472.06101	0.93115
3470.00410	0.92969
3467.94720	0.92866
3465.89029	0.92805
3463.83338	0.92768
3461.77647	0.92736
3459.71956	0.92640
3457.66266	0.92469
3455.60575	0.92293
3453.54884	0.92148
3451.49193	0.92021
3449.43502	0.91905
3447.37811	0.91805
3445.32121	0.91740
3443.26430	0.91697
3441.20739	0.91665
3439.15048	0.91625
3437.09357	0.91517
3435.03667	0.91356
3432.97976	0.91201
3430.92285	0.91130
3428.86594	0.91126
3426.80903	0.91063
3424.75212	0.90973
3422.69522	0.90881
3420.63831	0.90725
3418.58140	0.90569
3416.52449	0.90478
3414.46758	0.90413
3412.41068	0.90341
3410.35377	0.90240
3408.29686	0.90123
3406.23995	0.90072
3404.18304	0.90032
3402.12613	0.89905
3400.06923	0.89762
3398.01232	0.89679
3395.95541	0.89652
3393.89850	0.89637
3391.84159	0.89582
3389.78469	0.89494
3387.72778	0.89415
3385.67087	0.89351
3383.61396	0.89263
3381.55705	0.89149
3379.50014	0.89051
3377.44324	0.88975
3375.38633	0.88869
3373.32942	0.88742
3371.27251	0.88658
3369.21560	0.88597
3367.15870	0.88518
3365.10179	0.88433
3363.04488	0.88348
3360.98797	0.88256
3358.93106	0.88130
3356.87415	0.87960
3354.81725	0.87818
3352.76034	0.87721
3350.70343	0.87611
3348.64652	0.87483
3346.58961	0.87363
3344.53271	0.87280
3342.47580	0.87216
3340.41889	0.87121
3338.36198	0.87013
3336.30507	0.86936
3334.24816	0.86911
3332.19126	0.86899
3330.13435	0.86854
3328.07744	0.86845
3326.02053	0.86913
3323.96362	0.86964
3321.90672	0.86963
3319.84981	0.86969
3317.79290	0.87004
3315.73599	0.87047
3313.67908	0.87092
3311.62217	0.87119
3309.56527	0.87141
3307.50836	0.87178
3305.45145	0.87179
3303.39454	0.87140
3301.33763	0.87090
3299.28073	0.87072
3297.22382	0.87096
3295.16691	0.87107
3293.11000	0.87093
3291.05309	0.87077
3288.99618	0.87058
3286.93928	0.87049
3284.88237	0.87051
3282.82546	0.87050
3280.76855	0.87068
3278.71164	0.87115
3276.65474	0.87145
3274.59783	0.87156
3272.54092	0.87175
3270.48401	0.87199
3268.42710	0.87251
3266.37019	0.87363
3264.31329	0.87484
3262.25638	0.87565
3260.19947	0.87632
3258.14256	0.87704
3256.08565	0.87794
3254.02875	0.87889
3251.97184	0.87983
3249.91493	0.88097
3247.85802	0.88235
3245.80111	0.88379
3243.74420	0.88494
3241.68730	0.88570
3239.63039	0.88632
3237.57348	0.88694
3235.51657	0.88780
3233.45966	0.88861
3231.40276	0.88904
3229.34585	0.88966
3227.28894	0.89058
3225.23203	0.89152
3223.17512	0.89237
3221.11821	0.89331
3219.06131	0.89458
3217.00440	0.89587
3214.94749	0.89678
3212.89058	0.89728
3210.83367	0.89786
3208.77677	0.89867
3206.71986	0.89954
3204.66295	0.90052
3202.60604	0.90147
3200.54913	0.90266
3198.49222	0.90383
3196.43532	0.90449
3194.37841	0.90523
3192.32150	0.90623
3190.26459	0.90709
3188.20768	0.90781
3186.15078	0.90843
3184.09387	0.90862
3182.03696	0.90828
3179.98005	0.90844
3177.92314	0.90989
3175.86623	0.91182
3173.80933	0.91281
3171.75242	0.91286
3169.69551	0.91325
3167.63860	0.91434
3165.58169	0.91539
3163.52479	0.91571
3161.46788	0.91556
3159.41097	0.91570
3157.35406	0.91591
3155.29715	0.91588
3153.24024	0.91615
3151.18334	0.91733
3149.12643	0.91920
3147.06952	0.92042
3145.01261	0.92041
3142.95570	0.92034
3140.89880	0.92097
3138.84189	0.92192
3136.78498	0.92274
3134.72807	0.92315
3132.67116	0.92344
3130.61425	0.92421
3128.55735	0.92514
3126.50044	0.92582
3124.44353	0.92640
3122.38662	0.92699
3120.32971	0.92776
3118.27281	0.92858
3116.21590	0.92873
3114.15899	0.92858
3112.10208	0.92926
3110.04517	0.93001
3107.98826	0.93018
3105.93136	0.93062
3103.87445	0.93136
3101.81754	0.93206
3099.76063	0.93285
3097.70372	0.93312
3095.64682	0.93289
3093.58991	0.93323
3091.53300	0.93400
3089.47609	0.93431
3087.41918	0.93444
3085.36227	0.93500
3083.30537	0.93588
3081.24846	0.93643
3079.19155	0.93653
3077.13464	0.93637
3075.07773	0.93600
3073.02083	0.93595
3070.96392	0.93654
3068.90701	0.93705
3066.85010	0.93689
3064.79319	0.93676
3062.73628	0.93740
3060.67938	0.93840
3058.62247	0.93929
3056.56556	0.93992
3054.50865	0.94016
3052.45174	0.94022
3050.39484	0.94019
3048.33793	0.94010
3046.28102	0.94041
3044.22411	0.94111
3042.16720	0.94186
3040.11029	0.94230
3038.05339	0.94215
3035.99648	0.94189
3033.93957	0.94220
3031.88266	0.94274
3029.82575	0.94296
3027.76885	0.94314
3025.71194	0.94354
3023.65503	0.94389
3021.59812	0.94418
3019.54121	0.94455
3017.48430	0.94487
3015.42740	0.94512
3013.37049	0.94547
3011.31358	0.94587
3009.25667	0.94593
3007.19976	0.94562
3005.14286	0.94547
3003.08595	0.94574
3001.02904	0.94604
2998.97213	0.94626
2996.91522	0.94667
2994.85831	0.94692
2992.80141	0.94705
2990.74450	0.94733
2988.68759	0.94715
2986.63068	0.94637
2984.57377	0.94617
2982.51687	0.94693
2980.45996	0.94753
2978.40305	0.94727
2976.34614	0.94652
2974.28923	0.94552
2972.23232	0.94454
2970.17542	0.94419
2968.11851	0.94410
2966.06160	0.94381
2964.00469	0.94383
2961.94778	0.94375
2959.89088	0.94320
2957.83397	0.94264
2955.77706	0.94212
2953.72015	0.94164
2951.66324	0.94090
2949.60633	0.93977
2947.54943	0.93890
2945.49252	0.93849
2943.43561	0.93811
2941.37870	0.93758
2939.32179	0.93735
2937.26489	0.93723
2935.20798	0.93646
2933.15107	0.93557
2931.09416	0.93527
2929.03725	0.93504
2926.98034	0.93420
2924.92344	0.93299
2922.86653	0.93189
2920.80962	0.93093
2918.75271	0.93011
2916.69580	0.92951
2914.63890	0.92871
2912.58199	0.92755
2910.52508	0.92634
2908.46817	0.92487
2906.41126	0.92325
2904.35435	0.92213
2902.29745	0.92132
2900.24054	0.92038
2898.18363	0.91982
2896.12672	0.91993
2894.06981	0.91962
2892.01291	0.91883
2889.95600	0.91894
2887.89909	0.91999
2885.84218	0.92074
2883.78527	0.92061
2881.72836	0.92045
2879.67146	0.92083
2877.61455	0.92114
2875.55764	0.92101
2873.50073	0.92080
2871.44382	0.92101
2869.38692	0.92154
2867.33001	0.92178
2865.27310	0.92191
2863.21619	0.92237
2861.15928	0.92316
2859.10237	0.92397
2857.04547	0.92459
2854.98856	0.92549
2852.93165	0.92656
2850.87474	0.92718
2848.81783	0.92777
2846.76093	0.92858
2844.70402	0.92931
2842.64711	0.93008
2840.59020	0.93106
2838.53329	0.93217
2836.47638	0.93319
2834.41948	0.93405
2832.36257	0.93476
2830.30566	0.93503
2828.24875	0.93488
2826.19184	0.93499
2824.13494	0.93548
2822.07803	0.93596
2820.02112	0.93616
2817.96421	0.93603
2815.90730	0.93628
2813.85039	0.93711
2811.79349	0.93780
2809.73658	0.93811
2807.67967	0.93837
2805.62276	0.93900
2803.56585	0.93950
2801.50895	0.93955
2799.45204	0.93992
2797.39513	0.94064
2795.33822	0.94126
2793.28131	0.94156
2791.22440	0.94134
2789.16750	0.94091
2787.11059	0.94093
2785.05368	0.94134
2782.99677	0.94170
2780.93986	0.94202
2778.88296	0.94238
2776.82605	0.94260
2774.76914	0.94260
2772.71223	0.94256
2770.65532	0.94270
2768.59841	0.94290
2766.54151	0.94300
2764.48460	0.94301
2762.42769	0.94298
2760.37078	0.94287
2758.31387	0.94302
2756.25697	0.94344
2754.20006	0.94358
2752.14315	0.94345
2750.08624	0.94345
2748.02933	0.94358
2745.97242	0.94367
2743.91552	0.94371
2741.85861	0.94361
2739.80170	0.94338
2737.74479	0.94341
2735.68788	0.94373
2733.63098	0.94398
2731.57407	0.94412
2729.51716	0.94417
2727.46025	0.94386
2725.40334	0.94347
2723.34643	0.94346
2721.28953	0.94346
2719.23262	0.94342
2717.17571	0.94385
2715.11880	0.94465
2713.06189	0.94527
2711.00499	0.94551
2708.94808	0.94542
2706.89117	0.94517
2704.83426	0.94484
2702.77735	0.94477
2700.72044	0.94513
2698.66354	0.94550
2696.60663	0.94574
2694.54972	0.94594
2692.49281	0.94601
2690.43590	0.94584
2688.37900	0.94561
2686.32209	0.94565
2684.26518	0.94583
2682.20827	0.94587
2680.15136	0.94591
2678.09445	0.94606
2676.03755	0.94631
2673.98064	0.94673
2671.92373	0.94709
2669.86682	0.94706
2667.80991	0.94668
2665.75301	0.94629
2663.69610	0.94626
2661.63919	0.94667
2659.58228	0.94709
2657.52537	0.94695
2655.46846	0.94656
2653.41156	0.94661
2651.35465	0.94680
2649.29774	0.94660
2647.24083	0.94647
2645.18392	0.94679
2643.12702	0.94749
2641.07011	0.94823
2639.01320	0.94855
2636.95629	0.94860
2634.89938	0.94865
2632.84247	0.94867
2630.78557	0.94894
2628.72866	0.94958
2626.67175	0.95014
2624.61484	0.95000
2622.55793	0.94941
2620.50103	0.94927
2618.44412	0.94959
2616.38721	0.94941
2614.33030	0.94879
2612.27339	0.94874
2610.21648	0.94919
2608.15958	0.94952
2606.10267	0.94975
2604.04576	0.94992
2601.98885	0.94977
2599.93194	0.94955
2597.87504	0.94989
2595.81813	0.95051
2593.76122	0.95104
2591.70431	0.95137
2589.64740	0.95127
2587.59049	0.95103
2585.53359	0.95076
2583.47668	0.95039
2581.41977	0.95008
2579.36286	0.95008
2577.30595	0.95051
2575.24905	0.95104
2573.19214	0.95149
2571.13523	0.95177
2569.07832	0.95180
2567.02141	0.95163
2564.96450	0.95156
2562.90760	0.95199
2560.85069	0.95261
2558.79378	0.95278
2556.73687	0.95276
2554.67996	0.95278
2552.62306	0.95244
2550.56615	0.95224
2548.50924	0.95269
2546.45233	0.95307
2544.39542	0.95265
2542.33851	0.95186
2540.28161	0.95167
2538.22470	0.95219
2536.16779	0.95275
2534.11088	0.95302
2532.05397	0.95321
2529.99707	0.95327
2527.94016	0.95293
2525.88325	0.95269
2523.82634	0.95274
2521.76943	0.95266
2519.71252	0.95256
2517.65562	0.95263
2515.59871	0.95259
2513.54180	0.95245
2511.48489	0.95277
2509.42798	0.95336
2507.37108	0.95378
2505.31417	0.95418
2503.25726	0.95453
2501.20035	0.95463
2499.14344	0.95437
2497.08653	0.95363
2495.02963	0.95300
2492.97272	0.95292
2490.91581	0.95296
2488.85890	0.95281
2486.80199	0.95264
2484.74509	0.95268
2482.68818	0.95285
2480.63127	0.95314
2478.57436	0.95372
2476.51745	0.95391
2474.46054	0.95333
2472.40364	0.95312
2470.34673	0.95397
2468.28982	0.95454
2466.23291	0.95399
2464.17600	0.95312
2462.11910	0.95254
2460.06219	0.95243
2458.00528	0.95322
2455.94837	0.95405
2453.89146	0.95385
2451.83455	0.95355
2449.77765	0.95392
2447.72074	0.95452
2445.66383	0.95505
2443.60692	0.95495
2441.55001	0.95446
2439.49311	0.95426
2437.43620	0.95396
2435.37929	0.95370
2433.32238	0.95414
2431.26547	0.95471
2429.20856	0.95504
2427.15166	0.95545
2425.09475	0.95543
2423.03784	0.95445
2420.98093	0.95340
2418.92402	0.95335
2416.86712	0.95386
2414.81021	0.95406
2412.75330	0.95386
2410.69639	0.95379
2408.63948	0.95419
2406.58257	0.95456
2404.52567	0.95456
2402.46876	0.95458
2400.41185	0.95473
2398.35494	0.95481
2396.29803	0.95499
2394.24113	0.95517
2392.18422	0.95494
2390.12731	0.95466
2388.07040	0.95481
2386.01349	0.95506
2383.95658	0.95510
2381.89968	0.95512
2379.84277	0.95549
2377.78586	0.95615
2375.72895	0.95621
2373.67204	0.95562
2371.61514	0.95574
2369.55823	0.95681
2367.50132	0.95753
2365.44441	0.95746
2363.38750	0.95805
2361.33059	0.95897
2359.27369	0.95817
2357.21678	0.95599
2355.15987	0.95460
2353.10296	0.95462
2351.04605	0.95486
2348.98915	0.95476
2346.93224	0.95430
2344.87533	0.95430
2342.81842	0.95561
2340.76151	0.95660
2338.70460	0.95613
2336.64770	0.95526
2334.59079	0.95517
2332.53388	0.95567
2330.47697	0.95602
2328.42006	0.95613
2326.36316	0.95583
2324.30625	0.95545
2322.24934	0.95573
2320.19243	0.95608
2318.13552	0.95605
2316.07861	0.95587
2314.02171	0.95557
2311.96480	0.95578
2309.90789	0.95646
2307.85098	0.95640
2305.79407	0.95577
2303.73717	0.95540
2301.68026	0.95522
2299.62335	0.95526
2297.56644	0.95564
2295.50953	0.95618
2293.45262	0.95663
2291.39572	0.95656
2289.33881	0.95605
2287.28190	0.95567
2285.22499	0.95571
2283.16808	0.95624
2281.11117	0.95730
2279.05427	0.95829
2276.99736	0.95863
2274.94045	0.95879
2272.88354	0.95883
2270.82663	0.95846
2268.76973	0.95855
2266.71282	0.95961
2264.65591	0.96032
2262.59900	0.95936
2260.54209	0.95778
2258.48518	0.95698
2256.42828	0.95672
2254.37137	0.95737
2252.31446	0.95844
2250.25755	0.95817
2248.20064	0.95745
2246.14374	0.95801
2244.08683	0.95921
2242.02992	0.95981
2239.97301	0.95967
2237.91610	0.95933
2235.85919	0.95953
2233.80229	0.95970
2231.74538	0.95954
2229.68847	0.95992
2227.63156	0.96003
2225.57465	0.96023
2223.51775	0.96155
2221.46084	0.96239
2219.40393	0.96212
2217.34702	0.96171
2215.29011	0.96094
2213.23320	0.95985
2211.17630	0.95965
2209.11939	0.96029
2207.06248	0.96000
2205.00557	0.95860
2202.94866	0.95843
2200.89176	0.96021
2198.83485	0.96253
2196.77794	0.96428
2194.72103	0.96465
2192.66412	0.96427
2190.60721	0.96459
2188.55031	0.96440
2186.49340	0.96252
2184.43649	0.96097
2182.37958	0.96128
2180.32267	0.96234
2178.26577	0.96255
2176.20886	0.96229
2174.15195	0.96302
2172.09504	0.96516
2170.03813	0.96683
2167.98122	0.96572
2165.92432	0.96396
2163.86741	0.96373
2161.81050	0.96385
2159.75359	0.96548
2157.69668	0.96839
2155.63978	0.96864
2153.58287	0.96712
2151.52596	0.96597
2149.46905	0.96488
2147.41214	0.96446
2145.35523	0.96360
2143.29833	0.96156
2141.24142	0.96090
2139.18451	0.96201
2137.12760	0.96334
2135.07069	0.96418
2133.01379	0.96450
2130.95688	0.96371
2128.89997	0.96161
2126.84306	0.96018
2124.78615	0.95972
2122.72924	0.95908
2120.67234	0.95897
2118.61543	0.95937
2116.55852	0.95930
2114.50161	0.95909
2112.44470	0.95918
2110.38780	0.95939
2108.33089	0.95972
2106.27398	0.95991
2104.21707	0.95938
2102.16016	0.95869
2100.10325	0.95933
2098.04635	0.96090
2095.98944	0.96109
2093.93253	0.96025
2091.87562	0.96047
2089.81871	0.96090
2087.76181	0.96039
2085.70490	0.95916
2083.64799	0.95799
2081.59108	0.95807
2079.53417	0.95908
2077.47726	0.95997
2075.42036	0.96022
2073.36345	0.96016
2071.30654	0.96023
2069.24963	0.95982
2067.19272	0.95956
2065.13582	0.96048
2063.07891	0.96199
2061.02200	0.96325
2058.96509	0.96321
2056.90818	0.96213
2054.85127	0.96159
2052.79437	0.96113
2050.73746	0.96004
2048.68055	0.95955
2046.62364	0.96098
2044.56673	0.96334
2042.50983	0.96460
2040.45292	0.96503
2038.39601	0.96445
2036.33910	0.96248
2034.28219	0.96172
2032.22528	0.96305
2030.16838	0.96411
2028.11147	0.96413
2026.05456	0.96395
2023.99765	0.96429
2021.94074	0.96521
2019.88384	0.96595
2017.82693	0.96757
2015.77002	0.96963
2013.71311	0.96832
2011.65620	0.96526
2009.59929	0.96495
2007.54239	0.96606
2005.48548	0.96495
2003.42857	0.96227
2001.37166	0.96156
1999.31475	0.96339
1997.25785	0.96476
1995.20094	0.96464
1993.14403	0.96403
1991.08712	0.96361
1989.03021	0.96322
1986.97330	0.96148
1984.91640	0.95960
1982.85949	0.96066
1980.80258	0.96343
1978.74567	0.96495
1976.68876	0.96578
1974.63186	0.96672
1972.57495	0.96636
1970.51804	0.96456
1968.46113	0.96284
1966.40422	0.96268
1964.34731	0.96377
1962.29041	0.96512
1960.23350	0.96593
1958.17659	0.96497
1956.11968	0.96365
1954.06277	0.96335
1952.00587	0.96299
1949.94896	0.96267
1947.89205	0.96296
1945.83514	0.96296
1943.77823	0.96222
1941.72132	0.96187
1939.66442	0.96302
1937.60751	0.96505
1935.55060	0.96615
1933.49369	0.96501
1931.43678	0.96259
1929.37988	0.96134
1927.32297	0.96176
1925.26606	0.96243
1923.20915	0.96344
1921.15224	0.96480
1919.09533	0.96481
1917.03843	0.96318
1914.98152	0.96210
1912.92461	0.96293
1910.86770	0.96377
1908.81079	0.96300
1906.75389	0.96245
1904.69698	0.96297
1902.64007	0.96356
1900.58316	0.96369
1898.52625	0.96307
1896.46934	0.96206
1894.41244	0.96127
1892.35553	0.96070
1890.29862	0.96061
1888.24171	0.96119
1886.18480	0.96162
1884.12790	0.96196
1882.07099	0.96257
1880.01408	0.96252
1877.95717	0.96174
1875.90026	0.96180
1873.84335	0.96294
1871.78645	0.96369
1869.72954	0.96325
1867.67263	0.96235
1865.61572	0.96214
1863.55881	0.96249
1861.50191	0.96282
1859.44500	0.96299
1857.38809	0.96325
1855.33118	0.96331
1853.27427	0.96263
1851.21736	0.96203
1849.16046	0.96218
1847.10355	0.96253
1845.04664	0.96248
1842.98973	0.96206
1840.93282	0.96190
1838.87592	0.96202
1836.81901	0.96199
1834.76210	0.96176
1832.70519	0.96155
1830.64828	0.96134
1828.59137	0.96119
1826.53447	0.96119
1824.47756	0.96153
1822.42065	0.96213
1820.36374	0.96256
1818.30683	0.96299
1816.24993	0.96329
1814.19302	0.96294
1812.13611	0.96200
1810.07920	0.96129
1808.02229	0.96116
1805.96538	0.96097
1803.90848	0.96070
1801.85157	0.96083
1799.79466	0.96138
1797.73775	0.96170
1795.68084	0.96142
1793.62394	0.96091
1791.56703	0.96038
1789.51012	0.96020
1787.45321	0.96068
1785.39630	0.96104
1783.33939	0.96082
1781.28249	0.96061
1779.22558	0.96074
1777.16867	0.96098
1775.11176	0.96091
1773.05485	0.96039
1770.99795	0.96009
1768.94104	0.96020
1766.88413	0.96029
1764.82722	0.96046
1762.77031	0.96043
1760.71340	0.96016
1758.65650	0.96023
1756.59959	0.96056
1754.54268	0.96107
1752.48577	0.96119
1750.42886	0.96037
1748.37196	0.95965
1746.31505	0.95986
1744.25814	0.96029
1742.20123	0.96053
1740.14432	0.96042
1738.08741	0.96033
1736.03051	0.96051
1733.97360	0.96018
1731.91669	0.95969
1729.85978	0.95993
1727.80287	0.96036
1725.74597	0.96063
1723.68906	0.96067
1721.63215	0.96054
1719.57524	0.95988
1717.51833	0.95863
1715.46142	0.95855
1713.40452	0.95948
1711.34761	0.96001
1709.29070	0.96017
1707.23379	0.96030
1705.17688	0.96048
1703.11998	0.96066
1701.06307	0.96058
1699.00616	0.96014
1696.94925	0.95987
1694.89234	0.95974
1692.83543	0.95971
1690.77853	0.95958
1688.72162	0.95930
1686.66471	0.95910
1684.60780	0.95878
1682.55089	0.95853
1680.49399	0.95835
1678.43708	0.95793
1676.38017	0.95731
1674.32326	0.95666
1672.26635	0.95605
1670.20944	0.95538
1668.15254	0.95532
1666.09563	0.95578
1664.03872	0.95588
1661.98181	0.95561
1659.92490	0.95519
1657.86800	0.95469
1655.81109	0.95417
1653.75418	0.95289
1651.69727	0.95155
1649.64036	0.95171
1647.58345	0.95191
1645.52655	0.95196
1643.46964	0.95216
1641.41273	0.95218
1639.35582	0.95207
1637.29891	0.95162
1635.24201	0.95119
1633.18510	0.95211
1631.12819	0.95319
1629.07128	0.95346
1627.01437	0.95325
1624.95746	0.95329
1622.90056	0.95369
1620.84365	0.95427
1618.78674	0.95452
1616.72983	0.95412
1614.67292	0.95422
1612.61602	0.95504
1610.55911	0.95566
1608.50220	0.95614
1606.44529	0.95669
1604.38838	0.95713
1602.33147	0.95745
1600.27457	0.95773
1598.21766	0.95798
1596.16075	0.95832
1594.10384	0.95864
1592.04693	0.95892
1589.99003	0.95925
1587.93312	0.95943
1585.87621	0.95957
1583.81930	0.95975
1581.76239	0.95982
1579.70548	0.95988
1577.64858	0.95992
1575.59167	0.95987
1573.53476	0.96006
1571.47785	0.96019
1569.42094	0.96005
1567.36404	0.96023
1565.30713	0.96074
1563.25022	0.96136
1561.19331	0.96166
1559.13640	0.96074
1557.07949	0.96006
1555.02259	0.96075
1552.96568	0.96157
1550.90877	0.96187
1548.85186	0.96173
1546.79495	0.96173
1544.73805	0.96160
1542.68114	0.96099
1540.62423	0.96046
1538.56732	0.96111
1536.51041	0.96194
1534.45350	0.96214
1532.39660	0.96234
1530.33969	0.96290
1528.28278	0.96312
1526.22587	0.96292
1524.16896	0.96268
1522.11206	0.96237
1520.05515	0.96208
1517.99824	0.96213
1515.94133	0.96258
1513.88442	0.96305
1511.82751	0.96304
1509.77061	0.96254
1507.71370	0.96195
1505.65679	0.96252
1503.59988	0.96347
1501.54297	0.96365
1499.48607	0.96316
1497.42916	0.96255
1495.37225	0.96249
1493.31534	0.96264
1491.25843	0.96205
1489.20152	0.96085
1487.14462	0.96023
1485.08771	0.95939
1483.03080	0.95771
1480.97389	0.95609
1478.91698	0.95509
1476.86008	0.95442
1474.80317	0.95368
1472.74626	0.95203
1470.68935	0.95008
1468.63244	0.94891
1466.57553	0.94748
1464.51863	0.94541
1462.46172	0.94379
1460.40481	0.94258
1458.34790	0.94051
1456.29099	0.93780
1454.23409	0.93682
1452.17718	0.93667
1450.12027	0.93613
1448.06336	0.93512
1446.00645	0.93430
1443.94954	0.93375
1441.89264	0.93297
1439.83573	0.93187
1437.77882	0.93005
1435.72191	0.92735
1433.66500	0.92540
1431.60810	0.92399
1429.55119	0.92271
1427.49428	0.92235
1425.43737	0.92282
1423.38046	0.92374
1421.32355	0.92519
1419.26665	0.92708
1417.20974	0.92926
1415.15283	0.93130
1413.09592	0.93296
1411.03901	0.93430
1408.98211	0.93533
1406.92520	0.93580
1404.86829	0.93585
1402.81138	0.93615
1400.75447	0.93666
1398.69756	0.93703
1396.64066	0.93720
1394.58375	0.93704
1392.52684	0.93697
1390.46993	0.93692
1388.41302	0.93595
1386.35612	0.93392
1384.29921	0.93163
1382.24230	0.92896
1380.18539	0.92576
1378.12848	0.92250
1376.07157	0.91903
1374.01467	0.91498
1371.95776	0.91171
1369.90085	0.91015
1367.84394	0.90984
1365.78703	0.90992
1363.73013	0.90944
1361.67322	0.90915
1359.61631	0.90994
1357.55940	0.91096
1355.50249	0.91200
1353.44558	0.91343
1351.38868	0.91487
1349.33177	0.91555
1347.27486	0.91503
1345.21795	0.91354
1343.16104	0.91142
1341.10414	0.90882
1339.04723	0.90621
1336.99032	0.90431
1334.93341	0.90330
1332.87650	0.90324
1330.81959	0.90418
1328.76269	0.90537
1326.70578	0.90560
1324.64887	0.90438
1322.59196	0.90183
1320.53505	0.89834
1318.47815	0.89467
1316.42124	0.89210
1314.36433	0.89136
1312.30742	0.89250
1310.25051	0.89532
1308.19360	0.89905
1306.13670	0.90288
1304.07979	0.90659
1302.02288	0.91026
1299.96597	0.91385
1297.90906	0.91699
1295.85216	0.91931
1293.79525	0.92085
1291.73834	0.92198
1289.68143	0.92286
1287.62452	0.92313
1285.56761	0.92273
1283.51071	0.92221
1281.45380	0.92210
1279.39689	0.92253
1277.33998	0.92316
1275.28307	0.92386
1273.22617	0.92460
1271.16926	0.92516
1269.11235	0.92554
1267.05544	0.92600
1264.99853	0.92677
1262.94162	0.92749
1260.88472	0.92777
1258.82781	0.92807
1256.77090	0.92858
1254.71399	0.92910
1252.65708	0.92942
1250.60018	0.92956
1248.54327	0.92968
1246.48636	0.92974
1244.42945	0.93000
1242.37254	0.93089
1240.31563	0.93184
1238.25873	0.93224
1236.20182	0.93264
1234.14491	0.93344
1232.08800	0.93464
1230.03109	0.93629
1227.97419	0.93823
1225.91728	0.94017
1223.86037	0.94204
1221.80346	0.94412
1219.74655	0.94605
1217.68964	0.94727
1215.63274	0.94787
1213.57583	0.94748
1211.51892	0.94552
1209.46201	0.94250
1207.40510	0.93928
1205.34820	0.93679
1203.29129	0.93541
1201.23438	0.93499
1199.17747	0.93571
1197.12056	0.93741
1195.06365	0.93965
1193.00675	0.94206
1190.94984	0.94408
1188.89293	0.94544
1186.83602	0.94598
1184.77911	0.94552
1182.72221	0.94420
1180.66530	0.94174
1178.60839	0.93771
1176.55148	0.93203
1174.49457	0.92429
1172.43766	0.91457
1170.38076	0.90369
1168.32385	0.89220
1166.26694	0.88110
1164.21003	0.87205
1162.15312	0.86626
1160.09622	0.86409
1158.03931	0.86530
1155.98240	0.86889
1153.92549	0.87358
1151.86858	0.87860
1149.81167	0.88351
1147.75477	0.88834
1145.69786	0.89344
1143.64095	0.89846
1141.58404	0.90232
1139.52713	0.90427
1137.47023	0.90408
1135.41332	0.90181
1133.35641	0.89799
1131.29950	0.89287
1129.24259	0.88656
1127.18568	0.87936
1125.12878	0.87153
1123.07187	0.86394
1121.01496	0.85687
1118.95805	0.84896
1116.90114	0.83953
1114.84424	0.82938
1112.78733	0.81988
1110.73042	0.81220
1108.67351	0.80718
1106.61660	0.80483
1104.55969	0.80419
1102.50279	0.80463
1100.44588	0.80653
1098.38897	0.80962
1096.33206	0.81297
1094.27515	0.81627
1092.21825	0.81918
1090.16134	0.82109
1088.10443	0.82194
1086.04752	0.82171
1083.99061	0.81989
1081.93370	0.81631
1079.87680	0.81134
1077.81989	0.80528
1075.76298	0.79842
1073.70607	0.79113
1071.64916	0.78358
1069.59226	0.77509
1067.53535	0.76481
1065.47844	0.75280
1063.42153	0.73934
1061.36462	0.72581
1059.30771	0.71450
1057.25081	0.70674
1055.19390	0.70248
1053.13699	0.70107
1051.08008	0.70227
1049.02317	0.70552
1046.96627	0.70936
1044.90936	0.71258
1042.85245	0.71394
1040.79554	0.71187
1038.73863	0.70597
1036.68172	0.69766
1034.62482	0.68936
1032.56791	0.68308
1030.51100	0.67962
1028.45409	0.67848
1026.39718	0.67874
1024.34028	0.67999
1022.28337	0.68165
1020.22646	0.68315
1018.16955	0.68456
1016.11264	0.68599
1014.05573	0.68786
1011.99883	0.69065
1009.94192	0.69357
1007.88501	0.69544
1005.82810	0.69619
1003.77119	0.69622
1001.71429	0.69615
999.65738	0.69673
997.60047	0.69797
995.54356	0.69959
993.48665	0.70118
991.42974	0.70240
989.37284	0.70324
987.31593	0.70351
985.25902	0.70375
983.20211	0.70557
981.14520	0.71011
979.08830	0.71747
977.03139	0.72689
974.97448	0.73692
972.91757	0.74615
970.86066	0.75402
968.80375	0.76086
966.74685	0.76718
964.68994	0.77328
962.63303	0.77917
960.57612	0.78489
958.51921	0.79084
956.46231	0.79702
954.40540	0.80297
952.34849	0.80876
950.29158	0.81447
948.23467	0.81984
946.17776	0.82469
944.12086	0.82908
942.06395	0.83308
940.00704	0.83657
937.95013	0.83941
935.89322	0.84210
933.83632	0.84516
931.77941	0.84835
929.72250	0.85141
927.66559	0.85423
925.60868	0.85661
923.55177	0.85882
921.49487	0.86102
919.43796	0.86280
917.38105	0.86395
915.32414	0.86468
913.26723	0.86511
911.21033	0.86523
909.15342	0.86474
907.09651	0.86353
905.03960	0.86173
902.98269	0.85964
900.92578	0.85787
898.86888	0.85671
896.81197	0.85607
894.75506	0.85630
892.69815	0.85777
890.64124	0.86004
888.58434	0.86236
886.52743	0.86479
884.47052	0.86781
882.41361	0.87110
880.35670	0.87402
878.29979	0.87666
876.24289	0.87923
874.18598	0.88142
872.12907	0.88308
870.07216	0.88459
868.01525	0.88627
865.95835	0.88822
863.90144	0.89039
861.84453	0.89215
859.78762	0.89326
857.73071	0.89452
855.67380	0.89617
853.61690	0.89768
851.55999	0.89871
849.50308	0.89939
847.44617	0.90008
845.38926	0.90080
843.33236	0.90150
841.27545	0.90232
839.21854	0.90324
837.16163	0.90419
835.10472	0.90481
833.04781	0.90519
830.99091	0.90593
828.93400	0.90643
826.87709	0.90635
824.82018	0.90638
822.76327	0.90649
820.70637	0.90603
818.64946	0.90491
816.59255	0.90391
814.53564	0.90339
812.47873	0.90333
810.42182	0.90401
808.36492	0.90496
806.30801	0.90585
804.25110	0.90662
802.19419	0.90696
800.13728	0.90719
798.08038	0.90717
796.02347	0.90688
793.96656	0.90689
791.90965	0.90699
789.85274	0.90690
787.79583	0.90673
785.73893	0.90649
783.68202	0.90626
781.62511	0.90646
779.56820	0.90691
777.51129	0.90689
775.45439	0.90653
773.39748	0.90639
771.34057	0.90620
769.28366	0.90580
767.22675	0.90544
765.16984	0.90502
763.11294	0.90447
761.05603	0.90337
758.99912	0.90195
756.94221	0.90124
754.88530	0.90094
752.82839	0.89999
750.77149	0.89890
748.71458	0.89835
746.65767	0.89772
744.60076	0.89673
742.54385	0.89575
740.48695	0.89463
738.43004	0.89303
736.37313	0.89132
734.31622	0.88971
732.25931	0.88807
730.20240	0.88646
728.14550	0.88471
726.08859	0.88228
724.03168	0.87946
721.97477	0.87664
719.91786	0.87365
717.86096	0.87036
715.80405	0.86686
713.74714	0.86409
711.69023	0.86234
709.63332	0.86075
707.57641	0.85921
705.51951	0.85747
703.46260	0.85531
701.40569	0.85406
699.34878	0.85374
697.29187	0.85316
695.23497	0.85281
693.17806	0.85307
691.12115	0.85322
689.06424	0.85276
687.00733	0.85155
684.95042	0.84998
682.89352	0.84833
680.83661	0.84530
678.77970	0.83976
676.72279	0.83275
674.66588	0.82606
672.60898	0.82063
670.55207	0.81627
668.49516	0.81060
666.43825	0.80522
664.38134	0.80391
662.32443	0.80384
660.26753	0.80434
658.21062	0.80632
656.15371	0.80905
654.09680	0.81200
652.03989	0.81476
649.98299	0.81657
647.92608	0.81743
645.86917	0.81752
643.81226	0.81619
641.75535	0.81347
639.69844	0.81129
637.64154	0.81005
635.58463	0.80793
633.52772	0.80483
631.47081	0.80184
629.41390	0.79902
627.35700	0.79666
625.30009	0.79453
623.24318	0.79105
621.18627	0.78601
619.12936	0.78098
617.07245	0.77698
615.01555	0.77469
612.95864	0.77404
610.90173	0.77365
608.84482	0.77299
606.78791	0.77255
604.73101	0.77164
602.67410	0.77002
600.61719	0.76893
598.56028	0.76857
596.50337	0.76779
594.44646	0.76635
592.38956	0.76513
590.33265	0.76445
588.27574	0.76455
586.21883	0.76550
584.16192	0.76644
582.10502	0.76584
580.04811	0.76362
577.99120	0.76248
575.93429	0.76328
573.87738	0.76365
571.82047	0.76279
569.76357	0.76051
567.70666	0.75598
565.64975	0.75097
563.59284	0.74654
561.53593	0.74051
559.47903	0.73410
557.42212	0.73103
555.36521	0.73129
553.30830	0.73356
551.25139	0.73693
549.19448	0.74009
547.13758	0.74362
545.08067	0.74711
543.02376	0.74909
540.96685	0.75003
538.90994	0.75077
536.85304	0.75265
534.79613	0.75487
532.73922	0.75494
530.68231	0.75352
528.62540	0.75209
526.56849	0.75082
524.51159	0.75031
522.45468	0.75034
520.39777	0.75025
518.34086	0.74997
516.28395	0.75014
514.22705	0.75116
512.17014	0.75254
510.11323	0.75479
508.05632	0.75735
505.99941	0.75818
503.94250	0.75702
501.88560	0.75619
499.82869	0.75761
497.77178	0.75927
495.71487	0.75934
493.65796	0.75912
491.60106	0.76000
489.54415	0.76122
487.48724	0.76239
485.43033	0.76373
483.37342	0.76515
481.31651	0.76732
479.25961	0.77090
477.20270	0.77503
475.14579	0.77758
473.08888	0.77951
471.03197	0.78160
468.97507	0.78199
466.91816	0.78274
464.86125	0.78252
462.80434	0.77882
460.74743	0.77710
458.69052	0.77887
456.63362	0.77931
454.57671	0.77942
452.51980	0.78046
450.46289	0.77981
448.40598	0.77677
446.34908	0.77268
444.29217	0.76936
442.23526	0.76822
440.17835	0.76930
438.12144	0.77051
436.06453	0.76802
434.00763	0.76293
431.95072	0.76216
429.89381	0.76784
427.83690	0.77440
425.77999	0.77643
423.72309	0.77691
421.66618	0.78094
419.60927	0.78536
417.55236	0.78498
415.49545	0.78605
413.43854	0.78999
411.38164	0.79151
409.32473	0.79127
407.26782	0.79131
405.21091	0.79093
403.15400	0.79137
401.09710	0.78992
399.04019	0.78699
