3996.57260	0.98737
3994.51569	0.98827
3992.45878	0.98839
3990.40188	0.98790
3988.34497	0.98787
3986.28806	0.98856
3984.23115	0.98895
3982.17424	0.98866
3980.11733	0.98800
3978.06043	0.98741
3976.00352	0.98714
3973.94661	0.98720
3971.88970	0.98772
3969.83279	0.98820
3967.77589	0.98826
3965.71898	0.98814
3963.66207	0.98839
3961.60516	0.98917
3959.54825	0.98938
3957.49134	0.98886
3955.43444	0.98898
3953.37753	0.98942
3951.32062	0.98904
3949.26371	0.98885
3947.20680	0.98923
3945.14990	0.98906
3943.09299	0.98875
3941.03608	0.98871
3938.97917	0.98835
3936.92226	0.98768
3934.86535	0.98713
3932.80845	0.98728
3930.75154	0.98821
3928.69463	0.98872
3926.63772	0.98844
3924.58081	0.98795
3922.52391	0.98787
3920.46700	0.98825
3918.41009	0.98828
3916.35318	0.98799
3914.29627	0.98788
3912.23936	0.98787
3910.18246	0.98820
3908.12555	0.98860
3906.06864	0.98865
3904.01173	0.98843
3901.95482	0.98796
3899.89792	0.98768
3897.84101	0.98791
3895.78410	0.98829
3893.72719	0.98858
3891.67028	0.98860
3889.61337	0.98870
3887.55647	0.98899
3885.49956	0.98849
3883.44265	0.98764
3881.38574	0.98765
3879.32883	0.98815
3877.27193	0.98851
3875.21502	0.98884
3873.15811	0.98909
3871.10120	0.98872
3869.04429	0.98811
3866.98738	0.98751
3864.93048	0.98692
3862.87357	0.98778
3860.81666	0.98955
3858.75975	0.99003
3856.70284	0.98898
3854.64594	0.98735
3852.58903	0.98717
3850.53212	0.98845
3848.47521	0.98890
3846.41830	0.98858
3844.36139	0.98832
3842.30449	0.98842
3840.24758	0.98883
3838.19067	0.98869
3836.13376	0.98759
3834.07685	0.98723
3832.01995	0.98753
3829.96304	0.98776
3827.90613	0.98813
3825.84922	0.98836
3823.79231	0.98846
3821.73540	0.98884
3819.67850	0.98875
3817.62159	0.98822
3815.56468	0.98805
3813.50777	0.98783
3811.45086	0.98746
3809.39396	0.98706
3807.33705	0.98680
3805.28014	0.98746
3803.22323	0.98831
3801.16632	0.98849
3799.10941	0.98824
3797.05251	0.98774
3794.99560	0.98751
3792.93869	0.98798
3790.88178	0.98883
3788.82487	0.98909
3786.76796	0.98855
3784.71106	0.98834
3782.65415	0.98849
3780.59724	0.98830
3778.54033	0.98813
3776.48342	0.98854
3774.42652	0.98900
3772.36961	0.98907
3770.31270	0.98946
3768.25579	0.99011
3766.19888	0.99023
3764.14197	0.98946
3762.08507	0.98827
3760.02816	0.98807
3757.97125	0.98853
3755.91434	0.98849
3753.85743	0.98879
3751.80053	0.98938
3749.74362	0.98908
3747.68671	0.98870
3745.62980	0.98861
3743.57289	0.98850
3741.51598	0.98835
3739.45908	0.98794
3737.40217	0.98799
3735.34526	0.98915
3733.28835	0.98986
3731.23144	0.98952
3729.17454	0.98929
3727.11763	0.98955
3725.06072	0.98992
3723.00381	0.98977
3720.94690	0.98941
3718.88999	0.98920
3716.83309	0.98868
3714.77618	0.98791
3712.71927	0.98747
3710.66236	0.98759
3708.60545	0.98773
3706.54855	0.98792
3704.49164	0.98845
3702.43473	0.98911
3700.37782	0.98920
3698.32091	0.98887
3696.26400	0.98850
3694.20710	0.98792
3692.15019	0.98787
3690.09328	0.98855
3688.03637	0.98911
3685.97946	0.98950
3683.92256	0.98950
3681.86565	0.98885
3679.80874	0.98814
3677.75183	0.98793
3675.69492	0.98831
3673.63801	0.98882
3671.58111	0.98871
3669.52420	0.98790
3667.46729	0.98727
3665.41038	0.98710
3663.35347	0.98687
3661.29657	0.98668
3659.23966	0.98652
3657.18275	0.98651
3655.12584	0.98729
3653.06893	0.98796
3651.01202	0.98780
3648.95512	0.98737
3646.89821	0.98735
3644.84130	0.98742
3642.78439	0.98699
3640.72748	0.98630
3638.67058	0.98581
3636.61367	0.98551
3634.55676	0.98519
3632.49985	0.98515
3630.44294	0.98587
3628.38603	0.98635
3626.32913	0.98574
3624.27222	0.98532
3622.21531	0.98563
3620.15840	0.98638
3618.10149	0.98694
3616.04459	0.98692
3613.98768	0.98664
3611.93077	0.98672
3609.87386	0.98729
3607.81695	0.98763
3605.76004	0.98704
3603.70314	0.98636
3601.64623	0.98634
3599.58932	0.98679
3597.53241	0.98736
3595.47550	0.98751
3593.41860	0.98691
3591.36169	0.98645
3589.30478	0.98683
3587.24787	0.98742
3585.19096	0.98737
3583.13405	0.98665
3581.07715	0.98568
3579.02024	0.98523
3576.96333	0.98535
3574.90642	0.98525
3572.84951	0.98513
3570.79261	0.98559
3568.73570	0.98614
3566.67879	0.98588
3564.62188	0.98527
3562.56497	0.98518
3560.50806	0.98519
3558.45116	0.98509
3556.39425	0.98509
3554.33734	0.98515
3552.28043	0.98507
3550.22352	0.98492
3548.16662	0.98508
3546.10971	0.98493
3544.05280	0.98445
3541.99589	0.98453
3539.93898	0.98469
3537.88207	0.98457
3535.82517	0.98453
3533.76826	0.98425
3531.71135	0.98356
3529.65444	0.98290
3527.59753	0.98264
3525.54063	0.98313
3523.48372	0.98414
3521.42681	0.98455
3519.36990	0.98399
3517.31299	0.98325
3515.25608	0.98304
3513.19918	0.98344
3511.14227	0.98404
3509.08536	0.98404
3507.02845	0.98372
3504.97154	0.98386
3502.91464	0.98404
3500.85773	0.98384
3498.80082	0.98374
3496.74391	0.98353
3494.68700	0.98282
3492.63009	0.98250
3490.57319	0.98304
3488.51628	0.98348
3486.45937	0.98331
3484.40246	0.98309
3482.34555	0.98312
3480.28865	0.98307
3478.23174	0.98294
3476.17483	0.98309
3474.11792	0.98344
3472.06101	0.98372
3470.00410	0.98383
3467.94720	0.98391
3465.89029	0.98385
3463.83338	0.98366
3461.77647	0.98376
3459.71956	0.98396
3457.66266	0.98386
3455.60575	0.98403
3453.54884	0.98462
3451.49193	0.98461
3449.43502	0.98403
3447.37811	0.98386
3445.32121	0.98409
3443.26430	0.98414
3441.20739	0.98427
3439.15048	0.98479
3437.09357	0.98530
3435.03667	0.98524
3432.97976	0.98492
3430.92285	0.98495
3428.86594	0.98546
3426.80903	0.98616
3424.75212	0.98685
3422.69522	0.98723
3420.63831	0.98669
3418.58140	0.98583
3416.52449	0.98555
3414.46758	0.98550
3412.41068	0.98556
3410.35377	0.98569
3408.29686	0.98546
3406.23995	0.98499
3404.18304	0.98506
3402.12613	0.98556
3400.06923	0.98560
3398.01232	0.98558
3395.95541	0.98612
3393.89850	0.98668
3391.84159	0.98697
3389.78469	0.98743
3387.72778	0.98789
3385.67087	0.98770
3383.61396	0.98689
3381.55705	0.98621
3379.50014	0.98579
3377.44324	0.98557
3375.38633	0.98573
3373.32942	0.98605
3371.27251	0.98611
3369.21560	0.98589
3367.15870	0.98570
3365.10179	0.98579
3363.04488	0.98624
3360.98797	0.98663
3358.93106	0.98665
3356.87415	0.98656
3354.81725	0.98652
3352.76034	0.98684
3350.70343	0.98747
3348.64652	0.98761
3346.58961	0.98719
3344.53271	0.98669
3342.47580	0.98649
3340.41889	0.98689
3338.36198	0.98728
3336.30507	0.98710
3334.24816	0.98686
3332.19126	0.98654
3330.13435	0.98620
3328.07744	0.98650
3326.02053	0.98696
3323.96362	0.98700
3321.90672	0.98706
3319.84981	0.98726
3317.79290	0.98728
3315.73599	0.98702
3313.67908	0.98712
3311.62217	0.98764
3309.56527	0.98751
3307.50836	0.98675
3305.45145	0.98645
3303.39454	0.98649
3301.33763	0.98631
3299.28073	0.98613
3297.22382	0.98628
3295.16691	0.98680
3293.11000	0.98714
3291.05309	0.98712
3288.99618	0.98726
3286.93928	0.98760
3284.88237	0.98757
3282.82546	0.98692
3280.76855	0.98651
3278.71164	0.98684
3276.65474	0.98703
3274.59783	0.98697
3272.54092	0.98747
3270.48401	0.98814
3268.42710	0.98803
3266.37019	0.98767
3264.31329	0.98787
3262.25638	0.98814
3260.19947	0.98815
3258.14256	0.98809
3256.08565	0.98775
3254.02875	0.98753
3251.97184	0.98769
3249.91493	0.98786
3247.85802	0.98782
3245.80111	0.98742
3243.74420	0.98733
3241.68730	0.98784
3239.63039	0.98812
3237.57348	0.98827
3235.51657	0.98828
3233.45966	0.98785
3231.40276	0.98753
3229.34585	0.98727
3227.28894	0.98731
3225.23203	0.98790
3223.17512	0.98823
3221.11821	0.98807
3219.06131	0.98768
3217.00440	0.98729
3214.94749	0.98754
3212.89058	0.98810
3210.83367	0.98802
3208.77677	0.98778
3206.71986	0.98807
3204.66295	0.98826
3202.60604	0.98821
3200.54913	0.98828
3198.49222	0.98823
3196.43532	0.98808
3194.37841	0.98822
3192.32150	0.98859
3190.26459	0.98869
3188.20768	0.98842
3186.15078	0.98830
3184.09387	0.98835
3182.03696	0.98793
3179.98005	0.98746
3177.92314	0.98776
3175.86623	0.98828
3173.80933	0.98832
3171.75242	0.98823
3169.69551	0.98824
3167.63860	0.98813
3165.58169	0.98819
3163.52479	0.98851
3161.46788	0.98854
3159.41097	0.98853
3157.35406	0.98862
3155.29715	0.98868
3153.24024	0.98846
3151.18334	0.98774
3149.12643	0.98730
3147.06952	0.98760
3145.01261	0.98782
3142.95570	0.98775
3140.89880	0.98776
3138.84189	0.98771
3136.78498	0.98751
3134.72807	0.98733
3132.67116	0.98743
3130.61425	0.98774
3128.55735	0.98774
3126.50044	0.98758
3124.44353	0.98763
3122.38662	0.98787
3120.32971	0.98808
3118.27281	0.98796
3116.21590	0.98784
3114.15899	0.98794
3112.10208	0.98771
3110.04517	0.98766
3107.98826	0.98821
3105.93136	0.98842
3103.87445	0.98824
3101.81754	0.98798
3099.76063	0.98751
3097.70372	0.98722
3095.64682	0.98736
3093.58991	0.98786
3091.53300	0.98817
3089.47609	0.98789
3087.41918	0.98743
3085.36227	0.98707
3083.30537	0.98718
3081.24846	0.98796
3079.19155	0.98819
3077.13464	0.98754
3075.07773	0.98726
3073.02083	0.98750
3070.96392	0.98750
3068.90701	0.98733
3066.85010	0.98761
3064.79319	0.98823
3062.73628	0.98835
3060.67938	0.98768
3058.62247	0.98672
3056.56556	0.98615
3054.50865	0.98652
3052.45174	0.98720
3050.39484	0.98728
3048.33793	0.98725
3046.28102	0.98736
3044.22411	0.98720
3042.16720	0.98707
3040.11029	0.98679
3038.05339	0.98630
3035.99648	0.98630
3033.93957	0.98649
3031.88266	0.98632
3029.82575	0.98605
3027.76885	0.98588
3025.71194	0.98547
3023.65503	0.98485
3021.59812	0.98471
3019.54121	0.98509
3017.48430	0.98540
3015.42740	0.98567
3013.37049	0.98596
3011.31358	0.98595
3009.25667	0.98564
3007.19976	0.98527
3005.14286	0.98504
3003.08595	0.98490
3001.02904	0.98495
2998.97213	0.98520
2996.91522	0.98510
2994.85831	0.98468
2992.80141	0.98453
2990.74450	0.98451
2988.68759	0.98425
2986.63068	0.98374
2984.57377	0.98343
2982.51687	0.98376
2980.45996	0.98400
2978.40305	0.98369
2976.34614	0.98363
2974.28923	0.98374
2972.23232	0.98288
2970.17542	0.98178
2968.11851	0.98149
2966.06160	0.98111
2964.00469	0.98022
2961.94778	0.97952
2959.89088	0.97937
2957.83397	0.97963
2955.77706	0.97980
2953.72015	0.97978
2951.66324	0.97993
2949.60633	0.98003
2947.54943	0.97981
2945.49252	0.97947
2943.43561	0.97923
2941.37870	0.97943
2939.32179	0.98005
2937.26489	0.98049
2935.20798	0.98050
2933.15107	0.98062
2931.09416	0.98122
2929.03725	0.98190
2926.98034	0.98252
2924.92344	0.98289
2922.86653	0.98270
2920.80962	0.98245
2918.75271	0.98226
2916.69580	0.98191
2914.63890	0.98193
2912.58199	0.98258
2910.52508	0.98308
2908.46817	0.98293
2906.41126	0.98267
2904.35435	0.98262
2902.29745	0.98243
2900.24054	0.98217
2898.18363	0.98212
2896.12672	0.98202
2894.06981	0.98182
2892.01291	0.98205
2889.95600	0.98252
2887.89909	0.98292
2885.84218	0.98333
2883.78527	0.98340
2881.72836	0.98330
2879.67146	0.98339
2877.61455	0.98332
2875.55764	0.98324
2873.50073	0.98327
2871.44382	0.98289
2869.38692	0.98231
2867.33001	0.98239
2865.27310	0.98333
2863.21619	0.98427
2861.15928	0.98460
2859.10237	0.98477
2857.04547	0.98507
2854.98856	0.98551
2852.93165	0.98581
2850.87474	0.98576
2848.81783	0.98563
2846.76093	0.98548
2844.70402	0.98556
2842.64711	0.98583
2840.59020	0.98576
2838.53329	0.98543
2836.47638	0.98551
2834.41948	0.98611
2832.36257	0.98661
2830.30566	0.98691
2828.24875	0.98732
2826.19184	0.98742
2824.13494	0.98702
2822.07803	0.98678
2820.02112	0.98688
2817.96421	0.98685
2815.90730	0.98661
2813.85039	0.98646
2811.79349	0.98653
2809.73658	0.98672
2807.67967	0.98682
2805.62276	0.98690
2803.56585	0.98725
2801.50895	0.98766
2799.45204	0.98772
2797.39513	0.98743
2795.33822	0.98711
2793.28131	0.98689
2791.22440	0.98678
2789.16750	0.98702
2787.11059	0.98741
2785.05368	0.98738
2782.99677	0.98711
2780.93986	0.98723
2778.88296	0.98768
2776.82605	0.98779
2774.76914	0.98744
2772.71223	0.98715
2770.65532	0.98716
2768.59841	0.98722
2766.54151	0.98711
2764.48460	0.98698
2762.42769	0.98720
2760.37078	0.98789
2758.31387	0.98866
2756.25697	0.98889
2754.20006	0.98853
2752.14315	0.98813
2750.08624	0.98792
2748.02933	0.98776
2745.97242	0.98763
2743.91552	0.98761
2741.85861	0.98778
2739.80170	0.98781
2737.74479	0.98755
2735.68788	0.98747
2733.63098	0.98762
2731.57407	0.98767
2729.51716	0.98759
2727.46025	0.98769
2725.40334	0.98790
2723.34643	0.98783
2721.28953	0.98777
2719.23262	0.98788
2717.17571	0.98780
2715.11880	0.98750
2713.06189	0.98733
2711.00499	0.98762
2708.94808	0.98802
2706.89117	0.98810
2704.83426	0.98819
2702.77735	0.98828
2700.72044	0.98799
2698.66354	0.98753
2696.60663	0.98742
2694.54972	0.98776
2692.49281	0.98830
2690.43590	0.98870
2688.37900	0.98860
2686.32209	0.98832
2684.26518	0.98839
2682.20827	0.98844
2680.15136	0.98816
2678.09445	0.98785
2676.03755	0.98775
2673.98064	0.98781
2671.92373	0.98779
2669.86682	0.98762
2667.80991	0.98748
2665.75301	0.98748
2663.69610	0.98747
2661.63919	0.98746
2659.58228	0.98759
2657.52537	0.98792
2655.46846	0.98830
2653.41156	0.98828
2651.35465	0.98775
2649.29774	0.98730
2647.24083	0.98743
2645.18392	0.98783
2643.12702	0.98772
2641.07011	0.98707
2639.01320	0.98667
2636.95629	0.98692
2634.89938	0.98745
2632.84247	0.98783
2630.78557	0.98790
2628.72866	0.98761
2626.67175	0.98756
2624.61484	0.98819
2622.55793	0.98866
2620.50103	0.98852
2618.44412	0.98827
2616.38721	0.98814
2614.33030	0.98805
2612.27339	0.98826
2610.21648	0.98848
2608.15958	0.98819
2606.10267	0.98803
2604.04576	0.98856
2601.98885	0.98898
2599.93194	0.98892
2597.87504	0.98892
2595.81813	0.98904
2593.76122	0.98908
2591.70431	0.98882
2589.64740	0.98830
2587.59049	0.98783
2585.53359	0.98762
2583.47668	0.98751
2581.41977	0.98756
2579.36286	0.98797
2577.30595	0.98830
2575.24905	0.98825
2573.19214	0.98833
2571.13523	0.98886
2569.07832	0.98917
2567.02141	0.98904
2564.96450	0.98878
2562.90760	0.98844
2560.85069	0.98827
2558.79378	0.98832
2556.73687	0.98870
2554.67996	0.98936
2552.62306	0.98958
2550.56615	0.98927
2548.50924	0.98893
2546.45233	0.98884
2544.39542	0.98922
2542.33851	0.98971
2540.28161	0.98946
2538.22470	0.98888
2536.16779	0.98879
2534.11088	0.98869
2532.05397	0.98842
2529.99707	0.98865
2527.94016	0.98898
2525.88325	0.98860
2523.82634	0.98799
2521.76943	0.98794
2519.71252	0.98839
2517.65562	0.98901
2515.59871	0.98947
2513.54180	0.98951
2511.48489	0.98932
2509.42798	0.98912
2507.37108	0.98910
2505.31417	0.98911
2503.25726	0.98908
2501.20035	0.98925
2499.14344	0.98931
2497.08653	0.98906
2495.02963	0.98890
2492.97272	0.98885
2490.91581	0.98884
2488.85890	0.98913
2486.80199	0.98954
2484.74509	0.98953
2482.68818	0.98913
2480.63127	0.98872
2478.57436	0.98836
2476.51745	0.98819
2474.46054	0.98864
2472.40364	0.98948
2470.34673	0.98984
2468.28982	0.98980
2466.23291	0.98987
2464.17600	0.98992
2462.11910	0.98998
2460.06219	0.98996
2458.00528	0.98937
2455.94837	0.98888
2453.89146	0.98923
2451.83455	0.98971
2449.77765	0.98971
2447.72074	0.98942
2445.66383	0.98930
2443.60692	0.98937
2441.55001	0.98913
2439.49311	0.98872
2437.43620	0.98873
2435.37929	0.98895
2433.32238	0.98912
2431.26547	0.98945
2429.20856	0.98988
2427.15166	0.99022
2425.09475	0.99028
2423.03784	0.99026
2420.98093	0.99046
2418.92402	0.99035
2416.86712	0.98957
2414.81021	0.98879
2412.75330	0.98857
2410.69639	0.98860
2408.63948	0.98872
2406.58257	0.98911
2404.52567	0.98964
2402.46876	0.98996
2400.41185	0.98977
2398.35494	0.98943
2396.29803	0.98934
2394.24113	0.98934
2392.18422	0.98942
2390.12731	0.98949
2388.07040	0.98948
2386.01349	0.98945
2383.95658	0.98965
2381.89968	0.99042
2379.84277	0.99106
2377.78586	0.99073
2375.72895	0.98985
2373.67204	0.98933
2371.61514	0.98958
2369.55823	0.99035
2367.50132	0.99061
2365.44441	0.99046
2363.38750	0.99019
2361.33059	0.98931
2359.27369	0.98855
2357.21678	0.98784
2355.15987	0.98770
2353.10296	0.98847
2351.04605	0.98902
2348.98915	0.98914
2346.93224	0.98886
2344.87533	0.98866
2342.81842	0.98909
2340.76151	0.98934
2338.70460	0.98917
2336.64770	0.98873
2334.59079	0.98850
2332.53388	0.98901
2330.47697	0.98909
2328.42006	0.98862
2326.36316	0.98878
2324.30625	0.98911
2322.24934	0.98896
2320.19243	0.98885
2318.13552	0.98904
2316.07861	0.98916
2314.02171	0.98901
2311.96480	0.98877
2309.90789	0.98886
2307.85098	0.98923
2305.79407	0.98942
2303.73717	0.98937
2301.68026	0.98948
2299.62335	0.98979
2297.56644	0.99003
2295.50953	0.99038
2293.45262	0.99048
2291.39572	0.98960
2289.33881	0.98849
2287.28190	0.98828
2285.22499	0.98865
2283.16808	0.98918
2281.11117	0.98984
2279.05427	0.99001
2276.99736	0.98931
2274.94045	0.98852
2272.88354	0.98833
2270.82663	0.98874
2268.76973	0.98946
2266.71282	0.98986
2264.65591	0.98990
2262.59900	0.98991
2260.54209	0.99005
2258.48518	0.98999
2256.42828	0.98934
2254.37137	0.98892
2252.31446	0.98916
2250.25755	0.98907
2248.20064	0.98889
2246.14374	0.98971
2244.08683	0.99050
2242.02992	0.98968
2239.97301	0.98888
2237.91610	0.99015
2235.85919	0.99121
2233.80229	0.99006
2231.74538	0.98895
2229.68847	0.98941
2227.63156	0.99057
2225.57465	0.99138
2223.51775	0.99113
2221.46084	0.99010
2219.40393	0.98929
2217.34702	0.98976
2215.29011	0.99080
2213.23320	0.99061
2211.17630	0.99047
2209.11939	0.99158
2207.06248	0.99134
2205.00557	0.98911
2202.94866	0.98764
2200.89176	0.98791
2198.83485	0.98870
2196.77794	0.98898
2194.72103	0.98909
2192.66412	0.99030
2190.60721	0.99231
2188.55031	0.99255
2186.49340	0.99089
2184.43649	0.99056
2182.37958	0.99155
2180.32267	0.99214
2178.26577	0.99193
2176.20886	0.98981
2174.15195	0.98750
2172.09504	0.98753
2170.03813	0.98887
2167.98122	0.98997
2165.92432	0.99044
2163.86741	0.99046
2161.81050	0.99103
2159.75359	0.99244
2157.69668	0.99344
2155.63978	0.99291
2153.58287	0.99084
2151.52596	0.98954
2149.46905	0.98980
2147.41214	0.99044
2145.35523	0.99131
2143.29833	0.99189
2141.24142	0.99119
2139.18451	0.98922
2137.12760	0.98812
2135.07069	0.98969
2133.01379	0.99188
2130.95688	0.99176
2128.89997	0.98998
2126.84306	0.98863
2124.78615	0.98863
2122.72924	0.98947
2120.67234	0.98987
2118.61543	0.98960
2116.55852	0.98896
2114.50161	0.98806
2112.44470	0.98794
2110.38780	0.98862
2108.33089	0.98856
2106.27398	0.98785
2104.21707	0.98784
2102.16016	0.98879
2100.10325	0.98997
2098.04635	0.99065
2095.98944	0.99056
2093.93253	0.98991
2091.87562	0.98931
2089.81871	0.98943
2087.76181	0.98991
2085.70490	0.99017
2083.64799	0.98992
2081.59108	0.98931
2079.53417	0.98942
2077.47726	0.99024
2075.42036	0.99051
2073.36345	0.99050
2071.30654	0.99135
2069.24963	0.99227
2067.19272	0.99155
2065.13582	0.99032
2063.07891	0.99045
2061.02200	0.99111
2058.96509	0.99132
2056.90818	0.99133
2054.85127	0.99140
2052.79437	0.99151
2050.73746	0.99139
2048.68055	0.99112
2046.62364	0.99077
2044.56673	0.99092
2042.50983	0.99250
2040.45292	0.99377
2038.39601	0.99291
2036.33910	0.99077
2034.28219	0.98919
2032.22528	0.98941
2030.16838	0.99028
2028.11147	0.99007
2026.05456	0.98907
2023.99765	0.98932
2021.94074	0.99171
2019.88384	0.99409
2017.82693	0.99508
2015.77002	0.99559
2013.71311	0.99587
2011.65620	0.99434
2009.59929	0.99092
2007.54239	0.98919
2005.48548	0.99085
2003.42857	0.99304
2001.37166	0.99367
1999.31475	0.99282
1997.25785	0.99171
1995.20094	0.99161
1993.14403	0.99172
1991.08712	0.99149
1989.03021	0.99170
1986.97330	0.99219
1984.91640	0.99232
1982.85949	0.99204
1980.80258	0.99144
1978.74567	0.99039
1976.68876	0.98957
1974.63186	0.99033
1972.57495	0.99163
1970.51804	0.99199
1968.46113	0.99170
1966.40422	0.99109
1964.34731	0.99046
1962.29041	0.99005
1960.23350	0.99039
1958.17659	0.99109
1956.11968	0.99178
1954.06277	0.99278
1952.00587	0.99345
1949.94896	0.99292
1947.89205	0.99090
1945.83514	0.98934
1943.77823	0.99000
1941.72132	0.99054
1939.66442	0.99019
1937.60751	0.99048
1935.55060	0.99072
1933.49369	0.99077
1931.43678	0.99081
1929.37988	0.99030
1927.32297	0.98997
1925.26606	0.99056
1923.20915	0.99121
1921.15224	0.99130
1919.09533	0.99158
1917.03843	0.99219
1914.98152	0.99254
1912.92461	0.99219
1910.86770	0.99152
1908.81079	0.99107
1906.75389	0.99071
1904.69698	0.99062
1902.64007	0.99105
1900.58316	0.99146
1898.52625	0.99115
1896.46934	0.99039
1894.41244	0.99044
1892.35553	0.99140
1890.29862	0.99204
1888.24171	0.99222
1886.18480	0.99181
1884.12790	0.99119
1882.07099	0.99142
1880.01408	0.99197
1877.95717	0.99189
1875.90026	0.99166
1873.84335	0.99177
1871.78645	0.99159
1869.72954	0.99098
1867.67263	0.99070
1865.61572	0.99087
1863.55881	0.99108
1861.50191	0.99110
1859.44500	0.99087
1857.38809	0.99092
1855.33118	0.99106
1853.27427	0.99080
1851.21736	0.99046
1849.16046	0.99030
1847.10355	0.99011
1845.04664	0.99003
1842.98973	0.99035
1840.93282	0.99074
1838.87592	0.99112
1836.81901	0.99115
1834.76210	0.99061
1832.70519	0.99011
1830.64828	0.99021
1828.59137	0.99049
1826.53447	0.99041
1824.47756	0.99001
1822.42065	0.98972
1820.36374	0.98960
1818.30683	0.98934
1816.24993	0.98916
1814.19302	0.98893
1812.13611	0.98860
1810.07920	0.98819
1808.02229	0.98764
1805.96538	0.98713
1803.90848	0.98673
1801.85157	0.98615
1799.79466	0.98569
1797.73775	0.98549
1795.68084	0.98494
1793.62394	0.98375
1791.56703	0.98224
1789.51012	0.98112
1787.45321	0.97992
1785.39630	0.97822
1783.33939	0.97596
1781.28249	0.97311
1779.22558	0.96941
1777.16867	0.96528
1775.11176	0.96060
1773.05485	0.95321
1770.99795	0.94215
1768.94104	0.92943
1766.88413	0.91444
1764.82722	0.89796
1762.77031	0.87907
1760.71340	0.85764
1758.65650	0.83921
1756.59959	0.82359
1754.54268	0.81169
1752.48577	0.80349
1750.42886	0.79589
1748.37196	0.78888
1746.31505	0.78351
1744.25814	0.77975
1742.20123	0.77798
1740.14432	0.77841
1738.08741	0.78168
1736.03051	0.78859
1733.97360	0.80089
1731.91669	0.81608
1729.85978	0.83147
1727.80287	0.84836
1725.74597	0.86521
1723.68906	0.88149
1721.63215	0.89543
1719.57524	0.90678
1717.51833	0.91822
1715.46142	0.92891
1713.40452	0.93657
1711.34761	0.94250
1709.29070	0.94737
1707.23379	0.95133
1705.17688	0.95460
1703.11998	0.95733
1701.06307	0.95995
1699.00616	0.96234
1696.94925	0.96437
1694.89234	0.96665
1692.83543	0.96848
1690.77853	0.96970
1688.72162	0.97089
1686.66471	0.97199
1684.60780	0.97292
1682.55089	0.97388
1680.49399	0.97503
1678.43708	0.97588
1676.38017	0.97631
1674.32326	0.97668
1672.26635	0.97706
1670.20944	0.97746
1668.15254	0.97772
1666.09563	0.97765
1664.03872	0.97774
1661.98181	0.97814
1659.92490	0.97815
1657.86800	0.97784
1655.81109	0.97799
1653.75418	0.97847
1651.69727	0.97797
1649.64036	0.97769
1647.58345	0.97798
1645.52655	0.97794
1643.46964	0.97783
1641.41273	0.97793
1639.35582	0.97791
1637.29891	0.97766
1635.24201	0.97769
1633.18510	0.97819
1631.12819	0.97869
1629.07128	0.97898
1627.01437	0.97907
1624.95746	0.97946
1622.90056	0.98037
1620.84365	0.98111
1618.78674	0.98132
1616.72983	0.98135
1614.67292	0.98149
1612.61602	0.98184
1610.55911	0.98226
1608.50220	0.98266
1606.44529	0.98310
1604.38838	0.98353
1602.33147	0.98368
1600.27457	0.98379
1598.21766	0.98406
1596.16075	0.98410
1594.10384	0.98412
1592.04693	0.98444
1589.99003	0.98474
1587.93312	0.98492
1585.87621	0.98518
1583.81930	0.98543
1581.76239	0.98556
1579.70548	0.98569
1577.64858	0.98587
1575.59167	0.98588
1573.53476	0.98571
1571.47785	0.98552
1569.42094	0.98528
1567.36404	0.98505
1565.30713	0.98507
1563.25022	0.98549
1561.19331	0.98592
1559.13640	0.98578
1557.07949	0.98542
1555.02259	0.98535
1552.96568	0.98537
1550.90877	0.98541
1548.85186	0.98551
1546.79495	0.98579
1544.73805	0.98604
1542.68114	0.98600
1540.62423	0.98578
1538.56732	0.98570
1536.51041	0.98579
1534.45350	0.98588
1532.39660	0.98590
1530.33969	0.98578
1528.28278	0.98575
1526.22587	0.98598
1524.16896	0.98625
1522.11206	0.98626
1520.05515	0.98618
1517.99824	0.98622
1515.94133	0.98609
1513.88442	0.98590
1511.82751	0.98595
1509.77061	0.98611
1507.71370	0.98566
1505.65679	0.98519
1503.59988	0.98562
1501.54297	0.98598
1499.48607	0.98597
1497.42916	0.98577
1495.37225	0.98593
1493.31534	0.98627
1491.25843	0.98623
1489.20152	0.98598
1487.14462	0.98592
1485.08771	0.98575
1483.03080	0.98540
1480.97389	0.98496
1478.91698	0.98465
1476.86008	0.98431
1474.80317	0.98349
1472.74626	0.98206
1470.68935	0.98065
1468.63244	0.97957
1466.57553	0.97823
1464.51863	0.97638
1462.46172	0.97472
1460.40481	0.97363
1458.34790	0.97254
1456.29099	0.97089
1454.23409	0.96966
1452.17718	0.96893
1450.12027	0.96809
1448.06336	0.96687
1446.00645	0.96531
1443.94954	0.96384
1441.89264	0.96242
1439.83573	0.96089
1437.77882	0.95927
1435.72191	0.95783
1433.66500	0.95711
1431.60810	0.95685
1429.55119	0.95718
1427.49428	0.95836
1425.43737	0.95983
1423.38046	0.96120
1421.32355	0.96256
1419.26665	0.96397
1417.20974	0.96523
1415.15283	0.96648
1413.09592	0.96775
1411.03901	0.96875
1408.98211	0.96931
1406.92520	0.96950
1404.86829	0.96962
1402.81138	0.96977
1400.75447	0.96946
1398.69756	0.96816
1396.64066	0.96568
1394.58375	0.96172
1392.52684	0.95655
1390.46993	0.95082
1388.41302	0.94362
1386.35612	0.93464
1384.29921	0.92590
1382.24230	0.91783
1380.18539	0.90985
1378.12848	0.90237
1376.07157	0.89540
1374.01467	0.88815
1371.95776	0.88179
1369.90085	0.87773
1367.84394	0.87639
1365.78703	0.87889
1363.73013	0.88635
1361.67322	0.89905
1359.61631	0.91414
1357.55940	0.92906
1355.50249	0.94234
1353.44558	0.95244
1351.38868	0.95947
1349.33177	0.96421
1347.27486	0.96704
1345.21795	0.96862
1343.16104	0.96957
1341.10414	0.97022
1339.04723	0.97063
1336.99032	0.97076
1334.93341	0.97057
1332.87650	0.97017
1330.81959	0.96966
1328.76269	0.96892
1326.70578	0.96792
1324.64887	0.96709
1322.59196	0.96673
1320.53505	0.96669
1318.47815	0.96689
1316.42124	0.96736
1314.36433	0.96804
1312.30742	0.96898
1310.25051	0.96996
1308.19360	0.97045
1306.13670	0.97040
1304.07979	0.97010
1302.02288	0.96956
1299.96597	0.96871
1297.90906	0.96765
1295.85216	0.96645
1293.79525	0.96514
1291.73834	0.96368
1289.68143	0.96192
1287.62452	0.95982
1285.56761	0.95745
1283.51071	0.95475
1281.45380	0.95139
1279.39689	0.94729
1277.33998	0.94288
1275.28307	0.93811
1273.22617	0.93225
1271.16926	0.92516
1269.11235	0.91745
1267.05544	0.90964
1264.99853	0.90168
1262.94162	0.89294
1260.88472	0.88292
1258.82781	0.87180
1256.77090	0.85980
1254.71399	0.84704
1252.65708	0.83362
1250.60018	0.81946
1248.54327	0.80488
1246.48636	0.79035
1244.42945	0.77579
1242.37254	0.76099
1240.31563	0.74625
1238.25873	0.73220
1236.20182	0.71936
1234.14491	0.70839
1232.08800	0.70005
1230.03109	0.69471
1227.97419	0.69214
1225.91728	0.69175
1223.86037	0.69282
1221.80346	0.69454
1219.74655	0.69629
1217.68964	0.69838
1215.63274	0.70204
1213.57583	0.70843
1211.51892	0.71859
1209.46201	0.73346
1207.40510	0.75349
1205.34820	0.77797
1203.29129	0.80451
1201.23438	0.83025
1199.17747	0.85325
1197.12056	0.87265
1195.06365	0.88791
1193.00675	0.89908
1190.94984	0.90711
1188.89293	0.91273
1186.83602	0.91614
1184.77911	0.91767
1182.72221	0.91766
1180.66530	0.91625
1178.60839	0.91385
1176.55148	0.91093
1174.49457	0.90789
1172.43766	0.90512
1170.38076	0.90287
1168.32385	0.90128
1166.26694	0.90052
1164.21003	0.90062
1162.15312	0.90144
1160.09622	0.90301
1158.03931	0.90522
1155.98240	0.90816
1153.92549	0.91168
1151.86858	0.91490
1149.81167	0.91744
1147.75477	0.91949
1145.69786	0.92084
1143.64095	0.92122
1141.58404	0.92060
1139.52713	0.91921
1137.47023	0.91721
1135.41332	0.91457
1133.35641	0.91132
1131.29950	0.90737
1129.24259	0.90305
1127.18568	0.89924
1125.12878	0.89673
1123.07187	0.89575
1121.01496	0.89582
1118.95805	0.89645
1116.90114	0.89740
1114.84424	0.89826
1112.78733	0.89869
1110.73042	0.89871
1108.67351	0.89838
1106.61660	0.89769
1104.55969	0.89614
1102.50279	0.89306
1100.44588	0.88853
1098.38897	0.88274
1096.33206	0.87572
1094.27515	0.86775
1092.21825	0.85897
1090.16134	0.84998
1088.10443	0.84183
1086.04752	0.83475
1083.99061	0.82849
1081.93370	0.82299
1079.87680	0.81776
1077.81989	0.81212
1075.76298	0.80657
1073.70607	0.80174
1071.64916	0.79731
1069.59226	0.79293
1067.53535	0.78833
1065.47844	0.78346
1063.42153	0.77791
1061.36462	0.77093
1059.30771	0.76277
1057.25081	0.75400
1055.19390	0.74489
1053.13699	0.73580
1051.08008	0.72720
1049.02317	0.71985
1046.96627	0.71430
1044.90936	0.71063
1042.85245	0.70854
1040.79554	0.70715
1038.73863	0.70574
1036.68172	0.70514
1034.62482	0.70671
1032.56791	0.71140
1030.51100	0.71981
1028.45409	0.73185
1026.39718	0.74653
1024.34028	0.76254
1022.28337	0.77903
1020.22646	0.79516
1018.16955	0.80974
1016.11264	0.82264
1014.05573	0.83446
1011.99883	0.84516
1009.94192	0.85460
1007.88501	0.86327
1005.82810	0.87123
1003.77119	0.87816
1001.71429	0.88419
999.65738	0.88944
997.60047	0.89374
995.54356	0.89703
993.48665	0.89962
991.42974	0.90160
989.37284	0.90305
987.31593	0.90469
985.25902	0.90711
983.20211	0.91009
981.14520	0.91319
979.08830	0.91626
977.03139	0.91945
974.97448	0.92316
972.91757	0.92738
970.86066	0.93137
968.80375	0.93473
966.74685	0.93739
964.68994	0.93896
962.63303	0.93955
960.57612	0.94012
958.51921	0.94082
956.46231	0.94091
954.40540	0.94055
952.34849	0.94064
950.29158	0.94120
948.23467	0.94211
946.17776	0.94359
944.12086	0.94520
942.06395	0.94645
940.00704	0.94731
937.95013	0.94766
935.89322	0.94767
933.83632	0.94745
931.77941	0.94649
929.72250	0.94507
927.66559	0.94382
925.60868	0.94236
923.55177	0.94018
921.49487	0.93788
919.43796	0.93604
917.38105	0.93425
915.32414	0.93210
913.26723	0.92946
911.21033	0.92610
909.15342	0.92224
907.09651	0.91866
905.03960	0.91601
902.98269	0.91454
900.92578	0.91458
898.86888	0.91657
896.81197	0.92056
894.75506	0.92576
892.69815	0.93112
890.64124	0.93563
888.58434	0.93859
886.52743	0.94041
884.47052	0.94170
882.41361	0.94279
880.35670	0.94395
878.29979	0.94462
876.24289	0.94489
874.18598	0.94627
872.12907	0.94899
870.07216	0.95226
868.01525	0.95588
865.95835	0.95959
863.90144	0.96259
861.84453	0.96451
859.78762	0.96578
857.73071	0.96673
855.67380	0.96737
853.61690	0.96787
851.55999	0.96808
849.50308	0.96755
847.44617	0.96657
845.38926	0.96582
843.33236	0.96530
841.27545	0.96482
839.21854	0.96466
837.16163	0.96501
835.10472	0.96551
833.04781	0.96596
830.99091	0.96688
828.93400	0.96829
826.87709	0.96949
824.82018	0.97092
822.76327	0.97260
820.70637	0.97357
818.64946	0.97444
816.59255	0.97579
814.53564	0.97649
812.47873	0.97604
810.42182	0.97588
808.36492	0.97689
806.30801	0.97800
804.25110	0.97830
802.19419	0.97841
800.13728	0.97868
798.08038	0.97860
796.02347	0.97801
793.96656	0.97755
791.90965	0.97805
789.85274	0.97913
787.79583	0.97979
785.73893	0.97976
783.68202	0.97906
781.62511	0.97824
779.56820	0.97793
777.51129	0.97775
775.45439	0.97760
773.39748	0.97810
771.34057	0.97889
769.28366	0.97906
767.22675	0.97897
765.16984	0.97914
763.11294	0.97922
761.05603	0.97906
758.99912	0.97924
756.94221	0.97960
754.88530	0.97962
752.82839	0.97972
750.77149	0.98013
748.71458	0.98003
746.65767	0.97925
744.60076	0.97892
742.54385	0.97949
740.48695	0.98000
738.43004	0.97980
736.37313	0.97914
734.31622	0.97852
732.25931	0.97824
730.20240	0.97798
728.14550	0.97708
726.08859	0.97561
724.03168	0.97451
721.97477	0.97401
719.91786	0.97403
717.86096	0.97445
715.80405	0.97443
713.74714	0.97385
711.69023	0.97356
709.63332	0.97329
707.57641	0.97214
705.51951	0.97053
703.46260	0.96929
701.40569	0.96862
699.34878	0.96825
697.29187	0.96795
695.23497	0.96738
693.17806	0.96639
691.12115	0.96574
689.06424	0.96595
687.00733	0.96656
684.95042	0.96713
682.89352	0.96713
680.83661	0.96656
678.77970	0.96660
676.72279	0.96739
674.66588	0.96758
672.60898	0.96707
670.55207	0.96701
668.49516	0.96729
666.43825	0.96649
664.38134	0.96548
662.32443	0.96539
660.26753	0.96567
658.21062	0.96497
656.15371	0.96364
654.09680	0.96213
652.03989	0.96040
649.98299	0.95894
647.92608	0.95728
645.86917	0.95512
643.81226	0.95364
641.75535	0.95370
639.69844	0.95448
637.64154	0.95474
635.58463	0.95445
633.52772	0.95380
631.47081	0.95274
629.41390	0.95156
627.35700	0.94994
625.30009	0.94786
623.24318	0.94584
621.18627	0.94374
619.12936	0.94138
617.07245	0.93869
615.01555	0.93543
612.95864	0.93151
610.90173	0.92659
608.84482	0.92013
606.78791	0.91319
604.73101	0.90774
602.67410	0.90563
600.61719	0.90786
598.56028	0.91354
596.50337	0.92049
594.44646	0.92668
592.38956	0.93186
590.33265	0.93653
588.27574	0.94100
586.21883	0.94550
584.16192	0.94986
582.10502	0.95369
580.04811	0.95639
577.99120	0.95789
575.93429	0.95847
573.87738	0.95817
571.82047	0.95662
569.76357	0.95413
567.70666	0.95261
565.64975	0.95234
563.59284	0.95169
561.53593	0.95011
559.47903	0.94883
557.42212	0.94872
555.36521	0.94939
553.30830	0.95047
551.25139	0.95142
549.19448	0.95249
547.13758	0.95435
545.08067	0.95604
543.02376	0.95712
540.96685	0.95812
538.90994	0.95820
536.85304	0.95801
534.79613	0.95944
532.73922	0.96057
530.68231	0.95987
528.62540	0.95863
526.56849	0.95801
524.51159	0.95845
522.45468	0.95881
520.39777	0.95831
518.34086	0.95717
516.28395	0.95584
514.22705	0.95470
512.17014	0.95426
510.11323	0.95495
508.05632	0.95618
505.99941	0.95710
503.94250	0.95650
501.88560	0.95375
499.82869	0.95095
497.77178	0.94965
495.71487	0.94837
493.65796	0.94633
491.60106	0.94447
489.54415	0.94384
487.48724	0.94428
485.43033	0.94456
483.37342	0.94449
481.31651	0.94367
479.25961	0.94093
477.20270	0.93835
475.14579	0.93947
473.08888	0.94275
471.03197	0.94327
468.97507	0.94196
466.91816	0.94313
464.86125	0.94440
462.80434	0.94261
460.74743	0.94022
458.69052	0.93824
456.63362	0.93551
454.57671	0.93399
452.51980	0.93550
450.46289	0.93728
448.40598	0.93645
446.34908	0.93391
444.29217	0.93298
442.23526	0.93589
440.17835	0.93728
438.12144	0.93343
436.06453	0.93140
434.00763	0.93630
431.95072	0.94189
429.89381	0.94258
427.83690	0.94098
425.77999	0.93996
423.72309	0.94041
421.66618	0.94373
419.60927	0.94673
417.55236	0.94537
415.49545	0.94404
413.43854	0.94499
411.38164	0.94759
409.32473	0.94921
407.26782	0.94435
405.21091	0.93735
403.15400	0.93635
401.09710	0.93507
399.04019	0.92903
