3996.57260	0.98685
3994.51569	0.98714
3992.45878	0.98700
3990.40188	0.98727
3988.34497	0.98790
3986.28806	0.98757
3984.23115	0.98651
3982.17424	0.98590
3980.11733	0.98615
3978.06043	0.98698
3976.00352	0.98731
3973.94661	0.98706
3971.88970	0.98741
3969.83279	0.98797
3967.77589	0.98782
3965.71898	0.98738
3963.66207	0.98704
3961.60516	0.98682
3959.54825	0.98669
3957.49134	0.98654
3955.43444	0.98659
3953.37753	0.98739
3951.32062	0.98855
3949.26371	0.98882
3947.20680	0.98813
3945.14990	0.98791
3943.09299	0.98824
3941.03608	0.98792
3938.97917	0.98709
3936.92226	0.98647
3934.86535	0.98611
3932.80845	0.98620
3930.75154	0.98697
3928.69463	0.98762
3926.63772	0.98795
3924.58081	0.98803
3922.52391	0.98715
3920.46700	0.98611
3918.41009	0.98630
3916.35318	0.98703
3914.29627	0.98692
3912.23936	0.98650
3910.18246	0.98634
3908.12555	0.98627
3906.06864	0.98598
3904.01173	0.98539
3901.95482	0.98530
3899.89792	0.98600
3897.84101	0.98683
3895.78410	0.98721
3893.72719	0.98714
3891.67028	0.98707
3889.61337	0.98767
3887.55647	0.98828
3885.49956	0.98808
3883.44265	0.98781
3881.38574	0.98784
3879.32883	0.98750
3877.27193	0.98670
3875.21502	0.98589
3873.15811	0.98573
3871.10120	0.98645
3869.04429	0.98723
3866.98738	0.98737
3864.93048	0.98710
3862.87357	0.98700
3860.81666	0.98743
3858.75975	0.98758
3856.70284	0.98694
3854.64594	0.98630
3852.58903	0.98678
3850.53212	0.98716
3848.47521	0.98693
3846.41830	0.98676
3844.36139	0.98657
3842.30449	0.98612
3840.24758	0.98601
3838.19067	0.98682
3836.13376	0.98740
3834.07685	0.98721
3832.01995	0.98714
3829.96304	0.98720
3827.90613	0.98708
3825.84922	0.98719
3823.79231	0.98778
3821.73540	0.98823
3819.67850	0.98812
3817.62159	0.98823
3815.56468	0.98860
3813.50777	0.98787
3811.45086	0.98657
3809.39396	0.98620
3807.33705	0.98649
3805.28014	0.98668
3803.22323	0.98712
3801.16632	0.98769
3799.10941	0.98782
3797.05251	0.98789
3794.99560	0.98801
3792.93869	0.98762
3790.88178	0.98707
3788.82487	0.98706
3786.76796	0.98723
3784.71106	0.98704
3782.65415	0.98660
3780.59724	0.98645
3778.54033	0.98709
3776.48342	0.98822
3774.42652	0.98892
3772.36961	0.98904
3770.31270	0.98849
3768.25579	0.98744
3766.19888	0.98724
3764.14197	0.98772
3762.08507	0.98766
3760.02816	0.98755
3757.97125	0.98829
3755.91434	0.98879
3753.85743	0.98876
3751.80053	0.98903
3749.74362	0.98890
3747.68671	0.98848
3745.62980	0.98825
3743.57289	0.98791
3741.51598	0.98813
3739.45908	0.98836
3737.40217	0.98805
3735.34526	0.98801
3733.28835	0.98830
3731.23144	0.98770
3729.17454	0.98724
3727.11763	0.98759
3725.06072	0.98773
3723.00381	0.98735
3720.94690	0.98717
3718.88999	0.98704
3716.83309	0.98663
3714.77618	0.98648
3712.71927	0.98713
3710.66236	0.98819
3708.60545	0.98826
3706.54855	0.98773
3704.49164	0.98755
3702.43473	0.98753
3700.37782	0.98733
3698.32091	0.98710
3696.26400	0.98716
3694.20710	0.98738
3692.15019	0.98748
3690.09328	0.98752
3688.03637	0.98747
3685.97946	0.98742
3683.92256	0.98708
3681.86565	0.98676
3679.80874	0.98750
3677.75183	0.98875
3675.69492	0.98848
3673.63801	0.98708
3671.58111	0.98642
3669.52420	0.98605
3667.46729	0.98581
3665.41038	0.98572
3663.35347	0.98539
3661.29657	0.98529
3659.23966	0.98622
3657.18275	0.98742
3655.12584	0.98775
3653.06893	0.98765
3651.01202	0.98723
3648.95512	0.98606
3646.89821	0.98566
3644.84130	0.98631
3642.78439	0.98698
3640.72748	0.98696
3638.67058	0.98622
3636.61367	0.98566
3634.55676	0.98518
3632.49985	0.98521
3630.44294	0.98621
3628.38603	0.98630
3626.32913	0.98606
3624.27222	0.98643
3622.21531	0.98595
3620.15840	0.98528
3618.10149	0.98580
3616.04459	0.98629
3613.98768	0.98576
3611.93077	0.98482
3609.87386	0.98440
3607.81695	0.98465
3605.76004	0.98503
3603.70314	0.98515
3601.64623	0.98499
3599.58932	0.98474
3597.53241	0.98440
3595.47550	0.98407
3593.41860	0.98404
3591.36169	0.98459
3589.30478	0.98538
3587.24787	0.98510
3585.19096	0.98380
3583.13405	0.98303
3581.07715	0.98315
3579.02024	0.98383
3576.96333	0.98418
3574.90642	0.98386
3572.84951	0.98337
3570.79261	0.98276
3568.73570	0.98209
3566.67879	0.98148
3564.62188	0.98133
3562.56497	0.98177
3560.50806	0.98193
3558.45116	0.98118
3556.39425	0.98033
3554.33734	0.98051
3552.28043	0.98100
3550.22352	0.98086
3548.16662	0.98040
3546.10971	0.97997
3544.05280	0.97968
3541.99589	0.97906
3539.93898	0.97838
3537.88207	0.97868
3535.82517	0.97919
3533.76826	0.97882
3531.71135	0.97812
3529.65444	0.97764
3527.59753	0.97764
3525.54063	0.97810
3523.48372	0.97847
3521.42681	0.97855
3519.36990	0.97868
3517.31299	0.97854
3515.25608	0.97770
3513.19918	0.97697
3511.14227	0.97692
3509.08536	0.97700
3507.02845	0.97680
3504.97154	0.97667
3502.91464	0.97692
3500.85773	0.97719
3498.80082	0.97709
3496.74391	0.97671
3494.68700	0.97636
3492.63009	0.97605
3490.57319	0.97553
3488.51628	0.97508
3486.45937	0.97523
3484.40246	0.97581
3482.34555	0.97612
3480.28865	0.97610
3478.23174	0.97603
3476.17483	0.97574
3474.11792	0.97559
3472.06101	0.97593
3470.00410	0.97601
3467.94720	0.97570
3465.89029	0.97541
3463.83338	0.97539
3461.77647	0.97584
3459.71956	0.97660
3457.66266	0.97708
3455.60575	0.97704
3453.54884	0.97698
3451.49193	0.97716
3449.43502	0.97726
3447.37811	0.97730
3445.32121	0.97728
3443.26430	0.97687
3441.20739	0.97680
3439.15048	0.97772
3437.09357	0.97843
3435.03667	0.97835
3432.97976	0.97830
3430.92285	0.97861
3428.86594	0.97899
3426.80903	0.97902
3424.75212	0.97848
3422.69522	0.97779
3420.63831	0.97767
3418.58140	0.97832
3416.52449	0.97892
3414.46758	0.97931
3412.41068	0.97969
3410.35377	0.97973
3408.29686	0.97964
3406.23995	0.97973
3404.18304	0.97988
3402.12613	0.97987
3400.06923	0.98011
3398.01232	0.98074
3395.95541	0.98104
3393.89850	0.98095
3391.84159	0.98072
3389.78469	0.98024
3387.72778	0.97959
3385.67087	0.97928
3383.61396	0.97953
3381.55705	0.98019
3379.50014	0.98081
3377.44324	0.98092
3375.38633	0.98069
3373.32942	0.98071
3371.27251	0.98110
3369.21560	0.98127
3367.15870	0.98102
3365.10179	0.98087
3363.04488	0.98133
3360.98797	0.98204
3358.93106	0.98240
3356.87415	0.98229
3354.81725	0.98182
3352.76034	0.98142
3350.70343	0.98156
3348.64652	0.98234
3346.58961	0.98321
3344.53271	0.98330
3342.47580	0.98271
3340.41889	0.98242
3338.36198	0.98244
3336.30507	0.98246
3334.24816	0.98254
3332.19126	0.98242
3330.13435	0.98247
3328.07744	0.98272
3326.02053	0.98257
3323.96362	0.98200
3321.90672	0.98166
3319.84981	0.98210
3317.79290	0.98256
3315.73599	0.98224
3313.67908	0.98189
3311.62217	0.98223
3309.56527	0.98270
3307.50836	0.98286
3305.45145	0.98289
3303.39454	0.98335
3301.33763	0.98422
3299.28073	0.98440
3297.22382	0.98372
3295.16691	0.98325
3293.11000	0.98328
3291.05309	0.98336
3288.99618	0.98333
3286.93928	0.98334
3284.88237	0.98342
3282.82546	0.98363
3280.76855	0.98364
3278.71164	0.98334
3276.65474	0.98341
3274.59783	0.98393
3272.54092	0.98427
3270.48401	0.98422
3268.42710	0.98409
3266.37019	0.98389
3264.31329	0.98361
3262.25638	0.98370
3260.19947	0.98439
3258.14256	0.98486
3256.08565	0.98466
3254.02875	0.98446
3251.97184	0.98452
3249.91493	0.98491
3247.85802	0.98524
3245.80111	0.98497
3243.74420	0.98424
3241.68730	0.98380
3239.63039	0.98431
3237.57348	0.98484
3235.51657	0.98449
3233.45966	0.98384
3231.40276	0.98372
3229.34585	0.98420
3227.28894	0.98464
3225.23203	0.98458
3223.17512	0.98421
3221.11821	0.98399
3219.06131	0.98389
3217.00440	0.98370
3214.94749	0.98350
3212.89058	0.98370
3210.83367	0.98405
3208.77677	0.98400
3206.71986	0.98409
3204.66295	0.98440
3202.60604	0.98452
3200.54913	0.98469
3198.49222	0.98482
3196.43532	0.98480
3194.37841	0.98487
3192.32150	0.98484
3190.26459	0.98454
3188.20768	0.98457
3186.15078	0.98494
3184.09387	0.98489
3182.03696	0.98471
3179.98005	0.98485
3177.92314	0.98503
3175.86623	0.98496
3173.80933	0.98472
3171.75242	0.98460
3169.69551	0.98474
3167.63860	0.98510
3165.58169	0.98529
3163.52479	0.98511
3161.46788	0.98503
3159.41097	0.98506
3157.35406	0.98482
3155.29715	0.98472
3153.24024	0.98502
3151.18334	0.98516
3149.12643	0.98518
3147.06952	0.98546
3145.01261	0.98570
3142.95570	0.98518
3140.89880	0.98429
3138.84189	0.98453
3136.78498	0.98542
3134.72807	0.98551
3132.67116	0.98506
3130.61425	0.98479
3128.55735	0.98482
3126.50044	0.98487
3124.44353	0.98470
3122.38662	0.98443
3120.32971	0.98436
3118.27281	0.98485
3116.21590	0.98549
3114.15899	0.98583
3112.10208	0.98573
3110.04517	0.98531
3107.98826	0.98515
3105.93136	0.98540
3103.87445	0.98550
3101.81754	0.98520
3099.76063	0.98500
3097.70372	0.98504
3095.64682	0.98521
3093.58991	0.98544
3091.53300	0.98514
3089.47609	0.98457
3087.41918	0.98469
3085.36227	0.98503
3083.30537	0.98487
3081.24846	0.98476
3079.19155	0.98493
3077.13464	0.98489
3075.07773	0.98483
3073.02083	0.98501
3070.96392	0.98523
3068.90701	0.98532
3066.85010	0.98511
3064.79319	0.98460
3062.73628	0.98421
3060.67938	0.98433
3058.62247	0.98454
3056.56556	0.98436
3054.50865	0.98416
3052.45174	0.98417
3050.39484	0.98422
3048.33793	0.98427
3046.28102	0.98429
3044.22411	0.98423
3042.16720	0.98417
3040.11029	0.98424
3038.05339	0.98421
3035.99648	0.98400
3033.93957	0.98416
3031.88266	0.98460
3029.82575	0.98460
3027.76885	0.98427
3025.71194	0.98418
3023.65503	0.98411
3021.59812	0.98375
3019.54121	0.98338
3017.48430	0.98327
3015.42740	0.98320
3013.37049	0.98303
3011.31358	0.98316
3009.25667	0.98355
3007.19976	0.98341
3005.14286	0.98293
3003.08595	0.98291
3001.02904	0.98327
2998.97213	0.98347
2996.91522	0.98339
2994.85831	0.98330
2992.80141	0.98330
2990.74450	0.98315
2988.68759	0.98276
2986.63068	0.98219
2984.57377	0.98160
2982.51687	0.98138
2980.45996	0.98142
2978.40305	0.98139
2976.34614	0.98117
2974.28923	0.98078
2972.23232	0.98062
2970.17542	0.98073
2968.11851	0.98061
2966.06160	0.98034
2964.00469	0.98013
2961.94778	0.97966
2959.89088	0.97888
2957.83397	0.97834
2955.77706	0.97832
2953.72015	0.97829
2951.66324	0.97801
2949.60633	0.97777
2947.54943	0.97774
2945.49252	0.97787
2943.43561	0.97804
2941.37870	0.97829
2939.32179	0.97865
2937.26489	0.97896
2935.20798	0.97917
2933.15107	0.97925
2931.09416	0.97915
2929.03725	0.97917
2926.98034	0.97925
2924.92344	0.97926
2922.86653	0.97948
2920.80962	0.97978
2918.75271	0.97998
2916.69580	0.98002
2914.63890	0.97999
2912.58199	0.98009
2910.52508	0.97994
2908.46817	0.97957
2906.41126	0.97969
2904.35435	0.98001
2902.29745	0.97977
2900.24054	0.97912
2898.18363	0.97869
2896.12672	0.97849
2894.06981	0.97834
2892.01291	0.97837
2889.95600	0.97855
2887.89909	0.97875
2885.84218	0.97900
2883.78527	0.97922
2881.72836	0.97911
2879.67146	0.97884
2877.61455	0.97895
2875.55764	0.97912
2873.50073	0.97903
2871.44382	0.97917
2869.38692	0.97945
2867.33001	0.97972
2865.27310	0.98001
2863.21619	0.98016
2861.15928	0.98047
2859.10237	0.98101
2857.04547	0.98141
2854.98856	0.98160
2852.93165	0.98186
2850.87474	0.98205
2848.81783	0.98201
2846.76093	0.98223
2844.70402	0.98252
2842.64711	0.98264
2840.59020	0.98307
2838.53329	0.98359
2836.47638	0.98349
2834.41948	0.98330
2832.36257	0.98357
2830.30566	0.98375
2828.24875	0.98361
2826.19184	0.98341
2824.13494	0.98331
2822.07803	0.98339
2820.02112	0.98354
2817.96421	0.98344
2815.90730	0.98314
2813.85039	0.98305
2811.79349	0.98346
2809.73658	0.98402
2807.67967	0.98421
2805.62276	0.98427
2803.56585	0.98435
2801.50895	0.98409
2799.45204	0.98366
2797.39513	0.98360
2795.33822	0.98390
2793.28131	0.98424
2791.22440	0.98442
2789.16750	0.98463
2787.11059	0.98466
2785.05368	0.98424
2782.99677	0.98393
2780.93986	0.98406
2778.88296	0.98420
2776.82605	0.98415
2774.76914	0.98422
2772.71223	0.98435
2770.65532	0.98432
2768.59841	0.98425
2766.54151	0.98421
2764.48460	0.98415
2762.42769	0.98426
2760.37078	0.98465
2758.31387	0.98484
2756.25697	0.98454
2754.20006	0.98430
2752.14315	0.98460
2750.08624	0.98506
2748.02933	0.98509
2745.97242	0.98482
2743.91552	0.98472
2741.85861	0.98465
2739.80170	0.98431
2737.74479	0.98392
2735.68788	0.98391
2733.63098	0.98420
2731.57407	0.98424
2729.51716	0.98408
2727.46025	0.98407
2725.40334	0.98412
2723.34643	0.98406
2721.28953	0.98414
2719.23262	0.98446
2717.17571	0.98461
2715.11880	0.98445
2713.06189	0.98428
2711.00499	0.98421
2708.94808	0.98425
2706.89117	0.98447
2704.83426	0.98472
2702.77735	0.98460
2700.72044	0.98426
2698.66354	0.98430
2696.60663	0.98464
2694.54972	0.98475
2692.49281	0.98459
2690.43590	0.98446
2688.37900	0.98452
2686.32209	0.98477
2684.26518	0.98495
2682.20827	0.98490
2680.15136	0.98491
2678.09445	0.98488
2676.03755	0.98471
2673.98064	0.98470
2671.92373	0.98469
2669.86682	0.98456
2667.80991	0.98457
2665.75301	0.98466
2663.69610	0.98461
2661.63919	0.98443
2659.58228	0.98427
2657.52537	0.98419
2655.46846	0.98412
2653.41156	0.98408
2651.35465	0.98425
2649.29774	0.98459
2647.24083	0.98468
2645.18392	0.98433
2643.12702	0.98396
2641.07011	0.98395
2639.01320	0.98404
2636.95629	0.98396
2634.89938	0.98405
2632.84247	0.98449
2630.78557	0.98493
2628.72866	0.98488
2626.67175	0.98451
2624.61484	0.98444
2622.55793	0.98451
2620.50103	0.98450
2618.44412	0.98470
2616.38721	0.98503
2614.33030	0.98501
2612.27339	0.98460
2610.21648	0.98430
2608.15958	0.98438
2606.10267	0.98479
2604.04576	0.98539
2601.98885	0.98551
2599.93194	0.98488
2597.87504	0.98447
2595.81813	0.98483
2593.76122	0.98515
2591.70431	0.98538
2589.64740	0.98590
2587.59049	0.98600
2585.53359	0.98555
2583.47668	0.98514
2581.41977	0.98501
2579.36286	0.98493
2577.30595	0.98447
2575.24905	0.98400
2573.19214	0.98422
2571.13523	0.98470
2569.07832	0.98491
2567.02141	0.98511
2564.96450	0.98534
2562.90760	0.98555
2560.85069	0.98588
2558.79378	0.98619
2556.73687	0.98617
2554.67996	0.98567
2552.62306	0.98523
2550.56615	0.98560
2548.50924	0.98622
2546.45233	0.98621
2544.39542	0.98587
2542.33851	0.98573
2540.28161	0.98567
2538.22470	0.98561
2536.16779	0.98527
2534.11088	0.98479
2532.05397	0.98497
2529.99707	0.98539
2527.94016	0.98544
2525.88325	0.98562
2523.82634	0.98597
2521.76943	0.98600
2519.71252	0.98582
2517.65562	0.98589
2515.59871	0.98616
2513.54180	0.98597
2511.48489	0.98548
2509.42798	0.98577
2507.37108	0.98660
2505.31417	0.98663
2503.25726	0.98561
2501.20035	0.98483
2499.14344	0.98487
2497.08653	0.98506
2495.02963	0.98524
2492.97272	0.98558
2490.91581	0.98594
2488.85890	0.98594
2486.80199	0.98565
2484.74509	0.98575
2482.68818	0.98615
2480.63127	0.98640
2478.57436	0.98620
2476.51745	0.98553
2474.46054	0.98522
2472.40364	0.98573
2470.34673	0.98635
2468.28982	0.98639
2466.23291	0.98624
2464.17600	0.98600
2462.11910	0.98543
2460.06219	0.98487
2458.00528	0.98474
2455.94837	0.98512
2453.89146	0.98517
2451.83455	0.98471
2449.77765	0.98492
2447.72074	0.98562
2445.66383	0.98575
2443.60692	0.98521
2441.55001	0.98468
2439.49311	0.98470
2437.43620	0.98506
2435.37929	0.98556
2433.32238	0.98591
2431.26547	0.98571
2429.20856	0.98530
2427.15166	0.98543
2425.09475	0.98613
2423.03784	0.98675
2420.98093	0.98698
2418.92402	0.98671
2416.86712	0.98631
2414.81021	0.98621
2412.75330	0.98604
2410.69639	0.98573
2408.63948	0.98562
2406.58257	0.98577
2404.52567	0.98607
2402.46876	0.98602
2400.41185	0.98577
2398.35494	0.98626
2396.29803	0.98707
2394.24113	0.98738
2392.18422	0.98738
2390.12731	0.98723
2388.07040	0.98684
2386.01349	0.98629
2383.95658	0.98595
2381.89968	0.98616
2379.84277	0.98673
2377.78586	0.98697
2375.72895	0.98695
2373.67204	0.98721
2371.61514	0.98740
2369.55823	0.98731
2367.50132	0.98738
2365.44441	0.98777
2363.38750	0.98736
2361.33059	0.98634
2359.27369	0.98626
2357.21678	0.98627
2355.15987	0.98562
2353.10296	0.98515
2351.04605	0.98557
2348.98915	0.98642
2346.93224	0.98688
2344.87533	0.98685
2342.81842	0.98661
2340.76151	0.98576
2338.70460	0.98469
2336.64770	0.98461
2334.59079	0.98550
2332.53388	0.98643
2330.47697	0.98681
2328.42006	0.98634
2326.36316	0.98495
2324.30625	0.98393
2322.24934	0.98458
2320.19243	0.98567
2318.13552	0.98584
2316.07861	0.98551
2314.02171	0.98556
2311.96480	0.98591
2309.90789	0.98576
2307.85098	0.98565
2305.79407	0.98599
2303.73717	0.98590
2301.68026	0.98540
2299.62335	0.98499
2297.56644	0.98464
2295.50953	0.98431
2293.45262	0.98399
2291.39572	0.98362
2289.33881	0.98348
2287.28190	0.98409
2285.22499	0.98493
2283.16808	0.98501
2281.11117	0.98517
2279.05427	0.98609
2276.99736	0.98608
2274.94045	0.98507
2272.88354	0.98448
2270.82663	0.98453
2268.76973	0.98466
2266.71282	0.98456
2264.65591	0.98478
2262.59900	0.98506
2260.54209	0.98447
2258.48518	0.98339
2256.42828	0.98318
2254.37137	0.98436
2252.31446	0.98606
2250.25755	0.98713
2248.20064	0.98738
2246.14374	0.98867
2244.08683	0.99095
2242.02992	0.99026
2239.97301	0.98659
2237.91610	0.98470
2235.85919	0.98546
2233.80229	0.98701
2231.74538	0.98807
2229.68847	0.98739
2227.63156	0.98551
2225.57465	0.98345
2223.51775	0.98225
2221.46084	0.98293
2219.40393	0.98484
2217.34702	0.98681
2215.29011	0.98782
2213.23320	0.98797
2211.17630	0.98791
2209.11939	0.98661
2207.06248	0.98491
2205.00557	0.98510
2202.94866	0.98632
2200.89176	0.98675
2198.83485	0.98674
2196.77794	0.98736
2194.72103	0.98760
2192.66412	0.98656
2190.60721	0.98582
2188.55031	0.98580
2186.49340	0.98509
2184.43649	0.98473
2182.37958	0.98548
2180.32267	0.98586
2178.26577	0.98702
2176.20886	0.98899
2174.15195	0.98889
2172.09504	0.98779
2170.03813	0.98818
2167.98122	0.98852
2165.92432	0.98775
2163.86741	0.98637
2161.81050	0.98528
2159.75359	0.98667
2157.69668	0.98909
2155.63978	0.98933
2153.58287	0.98859
2151.52596	0.98905
2149.46905	0.99018
2147.41214	0.99008
2145.35523	0.98903
2143.29833	0.98972
2141.24142	0.99148
2139.18451	0.99050
2137.12760	0.98787
2135.07069	0.98657
2133.01379	0.98641
2130.95688	0.98729
2128.89997	0.98897
2126.84306	0.98918
2124.78615	0.98774
2122.72924	0.98669
2120.67234	0.98693
2118.61543	0.98781
2116.55852	0.98745
2114.50161	0.98620
2112.44470	0.98623
2110.38780	0.98691
2108.33089	0.98663
2106.27398	0.98559
2104.21707	0.98508
2102.16016	0.98620
2100.10325	0.98706
2098.04635	0.98596
2095.98944	0.98506
2093.93253	0.98536
2091.87562	0.98577
2089.81871	0.98659
2087.76181	0.98753
2085.70490	0.98745
2083.64799	0.98672
2081.59108	0.98573
2079.53417	0.98541
2077.47726	0.98620
2075.42036	0.98619
2073.36345	0.98568
2071.30654	0.98643
2069.24963	0.98716
2067.19272	0.98640
2065.13582	0.98568
2063.07891	0.98653
2061.02200	0.98813
2058.96509	0.98907
2056.90818	0.98887
2054.85127	0.98896
2052.79437	0.98974
2050.73746	0.98954
2048.68055	0.98852
2046.62364	0.98752
2044.56673	0.98747
2042.50983	0.98868
2040.45292	0.98916
2038.39601	0.98791
2036.33910	0.98674
2034.28219	0.98705
2032.22528	0.98705
2030.16838	0.98678
2028.11147	0.98779
2026.05456	0.98901
2023.99765	0.98942
2021.94074	0.98938
2019.88384	0.98947
2017.82693	0.98949
2015.77002	0.98990
2013.71311	0.99080
2011.65620	0.99133
2009.59929	0.99040
2007.54239	0.98878
2005.48548	0.98899
2003.42857	0.98951
2001.37166	0.98862
1999.31475	0.98794
1997.25785	0.98765
1995.20094	0.98653
1993.14403	0.98478
1991.08712	0.98386
1989.03021	0.98385
1986.97330	0.98386
1984.91640	0.98451
1982.85949	0.98524
1980.80258	0.98525
1978.74567	0.98676
1976.68876	0.98963
1974.63186	0.99079
1972.57495	0.98966
1970.51804	0.98762
1968.46113	0.98727
1966.40422	0.98904
1964.34731	0.98969
1962.29041	0.98856
1960.23350	0.98723
1958.17659	0.98714
1956.11968	0.98872
1954.06277	0.98944
1952.00587	0.98895
1949.94896	0.98947
1947.89205	0.99060
1945.83514	0.99088
1943.77823	0.98969
1941.72132	0.98772
1939.66442	0.98763
1937.60751	0.98893
1935.55060	0.98911
1933.49369	0.98854
1931.43678	0.98852
1929.37988	0.98942
1927.32297	0.98967
1925.26606	0.98850
1923.20915	0.98759
1921.15224	0.98774
1919.09533	0.98833
1917.03843	0.98883
1914.98152	0.98909
1912.92461	0.98932
1910.86770	0.98976
1908.81079	0.99008
1906.75389	0.98962
1904.69698	0.98868
1902.64007	0.98849
1900.58316	0.98912
1898.52625	0.98942
1896.46934	0.98937
1894.41244	0.98950
1892.35553	0.98922
1890.29862	0.98865
1888.24171	0.98914
1886.18480	0.99019
1884.12790	0.99035
1882.07099	0.98972
1880.01408	0.98914
1877.95717	0.98891
1875.90026	0.98893
1873.84335	0.98888
1871.78645	0.98853
1869.72954	0.98792
1867.67263	0.98745
1865.61572	0.98750
1863.55881	0.98818
1861.50191	0.98923
1859.44500	0.98992
1857.38809	0.98977
1855.33118	0.98913
1853.27427	0.98899
1851.21736	0.98921
1849.16046	0.98913
1847.10355	0.98904
1845.04664	0.98929
1842.98973	0.98958
1840.93282	0.98957
1838.87592	0.98936
1836.81901	0.98912
1834.76210	0.98913
1832.70519	0.98948
1830.64828	0.98977
1828.59137	0.98980
1826.53447	0.98998
1824.47756	0.99000
1822.42065	0.98952
1820.36374	0.98900
1818.30683	0.98885
1816.24993	0.98905
1814.19302	0.98909
1812.13611	0.98877
1810.07920	0.98838
1808.02229	0.98849
1805.96538	0.98884
1803.90848	0.98885
1801.85157	0.98856
1799.79466	0.98809
1797.73775	0.98760
1795.68084	0.98714
1793.62394	0.98626
1791.56703	0.98505
1789.51012	0.98455
1787.45321	0.98435
1785.39630	0.98393
1783.33939	0.98320
1781.28249	0.98179
1779.22558	0.97951
1777.16867	0.97703
1775.11176	0.97466
1773.05485	0.97130
1770.99795	0.96626
1768.94104	0.96037
1766.88413	0.95328
1764.82722	0.94511
1762.77031	0.93531
1760.71340	0.92419
1758.65650	0.91484
1756.59959	0.90630
1754.54268	0.89849
1752.48577	0.89177
1750.42886	0.88420
1748.37196	0.87634
1746.31505	0.87036
1744.25814	0.86596
1742.20123	0.86237
1740.14432	0.85911
1738.08741	0.85698
1736.03051	0.85648
1733.97360	0.85638
1731.91669	0.85753
1729.85978	0.86080
1727.80287	0.86548
1725.74597	0.87088
1723.68906	0.87668
1721.63215	0.88248
1719.57524	0.88869
1717.51833	0.89626
1715.46142	0.90401
1713.40452	0.91077
1711.34761	0.91707
1709.29070	0.92306
1707.23379	0.92894
1705.17688	0.93478
1703.11998	0.93961
1701.06307	0.94378
1699.00616	0.94735
1696.94925	0.94969
1694.89234	0.95237
1692.83543	0.95521
1690.77853	0.95742
1688.72162	0.95912
1686.66471	0.96048
1684.60780	0.96169
1682.55089	0.96282
1680.49399	0.96398
1678.43708	0.96516
1676.38017	0.96616
1674.32326	0.96688
1672.26635	0.96766
1670.20944	0.96879
1668.15254	0.96975
1666.09563	0.97009
1664.03872	0.97020
1661.98181	0.97039
1659.92490	0.97043
1657.86800	0.97030
1655.81109	0.97027
1653.75418	0.97049
1651.69727	0.97085
1649.64036	0.97112
1647.58345	0.97118
1645.52655	0.97103
1643.46964	0.97114
1641.41273	0.97158
1639.35582	0.97220
1637.29891	0.97268
1635.24201	0.97263
1633.18510	0.97268
1631.12819	0.97312
1629.07128	0.97339
1627.01437	0.97336
1624.95746	0.97364
1622.90056	0.97428
1620.84365	0.97472
1618.78674	0.97515
1616.72983	0.97580
1614.67292	0.97633
1612.61602	0.97671
1610.55911	0.97698
1608.50220	0.97710
1606.44529	0.97730
1604.38838	0.97788
1602.33147	0.97864
1600.27457	0.97905
1598.21766	0.97915
1596.16075	0.97910
1594.10384	0.97916
1592.04693	0.97945
1589.99003	0.97966
1587.93312	0.97961
1585.87621	0.97953
1583.81930	0.97970
1581.76239	0.98012
1579.70548	0.98040
1577.64858	0.98029
1575.59167	0.98006
1573.53476	0.98017
1571.47785	0.98051
1569.42094	0.98081
1567.36404	0.98095
1565.30713	0.98105
1563.25022	0.98115
1561.19331	0.98133
1559.13640	0.98159
1557.07949	0.98140
1555.02259	0.98101
1552.96568	0.98091
1550.90877	0.98114
1548.85186	0.98136
1546.79495	0.98137
1544.73805	0.98134
1542.68114	0.98156
1540.62423	0.98182
1538.56732	0.98151
1536.51041	0.98124
1534.45350	0.98134
1532.39660	0.98153
1530.33969	0.98169
1528.28278	0.98190
1526.22587	0.98220
1524.16896	0.98265
1522.11206	0.98282
1520.05515	0.98272
1517.99824	0.98287
1515.94133	0.98287
1513.88442	0.98270
1511.82751	0.98274
1509.77061	0.98292
1507.71370	0.98281
1505.65679	0.98260
1503.59988	0.98281
1501.54297	0.98313
1499.48607	0.98339
1497.42916	0.98329
1495.37225	0.98285
1493.31534	0.98257
1491.25843	0.98257
1489.20152	0.98275
1487.14462	0.98296
1485.08771	0.98296
1483.03080	0.98275
1480.97389	0.98254
1478.91698	0.98247
1476.86008	0.98226
1474.80317	0.98167
1472.74626	0.98092
1470.68935	0.98016
1468.63244	0.97937
1466.57553	0.97831
1464.51863	0.97682
1462.46172	0.97560
1460.40481	0.97478
1458.34790	0.97340
1456.29099	0.97146
1454.23409	0.97039
1452.17718	0.96970
1450.12027	0.96891
1448.06336	0.96787
1446.00645	0.96650
1443.94954	0.96503
1441.89264	0.96377
1439.83573	0.96296
1437.77882	0.96218
1435.72191	0.96105
1433.66500	0.96014
1431.60810	0.95961
1429.55119	0.95959
1427.49428	0.96020
1425.43737	0.96112
1423.38046	0.96223
1421.32355	0.96354
1419.26665	0.96490
1417.20974	0.96594
1415.15283	0.96677
1413.09592	0.96756
1411.03901	0.96813
1408.98211	0.96842
1406.92520	0.96876
1404.86829	0.96914
1402.81138	0.96931
1400.75447	0.96929
1398.69756	0.96874
1396.64066	0.96729
1394.58375	0.96497
1392.52684	0.96214
1390.46993	0.95916
1388.41302	0.95552
1386.35612	0.95080
1384.29921	0.94567
1382.24230	0.94048
1380.18539	0.93499
1378.12848	0.92934
1376.07157	0.92373
1374.01467	0.91796
1371.95776	0.91288
1369.90085	0.90944
1367.84394	0.90752
1365.78703	0.90763
1363.73013	0.91073
1361.67322	0.91739
1359.61631	0.92626
1357.55940	0.93576
1355.50249	0.94453
1353.44558	0.95141
1351.38868	0.95640
1349.33177	0.96002
1347.27486	0.96266
1345.21795	0.96451
1343.16104	0.96567
1341.10414	0.96657
1339.04723	0.96731
1336.99032	0.96768
1334.93341	0.96789
1332.87650	0.96802
1330.81959	0.96813
1328.76269	0.96830
1326.70578	0.96830
1324.64887	0.96825
1322.59196	0.96814
1320.53505	0.96798
1318.47815	0.96810
1316.42124	0.96829
1314.36433	0.96841
1312.30742	0.96867
1310.25051	0.96895
1308.19360	0.96930
1306.13670	0.96965
1304.07979	0.96975
1302.02288	0.96966
1299.96597	0.96939
1297.90906	0.96879
1295.85216	0.96799
1293.79525	0.96714
1291.73834	0.96624
1289.68143	0.96517
1287.62452	0.96374
1285.56761	0.96204
1283.51071	0.96017
1281.45380	0.95809
1279.39689	0.95560
1277.33998	0.95275
1275.28307	0.94994
1273.22617	0.94701
1271.16926	0.94358
1269.11235	0.93957
1267.05544	0.93511
1264.99853	0.93051
1262.94162	0.92578
1260.88472	0.92060
1258.82781	0.91470
1256.77090	0.90834
1254.71399	0.90197
1252.65708	0.89559
1250.60018	0.88892
1248.54327	0.88198
1246.48636	0.87500
1244.42945	0.86795
1242.37254	0.86073
1240.31563	0.85347
1238.25873	0.84646
1236.20182	0.84007
1234.14491	0.83406
1232.08800	0.82814
1230.03109	0.82279
1227.97419	0.81851
1225.91728	0.81524
1223.86037	0.81265
1221.80346	0.81056
1219.74655	0.80890
1217.68964	0.80803
1215.63274	0.80821
1213.57583	0.80930
1211.51892	0.81154
1209.46201	0.81532
1207.40510	0.82086
1205.34820	0.82846
1203.29129	0.83802
1201.23438	0.84907
1199.17747	0.86093
1197.12056	0.87265
1195.06365	0.88344
1193.00675	0.89306
1190.94984	0.90117
1188.89293	0.90755
1186.83602	0.91227
1184.77911	0.91538
1182.72221	0.91728
1180.66530	0.91830
1178.60839	0.91830
1176.55148	0.91751
1174.49457	0.91630
1172.43766	0.91502
1170.38076	0.91385
1168.32385	0.91289
1166.26694	0.91259
1164.21003	0.91294
1162.15312	0.91344
1160.09622	0.91419
1158.03931	0.91545
1155.98240	0.91695
1153.92549	0.91865
1151.86858	0.92078
1149.81167	0.92298
1147.75477	0.92459
1145.69786	0.92554
1143.64095	0.92642
1141.58404	0.92710
1139.52713	0.92673
1137.47023	0.92557
1135.41332	0.92423
1133.35641	0.92256
1131.29950	0.92040
1129.24259	0.91833
1127.18568	0.91683
1125.12878	0.91582
1123.07187	0.91497
1121.01496	0.91409
1118.95805	0.91345
1116.90114	0.91324
1114.84424	0.91333
1112.78733	0.91369
1110.73042	0.91384
1108.67351	0.91317
1106.61660	0.91244
1104.55969	0.91220
1102.50279	0.91158
1100.44588	0.91009
1098.38897	0.90762
1096.33206	0.90453
1094.27515	0.90170
1092.21825	0.89892
1090.16134	0.89564
1088.10443	0.89205
1086.04752	0.88844
1083.99061	0.88489
1081.93370	0.88098
1079.87680	0.87660
1077.81989	0.87252
1075.76298	0.86905
1073.70607	0.86550
1071.64916	0.86171
1069.59226	0.85801
1067.53535	0.85455
1065.47844	0.85139
1063.42153	0.84831
1061.36462	0.84489
1059.30771	0.84099
1057.25081	0.83665
1055.19390	0.83191
1053.13699	0.82711
1051.08008	0.82254
1049.02317	0.81803
1046.96627	0.81372
1044.90936	0.80999
1042.85245	0.80652
1040.79554	0.80275
1038.73863	0.79890
1036.68172	0.79565
1034.62482	0.79322
1032.56791	0.79131
1030.51100	0.78970
1028.45409	0.78901
1026.39718	0.78990
1024.34028	0.79205
1022.28337	0.79493
1020.22646	0.79846
1018.16955	0.80270
1016.11264	0.80740
1014.05573	0.81198
1011.99883	0.81623
1009.94192	0.82051
1007.88501	0.82510
1005.82810	0.82979
1003.77119	0.83433
1001.71429	0.83877
999.65738	0.84309
997.60047	0.84705
995.54356	0.85067
993.48665	0.85389
991.42974	0.85653
989.37284	0.85894
987.31593	0.86120
985.25902	0.86316
983.20211	0.86506
981.14520	0.86722
979.08830	0.86964
977.03139	0.87251
974.97448	0.87604
972.91757	0.87986
970.86066	0.88360
968.80375	0.88694
966.74685	0.88986
964.68994	0.89265
962.63303	0.89508
960.57612	0.89685
958.51921	0.89821
956.46231	0.89950
954.40540	0.90092
952.34849	0.90234
950.29158	0.90362
948.23467	0.90477
946.17776	0.90590
944.12086	0.90763
942.06395	0.90977
940.00704	0.91157
937.95013	0.91294
935.89322	0.91393
933.83632	0.91455
931.77941	0.91494
929.72250	0.91520
927.66559	0.91521
925.60868	0.91468
923.55177	0.91361
921.49487	0.91237
919.43796	0.91145
917.38105	0.91057
915.32414	0.90934
913.26723	0.90816
911.21033	0.90726
909.15342	0.90614
907.09651	0.90452
905.03960	0.90247
902.98269	0.90056
900.92578	0.89964
898.86888	0.89963
896.81197	0.90032
894.75506	0.90161
892.69815	0.90306
890.64124	0.90487
888.58434	0.90680
886.52743	0.90815
884.47052	0.90955
882.41361	0.91127
880.35670	0.91242
878.29979	0.91337
876.24289	0.91503
874.18598	0.91720
872.12907	0.91969
870.07216	0.92264
868.01525	0.92530
865.95835	0.92708
863.90144	0.92891
861.84453	0.93087
859.78762	0.93233
857.73071	0.93361
855.67380	0.93478
853.61690	0.93535
851.55999	0.93516
849.50308	0.93455
847.44617	0.93434
845.38926	0.93436
843.33236	0.93375
841.27545	0.93288
839.21854	0.93266
837.16163	0.93284
835.10472	0.93271
833.04781	0.93326
830.99091	0.93509
828.93400	0.93705
826.87709	0.93865
824.82018	0.93982
822.76327	0.94035
820.70637	0.94095
818.64946	0.94231
816.59255	0.94382
814.53564	0.94494
812.47873	0.94581
810.42182	0.94637
808.36492	0.94689
806.30801	0.94770
804.25110	0.94789
802.19419	0.94726
800.13728	0.94765
798.08038	0.94912
796.02347	0.94972
793.96656	0.94932
791.90965	0.94923
789.85274	0.94983
787.79583	0.95061
785.73893	0.95091
783.68202	0.95090
781.62511	0.95126
779.56820	0.95183
777.51129	0.95195
775.45439	0.95180
773.39748	0.95219
771.34057	0.95279
769.28366	0.95295
767.22675	0.95303
765.16984	0.95341
763.11294	0.95359
761.05603	0.95374
758.99912	0.95436
756.94221	0.95468
754.88530	0.95469
752.82839	0.95519
750.77149	0.95572
748.71458	0.95584
746.65767	0.95599
744.60076	0.95627
742.54385	0.95637
740.48695	0.95621
738.43004	0.95578
736.37313	0.95522
734.31622	0.95466
732.25931	0.95425
730.20240	0.95403
728.14550	0.95378
726.08859	0.95340
724.03168	0.95274
721.97477	0.95195
719.91786	0.95174
717.86096	0.95183
715.80405	0.95169
713.74714	0.95149
711.69023	0.95112
709.63332	0.95067
707.57641	0.95047
705.51951	0.94986
703.46260	0.94881
701.40569	0.94868
699.34878	0.94937
697.29187	0.94927
695.23497	0.94828
693.17806	0.94718
691.12115	0.94613
689.06424	0.94578
687.00733	0.94619
684.95042	0.94621
682.89352	0.94559
680.83661	0.94520
678.77970	0.94548
676.72279	0.94608
674.66588	0.94632
672.60898	0.94615
670.55207	0.94626
668.49516	0.94654
666.43825	0.94657
664.38134	0.94642
662.32443	0.94602
660.26753	0.94582
658.21062	0.94579
656.15371	0.94539
654.09680	0.94432
652.03989	0.94245
649.98299	0.94048
647.92608	0.93937
645.86917	0.93862
643.81226	0.93762
641.75535	0.93682
639.69844	0.93623
637.64154	0.93555
635.58463	0.93481
633.52772	0.93395
631.47081	0.93312
629.41390	0.93218
627.35700	0.93065
625.30009	0.92938
623.24318	0.92871
621.18627	0.92818
619.12936	0.92745
617.07245	0.92586
615.01555	0.92324
612.95864	0.91946
610.90173	0.91459
608.84482	0.90984
606.78791	0.90617
604.73101	0.90285
602.67410	0.89948
600.61719	0.89764
598.56028	0.89867
596.50337	0.90186
594.44646	0.90565
592.38956	0.90927
590.33265	0.91253
588.27574	0.91538
586.21883	0.91798
584.16192	0.92024
582.10502	0.92190
580.04811	0.92356
577.99120	0.92594
575.93429	0.92780
573.87738	0.92788
571.82047	0.92682
569.76357	0.92548
567.70666	0.92483
565.64975	0.92468
563.59284	0.92340
561.53593	0.92127
559.47903	0.91982
557.42212	0.91975
555.36521	0.92081
553.30830	0.92178
551.25139	0.92188
549.19448	0.92232
547.13758	0.92389
545.08067	0.92564
543.02376	0.92615
540.96685	0.92520
538.90994	0.92426
536.85304	0.92414
534.79613	0.92440
532.73922	0.92495
530.68231	0.92626
528.62540	0.92696
526.56849	0.92596
524.51159	0.92534
522.45468	0.92599
520.39777	0.92594
518.34086	0.92406
516.28395	0.92259
514.22705	0.92289
512.17014	0.92250
510.11323	0.92084
508.05632	0.92035
505.99941	0.92171
503.94250	0.92234
501.88560	0.92070
499.82869	0.91884
497.77178	0.91821
495.71487	0.91819
493.65796	0.91768
491.60106	0.91572
489.54415	0.91370
487.48724	0.91405
485.43033	0.91557
483.37342	0.91559
481.31651	0.91452
479.25961	0.91277
477.20270	0.91076
475.14579	0.91112
473.08888	0.91220
471.03197	0.91021
468.97507	0.90782
466.91816	0.90716
464.86125	0.90720
462.80434	0.90653
460.74743	0.90388
458.69052	0.90145
456.63362	0.90156
454.57671	0.90196
452.51980	0.90168
450.46289	0.90172
448.40598	0.90103
446.34908	0.89945
444.29217	0.89996
442.23526	0.90251
440.17835	0.90357
438.12144	0.90370
436.06453	0.90412
434.00763	0.90356
431.95072	0.90342
429.89381	0.90477
427.83690	0.90584
425.77999	0.90598
423.72309	0.90634
421.66618	0.90714
419.60927	0.90595
417.55236	0.90562
415.49545	0.90816
413.43854	0.91017
411.38164	0.91291
409.32473	0.91503
407.26782	0.91169
405.21091	0.90540
403.15400	0.90259
401.09710	0.90423
399.04019	0.90532
