3996.57260	0.97967
3994.51569	0.97993
3992.45878	0.97962
3990.40188	0.97947
3988.34497	0.98024
3986.28806	0.98061
3984.23115	0.98004
3982.17424	0.97940
3980.11733	0.97955
3978.06043	0.98046
3976.00352	0.98099
3973.94661	0.98114
3971.88970	0.98151
3969.83279	0.98142
3967.77589	0.98076
3965.71898	0.98040
3963.66207	0.98029
3961.60516	0.97996
3959.54825	0.97978
3957.49134	0.97988
3955.43444	0.97978
3953.37753	0.97991
3951.32062	0.98068
3949.26371	0.98128
3947.20680	0.98143
3945.14990	0.98157
3943.09299	0.98159
3941.03608	0.98126
3938.97917	0.98067
3936.92226	0.98008
3934.86535	0.97961
3932.80845	0.97968
3930.75154	0.98079
3928.69463	0.98184
3926.63772	0.98205
3924.58081	0.98139
3922.52391	0.98001
3920.46700	0.97929
3918.41009	0.97979
3916.35318	0.98028
3914.29627	0.98032
3912.23936	0.98045
3910.18246	0.98047
3908.12555	0.98023
3906.06864	0.98015
3904.01173	0.98042
3901.95482	0.98088
3899.89792	0.98128
3897.84101	0.98166
3895.78410	0.98151
3893.72719	0.98061
3891.67028	0.97994
3889.61337	0.98017
3887.55647	0.98053
3885.49956	0.98081
3883.44265	0.98148
3881.38574	0.98170
3879.32883	0.98076
3877.27193	0.97991
3875.21502	0.97995
3873.15811	0.98055
3871.10120	0.98099
3869.04429	0.98095
3866.98738	0.98121
3864.93048	0.98193
3862.87357	0.98197
3860.81666	0.98111
3858.75975	0.98035
3856.70284	0.98013
3854.64594	0.98060
3852.58903	0.98186
3850.53212	0.98255
3848.47521	0.98196
3846.41830	0.98097
3844.36139	0.98067
3842.30449	0.98106
3840.24758	0.98139
3838.19067	0.98161
3836.13376	0.98151
3834.07685	0.98078
3832.01995	0.98005
3829.96304	0.98012
3827.90613	0.98080
3825.84922	0.98154
3823.79231	0.98230
3821.73540	0.98281
3819.67850	0.98245
3817.62159	0.98203
3815.56468	0.98205
3813.50777	0.98156
3811.45086	0.98033
3809.39396	0.97990
3807.33705	0.98115
3805.28014	0.98240
3803.22323	0.98288
3801.16632	0.98282
3799.10941	0.98194
3797.05251	0.98152
3794.99560	0.98195
3792.93869	0.98190
3790.88178	0.98099
3788.82487	0.98009
3786.76796	0.97991
3784.71106	0.98057
3782.65415	0.98135
3780.59724	0.98149
3778.54033	0.98124
3776.48342	0.98143
3774.42652	0.98186
3772.36961	0.98174
3770.31270	0.98129
3768.25579	0.98129
3766.19888	0.98165
3764.14197	0.98164
3762.08507	0.98141
3760.02816	0.98157
3757.97125	0.98163
3755.91434	0.98119
3753.85743	0.98132
3751.80053	0.98253
3749.74362	0.98324
3747.68671	0.98278
3745.62980	0.98220
3743.57289	0.98154
3741.51598	0.98117
3739.45908	0.98115
3737.40217	0.98081
3735.34526	0.98055
3733.28835	0.98090
3731.23144	0.98043
3729.17454	0.97987
3727.11763	0.98028
3725.06072	0.98080
3723.00381	0.98071
3720.94690	0.98074
3718.88999	0.98130
3716.83309	0.98169
3714.77618	0.98203
3712.71927	0.98275
3710.66236	0.98289
3708.60545	0.98227
3706.54855	0.98186
3704.49164	0.98143
3702.43473	0.98111
3700.37782	0.98166
3698.32091	0.98206
3696.26400	0.98194
3694.20710	0.98201
3692.15019	0.98201
3690.09328	0.98157
3688.03637	0.98103
3685.97946	0.98088
3683.92256	0.98062
3681.86565	0.98058
3679.80874	0.98185
3677.75183	0.98352
3675.69492	0.98324
3673.63801	0.98192
3671.58111	0.98165
3669.52420	0.98129
3667.46729	0.98028
3665.41038	0.97975
3663.35347	0.98026
3661.29657	0.98137
3659.23966	0.98230
3657.18275	0.98267
3655.12584	0.98255
3653.06893	0.98220
3651.01202	0.98132
3648.95512	0.97990
3646.89821	0.97969
3644.84130	0.98077
3642.78439	0.98176
3640.72748	0.98195
3638.67058	0.98133
3636.61367	0.98066
3634.55676	0.98040
3632.49985	0.98053
3630.44294	0.98054
3628.38603	0.97976
3626.32913	0.97963
3624.27222	0.98050
3622.21531	0.98129
3620.15840	0.98168
3618.10149	0.98149
3616.04459	0.98059
3613.98768	0.97946
3611.93077	0.97866
3609.87386	0.97860
3607.81695	0.97912
3605.76004	0.97938
3603.70314	0.97930
3601.64623	0.97968
3599.58932	0.98041
3597.53241	0.98047
3595.47550	0.97980
3593.41860	0.97911
3591.36169	0.97931
3589.30478	0.98034
3587.24787	0.98065
3585.19096	0.97955
3583.13405	0.97893
3581.07715	0.97937
3579.02024	0.97959
3576.96333	0.97895
3574.90642	0.97834
3572.84951	0.97821
3570.79261	0.97808
3568.73570	0.97764
3566.67879	0.97684
3564.62188	0.97667
3562.56497	0.97728
3560.50806	0.97717
3558.45116	0.97636
3556.39425	0.97577
3554.33734	0.97556
3552.28043	0.97550
3550.22352	0.97540
3548.16662	0.97524
3546.10971	0.97520
3544.05280	0.97524
3541.99589	0.97484
3539.93898	0.97423
3537.88207	0.97427
3535.82517	0.97453
3533.76826	0.97434
3531.71135	0.97425
3529.65444	0.97383
3527.59753	0.97258
3525.54063	0.97184
3523.48372	0.97224
3521.42681	0.97282
3519.36990	0.97305
3517.31299	0.97290
3515.25608	0.97206
3513.19918	0.97128
3511.14227	0.97134
3509.08536	0.97138
3507.02845	0.97119
3504.97154	0.97129
3502.91464	0.97166
3500.85773	0.97200
3498.80082	0.97178
3496.74391	0.97118
3494.68700	0.97091
3492.63009	0.97086
3490.57319	0.97047
3488.51628	0.96981
3486.45937	0.96940
3484.40246	0.96934
3482.34555	0.96942
3480.28865	0.96966
3478.23174	0.97020
3476.17483	0.97051
3474.11792	0.97065
3472.06101	0.97109
3470.00410	0.97156
3467.94720	0.97165
3465.89029	0.97123
3463.83338	0.97079
3461.77647	0.97072
3459.71956	0.97089
3457.66266	0.97098
3455.60575	0.97087
3453.54884	0.97100
3451.49193	0.97129
3449.43502	0.97151
3447.37811	0.97159
3445.32121	0.97131
3443.26430	0.97113
3441.20739	0.97160
3439.15048	0.97254
3437.09357	0.97345
3435.03667	0.97371
3432.97976	0.97359
3430.92285	0.97406
3428.86594	0.97463
3426.80903	0.97438
3424.75212	0.97376
3422.69522	0.97323
3420.63831	0.97292
3418.58140	0.97337
3416.52449	0.97436
3414.46758	0.97529
3412.41068	0.97579
3410.35377	0.97577
3408.29686	0.97552
3406.23995	0.97526
3404.18304	0.97483
3402.12613	0.97429
3400.06923	0.97451
3398.01232	0.97532
3395.95541	0.97571
3393.89850	0.97598
3391.84159	0.97638
3389.78469	0.97619
3387.72778	0.97569
3385.67087	0.97572
3383.61396	0.97573
3381.55705	0.97562
3379.50014	0.97620
3377.44324	0.97655
3375.38633	0.97595
3373.32942	0.97574
3371.27251	0.97619
3369.21560	0.97631
3367.15870	0.97636
3365.10179	0.97666
3363.04488	0.97687
3360.98797	0.97696
3358.93106	0.97698
3356.87415	0.97714
3354.81725	0.97746
3352.76034	0.97777
3350.70343	0.97814
3348.64652	0.97835
3346.58961	0.97828
3344.53271	0.97789
3342.47580	0.97714
3340.41889	0.97656
3338.36198	0.97655
3336.30507	0.97694
3334.24816	0.97715
3332.19126	0.97709
3330.13435	0.97730
3328.07744	0.97774
3326.02053	0.97770
3323.96362	0.97717
3321.90672	0.97706
3319.84981	0.97770
3317.79290	0.97813
3315.73599	0.97775
3313.67908	0.97767
3311.62217	0.97839
3309.56527	0.97872
3307.50836	0.97830
3305.45145	0.97827
3303.39454	0.97909
3301.33763	0.97994
3299.28073	0.97988
3297.22382	0.97915
3295.16691	0.97869
3293.11000	0.97851
3291.05309	0.97830
3288.99618	0.97827
3286.93928	0.97839
3284.88237	0.97854
3282.82546	0.97900
3280.76855	0.97947
3278.71164	0.97942
3276.65474	0.97921
3274.59783	0.97915
3272.54092	0.97906
3270.48401	0.97874
3268.42710	0.97849
3266.37019	0.97853
3264.31329	0.97854
3262.25638	0.97859
3260.19947	0.97893
3258.14256	0.97905
3256.08565	0.97869
3254.02875	0.97844
3251.97184	0.97901
3249.91493	0.98007
3247.85802	0.98066
3245.80111	0.98036
3243.74420	0.97939
3241.68730	0.97869
3239.63039	0.97892
3237.57348	0.97939
3235.51657	0.97959
3233.45966	0.97979
3231.40276	0.97985
3229.34585	0.97988
3227.28894	0.97999
3225.23203	0.97976
3223.17512	0.97929
3221.11821	0.97905
3219.06131	0.97917
3217.00440	0.97911
3214.94749	0.97877
3212.89058	0.97881
3210.83367	0.97924
3208.77677	0.97972
3206.71986	0.98020
3204.66295	0.98034
3202.60604	0.98032
3200.54913	0.98064
3198.49222	0.98064
3196.43532	0.97997
3194.37841	0.97938
3192.32150	0.97896
3190.26459	0.97865
3188.20768	0.97924
3186.15078	0.98041
3184.09387	0.98086
3182.03696	0.98059
3179.98005	0.98034
3177.92314	0.98034
3175.86623	0.98055
3173.80933	0.98089
3171.75242	0.98078
3169.69551	0.98030
3167.63860	0.98041
3165.58169	0.98082
3163.52479	0.98068
3161.46788	0.98033
3159.41097	0.98012
3157.35406	0.97996
3155.29715	0.97999
3153.24024	0.98008
3151.18334	0.97994
3149.12643	0.97989
3147.06952	0.98049
3145.01261	0.98140
3142.95570	0.98158
3140.89880	0.98119
3138.84189	0.98139
3136.78498	0.98188
3134.72807	0.98162
3132.67116	0.98077
3130.61425	0.98018
3128.55735	0.98010
3126.50044	0.98002
3124.44353	0.98001
3122.38662	0.98007
3120.32971	0.98016
3118.27281	0.98052
3116.21590	0.98079
3114.15899	0.98092
3112.10208	0.98079
3110.04517	0.98032
3107.98826	0.98020
3105.93136	0.98062
3103.87445	0.98102
3101.81754	0.98116
3099.76063	0.98132
3097.70372	0.98145
3095.64682	0.98126
3093.58991	0.98090
3091.53300	0.98061
3089.47609	0.98049
3087.41918	0.98046
3085.36227	0.98027
3083.30537	0.98022
3081.24846	0.98063
3079.19155	0.98109
3077.13464	0.98127
3075.07773	0.98101
3073.02083	0.98041
3070.96392	0.98011
3068.90701	0.98014
3066.85010	0.97992
3064.79319	0.97956
3062.73628	0.97933
3060.67938	0.97921
3058.62247	0.97947
3056.56556	0.98005
3054.50865	0.98051
3052.45174	0.98063
3050.39484	0.98051
3048.33793	0.98042
3046.28102	0.98048
3044.22411	0.98063
3042.16720	0.98082
3040.11029	0.98075
3038.05339	0.98019
3035.99648	0.97967
3033.93957	0.97959
3031.88266	0.97967
3029.82575	0.97962
3027.76885	0.97944
3025.71194	0.97920
3023.65503	0.97894
3021.59812	0.97896
3019.54121	0.97926
3017.48430	0.97932
3015.42740	0.97891
3013.37049	0.97839
3011.31358	0.97824
3009.25667	0.97854
3007.19976	0.97880
3005.14286	0.97864
3003.08595	0.97853
3001.02904	0.97864
2998.97213	0.97838
2996.91522	0.97802
2994.85831	0.97811
2992.80141	0.97849
2990.74450	0.97851
2988.68759	0.97804
2986.63068	0.97747
2984.57377	0.97698
2982.51687	0.97678
2980.45996	0.97701
2978.40305	0.97730
2976.34614	0.97702
2974.28923	0.97629
2972.23232	0.97607
2970.17542	0.97637
2968.11851	0.97599
2966.06160	0.97523
2964.00469	0.97507
2961.94778	0.97487
2959.89088	0.97430
2957.83397	0.97397
2955.77706	0.97410
2953.72015	0.97421
2951.66324	0.97393
2949.60633	0.97354
2947.54943	0.97344
2945.49252	0.97356
2943.43561	0.97355
2941.37870	0.97353
2939.32179	0.97392
2937.26489	0.97455
2935.20798	0.97490
2933.15107	0.97470
2931.09416	0.97429
2929.03725	0.97438
2926.98034	0.97486
2924.92344	0.97499
2922.86653	0.97493
2920.80962	0.97527
2918.75271	0.97576
2916.69580	0.97602
2914.63890	0.97621
2912.58199	0.97626
2910.52508	0.97573
2908.46817	0.97513
2906.41126	0.97513
2904.35435	0.97514
2902.29745	0.97463
2900.24054	0.97408
2898.18363	0.97399
2896.12672	0.97404
2894.06981	0.97410
2892.01291	0.97421
2889.95600	0.97419
2887.89909	0.97424
2885.84218	0.97449
2883.78527	0.97472
2881.72836	0.97486
2879.67146	0.97510
2877.61455	0.97551
2875.55764	0.97553
2873.50073	0.97510
2871.44382	0.97500
2869.38692	0.97509
2867.33001	0.97514
2865.27310	0.97540
2863.21619	0.97546
2861.15928	0.97556
2859.10237	0.97626
2857.04547	0.97701
2854.98856	0.97726
2852.93165	0.97754
2850.87474	0.97800
2848.81783	0.97814
2846.76093	0.97811
2844.70402	0.97817
2842.64711	0.97838
2840.59020	0.97863
2838.53329	0.97888
2836.47638	0.97922
2834.41948	0.97942
2832.36257	0.97952
2830.30566	0.97960
2828.24875	0.97930
2826.19184	0.97887
2824.13494	0.97890
2822.07803	0.97918
2820.02112	0.97909
2817.96421	0.97866
2815.90730	0.97843
2813.85039	0.97861
2811.79349	0.97908
2809.73658	0.97949
2807.67967	0.97959
2805.62276	0.97960
2803.56585	0.97970
2801.50895	0.97968
2799.45204	0.97964
2797.39513	0.97980
2795.33822	0.98009
2793.28131	0.98040
2791.22440	0.98058
2789.16750	0.98055
2787.11059	0.98032
2785.05368	0.98033
2782.99677	0.98074
2780.93986	0.98087
2778.88296	0.98049
2776.82605	0.98006
2774.76914	0.98001
2772.71223	0.98022
2770.65532	0.98031
2768.59841	0.98031
2766.54151	0.98022
2764.48460	0.97995
2762.42769	0.97986
2760.37078	0.98011
2758.31387	0.98024
2756.25697	0.98010
2754.20006	0.98001
2752.14315	0.98031
2750.08624	0.98069
2748.02933	0.98057
2745.97242	0.98022
2743.91552	0.98009
2741.85861	0.98013
2739.80170	0.98013
2737.74479	0.98005
2735.68788	0.98008
2733.63098	0.98024
2731.57407	0.98022
2729.51716	0.98022
2727.46025	0.98051
2725.40334	0.98082
2723.34643	0.98105
2721.28953	0.98116
2719.23262	0.98098
2717.17571	0.98045
2715.11880	0.97991
2713.06189	0.97990
2711.00499	0.98024
2708.94808	0.98038
2706.89117	0.98040
2704.83426	0.98045
2702.77735	0.98042
2700.72044	0.98029
2698.66354	0.98038
2696.60663	0.98053
2694.54972	0.98044
2692.49281	0.98037
2690.43590	0.98050
2688.37900	0.98064
2686.32209	0.98070
2684.26518	0.98067
2682.20827	0.98054
2680.15136	0.98053
2678.09445	0.98064
2676.03755	0.98066
2673.98064	0.98063
2671.92373	0.98058
2669.86682	0.98062
2667.80991	0.98068
2665.75301	0.98056
2663.69610	0.98027
2661.63919	0.97995
2659.58228	0.97982
2657.52537	0.98000
2655.46846	0.98036
2653.41156	0.98074
2651.35465	0.98069
2649.29774	0.98022
2647.24083	0.98005
2645.18392	0.98018
2643.12702	0.98017
2641.07011	0.98018
2639.01320	0.98025
2636.95629	0.97995
2634.89938	0.97943
2632.84247	0.97926
2630.78557	0.97954
2628.72866	0.98004
2626.67175	0.98054
2624.61484	0.98096
2622.55793	0.98101
2620.50103	0.98069
2618.44412	0.98052
2616.38721	0.98076
2614.33030	0.98102
2612.27339	0.98098
2610.21648	0.98078
2608.15958	0.98057
2606.10267	0.98055
2604.04576	0.98092
2601.98885	0.98135
2599.93194	0.98161
2597.87504	0.98180
2595.81813	0.98198
2593.76122	0.98203
2591.70431	0.98211
2589.64740	0.98222
2587.59049	0.98198
2585.53359	0.98163
2583.47668	0.98135
2581.41977	0.98095
2579.36286	0.98073
2577.30595	0.98077
2575.24905	0.98086
2573.19214	0.98096
2571.13523	0.98103
2569.07832	0.98131
2567.02141	0.98193
2564.96450	0.98215
2562.90760	0.98181
2560.85069	0.98184
2558.79378	0.98260
2556.73687	0.98324
2554.67996	0.98312
2552.62306	0.98249
2550.56615	0.98200
2548.50924	0.98157
2546.45233	0.98085
2544.39542	0.98071
2542.33851	0.98129
2540.28161	0.98144
2538.22470	0.98138
2536.16779	0.98164
2534.11088	0.98155
2532.05397	0.98132
2529.99707	0.98140
2527.94016	0.98141
2525.88325	0.98144
2523.82634	0.98164
2521.76943	0.98153
2519.71252	0.98109
2517.65562	0.98116
2515.59871	0.98185
2513.54180	0.98228
2511.48489	0.98221
2509.42798	0.98230
2507.37108	0.98246
2505.31417	0.98207
2503.25726	0.98142
2501.20035	0.98134
2499.14344	0.98179
2497.08653	0.98201
2495.02963	0.98202
2492.97272	0.98224
2490.91581	0.98228
2488.85890	0.98197
2486.80199	0.98167
2484.74509	0.98173
2482.68818	0.98232
2480.63127	0.98293
2478.57436	0.98279
2476.51745	0.98222
2474.46054	0.98206
2472.40364	0.98236
2470.34673	0.98278
2468.28982	0.98287
2466.23291	0.98260
2464.17600	0.98257
2462.11910	0.98272
2460.06219	0.98249
2458.00528	0.98225
2455.94837	0.98243
2453.89146	0.98255
2451.83455	0.98243
2449.77765	0.98250
2447.72074	0.98250
2445.66383	0.98217
2443.60692	0.98174
2441.55001	0.98132
2439.49311	0.98118
2437.43620	0.98140
2435.37929	0.98178
2433.32238	0.98215
2431.26547	0.98229
2429.20856	0.98247
2427.15166	0.98259
2425.09475	0.98253
2423.03784	0.98286
2420.98093	0.98322
2418.92402	0.98284
2416.86712	0.98243
2414.81021	0.98230
2412.75330	0.98180
2410.69639	0.98123
2408.63948	0.98127
2406.58257	0.98197
2404.52567	0.98278
2402.46876	0.98297
2400.41185	0.98266
2398.35494	0.98263
2396.29803	0.98280
2394.24113	0.98325
2392.18422	0.98407
2390.12731	0.98422
2388.07040	0.98360
2386.01349	0.98288
2383.95658	0.98236
2381.89968	0.98218
2379.84277	0.98231
2377.78586	0.98268
2375.72895	0.98306
2373.67204	0.98331
2371.61514	0.98363
2369.55823	0.98400
2367.50132	0.98398
2365.44441	0.98364
2363.38750	0.98314
2361.33059	0.98285
2359.27369	0.98340
2357.21678	0.98354
2355.15987	0.98303
2353.10296	0.98279
2351.04605	0.98284
2348.98915	0.98300
2346.93224	0.98302
2344.87533	0.98299
2342.81842	0.98303
2340.76151	0.98274
2338.70460	0.98222
2336.64770	0.98181
2334.59079	0.98173
2332.53388	0.98223
2330.47697	0.98317
2328.42006	0.98311
2326.36316	0.98133
2324.30625	0.98012
2322.24934	0.98118
2320.19243	0.98260
2318.13552	0.98267
2316.07861	0.98254
2314.02171	0.98296
2311.96480	0.98282
2309.90789	0.98206
2307.85098	0.98192
2305.79407	0.98233
2303.73717	0.98257
2301.68026	0.98259
2299.62335	0.98245
2297.56644	0.98202
2295.50953	0.98135
2293.45262	0.98100
2291.39572	0.98116
2289.33881	0.98140
2287.28190	0.98167
2285.22499	0.98181
2283.16808	0.98112
2281.11117	0.98086
2279.05427	0.98184
2276.99736	0.98218
2274.94045	0.98193
2272.88354	0.98194
2270.82663	0.98165
2268.76973	0.98123
2266.71282	0.98104
2264.65591	0.98146
2262.59900	0.98288
2260.54209	0.98393
2258.48518	0.98287
2256.42828	0.98086
2254.37137	0.98069
2252.31446	0.98251
2250.25755	0.98401
2248.20064	0.98438
2246.14374	0.98466
2244.08683	0.98547
2242.02992	0.98532
2239.97301	0.98344
2237.91610	0.98220
2235.85919	0.98301
2233.80229	0.98446
2231.74538	0.98459
2229.68847	0.98386
2227.63156	0.98356
2225.57465	0.98243
2223.51775	0.98157
2221.46084	0.98337
2219.40393	0.98541
2217.34702	0.98541
2215.29011	0.98500
2213.23320	0.98531
2211.17630	0.98478
2209.11939	0.98242
2207.06248	0.98108
2205.00557	0.98221
2202.94866	0.98282
2200.89176	0.98245
2198.83485	0.98306
2196.77794	0.98405
2194.72103	0.98358
2192.66412	0.98241
2190.60721	0.98265
2188.55031	0.98368
2186.49340	0.98297
2184.43649	0.98068
2182.37958	0.98000
2180.32267	0.98116
2178.26577	0.98299
2176.20886	0.98490
2174.15195	0.98521
2172.09504	0.98442
2170.03813	0.98395
2167.98122	0.98410
2165.92432	0.98425
2163.86741	0.98328
2161.81050	0.98235
2159.75359	0.98392
2157.69668	0.98689
2155.63978	0.98780
2153.58287	0.98653
2151.52596	0.98557
2149.46905	0.98559
2147.41214	0.98579
2145.35523	0.98590
2143.29833	0.98620
2141.24142	0.98633
2139.18451	0.98547
2137.12760	0.98430
2135.07069	0.98310
2133.01379	0.98158
2130.95688	0.98133
2128.89997	0.98281
2126.84306	0.98383
2124.78615	0.98374
2122.72924	0.98350
2120.67234	0.98361
2118.61543	0.98428
2116.55852	0.98388
2114.50161	0.98233
2112.44470	0.98227
2110.38780	0.98314
2108.33089	0.98298
2106.27398	0.98264
2104.21707	0.98311
2102.16016	0.98383
2100.10325	0.98367
2098.04635	0.98250
2095.98944	0.98195
2093.93253	0.98293
2091.87562	0.98378
2089.81871	0.98349
2087.76181	0.98299
2085.70490	0.98260
2083.64799	0.98240
2081.59108	0.98269
2079.53417	0.98330
2077.47726	0.98370
2075.42036	0.98313
2073.36345	0.98275
2071.30654	0.98375
2069.24963	0.98474
2067.19272	0.98470
2065.13582	0.98437
2063.07891	0.98461
2061.02200	0.98455
2058.96509	0.98367
2056.90818	0.98364
2054.85127	0.98493
2052.79437	0.98605
2050.73746	0.98598
2048.68055	0.98568
2046.62364	0.98573
2044.56673	0.98585
2042.50983	0.98615
2040.45292	0.98513
2038.39601	0.98212
2036.33910	0.97981
2034.28219	0.98023
2032.22528	0.98105
2030.16838	0.98126
2028.11147	0.98228
2026.05456	0.98402
2023.99765	0.98535
2021.94074	0.98535
2019.88384	0.98494
2017.82693	0.98425
2015.77002	0.98361
2013.71311	0.98349
2011.65620	0.98322
2009.59929	0.98357
2007.54239	0.98482
2005.48548	0.98604
2003.42857	0.98527
2001.37166	0.98365
1999.31475	0.98405
1997.25785	0.98581
1995.20094	0.98683
1993.14403	0.98542
1991.08712	0.98251
1989.03021	0.98047
1986.97330	0.98049
1984.91640	0.98237
1982.85949	0.98369
1980.80258	0.98355
1978.74567	0.98449
1976.68876	0.98720
1974.63186	0.98902
1972.57495	0.98897
1970.51804	0.98722
1968.46113	0.98524
1966.40422	0.98523
1964.34731	0.98607
1962.29041	0.98601
1960.23350	0.98563
1958.17659	0.98635
1956.11968	0.98777
1954.06277	0.98793
1952.00587	0.98719
1949.94896	0.98690
1947.89205	0.98647
1945.83514	0.98556
1943.77823	0.98505
1941.72132	0.98520
1939.66442	0.98560
1937.60751	0.98548
1935.55060	0.98487
1933.49369	0.98454
1931.43678	0.98459
1929.37988	0.98541
1927.32297	0.98656
1925.26606	0.98667
1923.20915	0.98586
1921.15224	0.98538
1919.09533	0.98543
1917.03843	0.98548
1914.98152	0.98546
1912.92461	0.98524
1910.86770	0.98525
1908.81079	0.98583
1906.75389	0.98609
1904.69698	0.98593
1902.64007	0.98625
1900.58316	0.98667
1898.52625	0.98654
1896.46934	0.98662
1894.41244	0.98728
1892.35553	0.98745
1890.29862	0.98688
1888.24171	0.98680
1886.18480	0.98709
1884.12790	0.98675
1882.07099	0.98643
1880.01408	0.98711
1877.95717	0.98797
1875.90026	0.98796
1873.84335	0.98730
1871.78645	0.98654
1869.72954	0.98605
1867.67263	0.98614
1865.61572	0.98658
1863.55881	0.98692
1861.50191	0.98691
1859.44500	0.98653
1857.38809	0.98625
1855.33118	0.98648
1853.27427	0.98739
1851.21736	0.98836
1849.16046	0.98833
1847.10355	0.98759
1845.04664	0.98702
1842.98973	0.98694
1840.93282	0.98731
1838.87592	0.98741
1836.81901	0.98665
1834.76210	0.98609
1832.70519	0.98631
1830.64828	0.98650
1828.59137	0.98665
1826.53447	0.98704
1824.47756	0.98723
1822.42065	0.98706
1820.36374	0.98678
1818.30683	0.98667
1816.24993	0.98677
1814.19302	0.98670
1812.13611	0.98659
1810.07920	0.98661
1808.02229	0.98687
1805.96538	0.98722
1803.90848	0.98727
1801.85157	0.98679
1799.79466	0.98600
1797.73775	0.98565
1795.68084	0.98558
1793.62394	0.98501
1791.56703	0.98410
1789.51012	0.98333
1787.45321	0.98247
1785.39630	0.98180
1783.33939	0.98121
1781.28249	0.98009
1779.22558	0.97815
1777.16867	0.97572
1775.11176	0.97292
1773.05485	0.96882
1770.99795	0.96292
1768.94104	0.95632
1766.88413	0.94899
1764.82722	0.94090
1762.77031	0.93077
1760.71340	0.91882
1758.65650	0.90846
1756.59959	0.89882
1754.54268	0.89019
1752.48577	0.88302
1750.42886	0.87531
1748.37196	0.86756
1746.31505	0.86144
1744.25814	0.85654
1742.20123	0.85229
1740.14432	0.84840
1738.08741	0.84610
1736.03051	0.84586
1733.97360	0.84612
1731.91669	0.84764
1729.85978	0.85134
1727.80287	0.85633
1725.74597	0.86201
1723.68906	0.86834
1721.63215	0.87480
1719.57524	0.88119
1717.51833	0.88846
1715.46142	0.89677
1713.40452	0.90477
1711.34761	0.91184
1709.29070	0.91791
1707.23379	0.92354
1705.17688	0.92924
1703.11998	0.93427
1701.06307	0.93900
1699.00616	0.94310
1696.94925	0.94550
1694.89234	0.94799
1692.83543	0.95088
1690.77853	0.95329
1688.72162	0.95486
1686.66471	0.95606
1684.60780	0.95773
1682.55089	0.95919
1680.49399	0.96012
1678.43708	0.96109
1676.38017	0.96222
1674.32326	0.96342
1672.26635	0.96458
1670.20944	0.96565
1668.15254	0.96626
1666.09563	0.96653
1664.03872	0.96683
1661.98181	0.96709
1659.92490	0.96693
1657.86800	0.96652
1655.81109	0.96644
1653.75418	0.96701
1651.69727	0.96741
1649.64036	0.96747
1647.58345	0.96751
1645.52655	0.96753
1643.46964	0.96791
1641.41273	0.96851
1639.35582	0.96904
1637.29891	0.96934
1635.24201	0.96952
1633.18510	0.96984
1631.12819	0.97025
1629.07128	0.97055
1627.01437	0.97068
1624.95746	0.97085
1622.90056	0.97125
1620.84365	0.97176
1618.78674	0.97215
1616.72983	0.97244
1614.67292	0.97280
1612.61602	0.97329
1610.55911	0.97371
1608.50220	0.97397
1606.44529	0.97430
1604.38838	0.97479
1602.33147	0.97515
1600.27457	0.97538
1598.21766	0.97572
1596.16075	0.97611
1594.10384	0.97645
1592.04693	0.97663
1589.99003	0.97662
1587.93312	0.97660
1585.87621	0.97664
1583.81930	0.97661
1581.76239	0.97656
1579.70548	0.97664
1577.64858	0.97683
1575.59167	0.97695
1573.53476	0.97720
1571.47785	0.97777
1569.42094	0.97809
1567.36404	0.97808
1565.30713	0.97834
1563.25022	0.97854
1561.19331	0.97855
1559.13640	0.97851
1557.07949	0.97829
1555.02259	0.97813
1552.96568	0.97806
1550.90877	0.97813
1548.85186	0.97846
1546.79495	0.97885
1544.73805	0.97891
1542.68114	0.97865
1540.62423	0.97872
1538.56732	0.97899
1536.51041	0.97906
1534.45350	0.97911
1532.39660	0.97928
1530.33969	0.97964
1528.28278	0.97984
1526.22587	0.97962
1524.16896	0.97949
1522.11206	0.97985
1520.05515	0.98040
1517.99824	0.98073
1515.94133	0.98061
1513.88442	0.98020
1511.82751	0.97995
1509.77061	0.98013
1507.71370	0.98062
1505.65679	0.98068
1503.59988	0.98043
1501.54297	0.98034
1499.48607	0.98026
1497.42916	0.98016
1495.37225	0.98014
1493.31534	0.98018
1491.25843	0.98042
1489.20152	0.98076
1487.14462	0.98077
1485.08771	0.98054
1483.03080	0.98019
1480.97389	0.97985
1478.91698	0.97974
1476.86008	0.97960
1474.80317	0.97923
1472.74626	0.97846
1470.68935	0.97740
1468.63244	0.97657
1466.57553	0.97563
1464.51863	0.97414
1462.46172	0.97279
1460.40481	0.97194
1458.34790	0.97081
1456.29099	0.96885
1454.23409	0.96753
1452.17718	0.96692
1450.12027	0.96627
1448.06336	0.96519
1446.00645	0.96368
1443.94954	0.96220
1441.89264	0.96095
1439.83573	0.96001
1437.77882	0.95908
1435.72191	0.95781
1433.66500	0.95687
1431.60810	0.95637
1429.55119	0.95645
1427.49428	0.95723
1425.43737	0.95822
1423.38046	0.95929
1421.32355	0.96053
1419.26665	0.96174
1417.20974	0.96280
1415.15283	0.96385
1413.09592	0.96471
1411.03901	0.96528
1408.98211	0.96583
1406.92520	0.96642
1404.86829	0.96673
1402.81138	0.96668
1400.75447	0.96655
1398.69756	0.96615
1396.64066	0.96504
1394.58375	0.96290
1392.52684	0.96003
1390.46993	0.95684
1388.41302	0.95272
1386.35612	0.94746
1384.29921	0.94202
1382.24230	0.93652
1380.18539	0.93080
1378.12848	0.92500
1376.07157	0.91903
1374.01467	0.91274
1371.95776	0.90716
1369.90085	0.90309
1367.84394	0.90070
1365.78703	0.90078
1363.73013	0.90400
1361.67322	0.91089
1359.61631	0.92030
1357.55940	0.93019
1355.50249	0.93919
1353.44558	0.94666
1351.38868	0.95241
1349.33177	0.95646
1347.27486	0.95934
1345.21795	0.96149
1343.16104	0.96293
1341.10414	0.96380
1339.04723	0.96433
1336.99032	0.96475
1334.93341	0.96520
1332.87650	0.96555
1330.81959	0.96585
1328.76269	0.96599
1326.70578	0.96589
1324.64887	0.96582
1322.59196	0.96570
1320.53505	0.96550
1318.47815	0.96557
1316.42124	0.96590
1314.36433	0.96619
1312.30742	0.96636
1310.25051	0.96667
1308.19360	0.96715
1306.13670	0.96741
1304.07979	0.96735
1302.02288	0.96716
1299.96597	0.96683
1297.90906	0.96640
1295.85216	0.96585
1293.79525	0.96501
1291.73834	0.96383
1289.68143	0.96258
1287.62452	0.96143
1285.56761	0.96005
1283.51071	0.95824
1281.45380	0.95606
1279.39689	0.95346
1277.33998	0.95050
1275.28307	0.94754
1273.22617	0.94434
1271.16926	0.94041
1269.11235	0.93596
1267.05544	0.93134
1264.99853	0.92662
1262.94162	0.92158
1260.88472	0.91595
1258.82781	0.90982
1256.77090	0.90351
1254.71399	0.89699
1252.65708	0.88993
1250.60018	0.88238
1248.54327	0.87485
1246.48636	0.86745
1244.42945	0.85974
1242.37254	0.85158
1240.31563	0.84340
1238.25873	0.83564
1236.20182	0.82858
1234.14491	0.82187
1232.08800	0.81529
1230.03109	0.80935
1227.97419	0.80453
1225.91728	0.80090
1223.86037	0.79818
1221.80346	0.79589
1219.74655	0.79386
1217.68964	0.79245
1215.63274	0.79215
1213.57583	0.79323
1211.51892	0.79574
1209.46201	0.79966
1207.40510	0.80549
1205.34820	0.81381
1203.29129	0.82423
1201.23438	0.83592
1199.17747	0.84840
1197.12056	0.86107
1195.06365	0.87290
1193.00675	0.88334
1190.94984	0.89221
1188.89293	0.89913
1186.83602	0.90422
1184.77911	0.90772
1182.72221	0.90967
1180.66530	0.91038
1178.60839	0.91030
1176.55148	0.90995
1174.49457	0.90947
1172.43766	0.90850
1170.38076	0.90711
1168.32385	0.90593
1166.26694	0.90538
1164.21003	0.90543
1162.15312	0.90572
1160.09622	0.90640
1158.03931	0.90782
1155.98240	0.90980
1153.92549	0.91209
1151.86858	0.91446
1149.81167	0.91669
1147.75477	0.91852
1145.69786	0.91971
1143.64095	0.92037
1141.58404	0.92078
1139.52713	0.92068
1137.47023	0.91977
1135.41332	0.91811
1133.35641	0.91618
1131.29950	0.91444
1129.24259	0.91267
1127.18568	0.91082
1125.12878	0.90945
1123.07187	0.90873
1121.01496	0.90817
1118.95805	0.90763
1116.90114	0.90742
1114.84424	0.90742
1112.78733	0.90753
1110.73042	0.90775
1108.67351	0.90733
1106.61660	0.90624
1104.55969	0.90522
1102.50279	0.90427
1100.44588	0.90284
1098.38897	0.90068
1096.33206	0.89812
1094.27515	0.89549
1092.21825	0.89239
1090.16134	0.88880
1088.10443	0.88514
1086.04752	0.88113
1083.99061	0.87678
1081.93370	0.87233
1079.87680	0.86770
1077.81989	0.86330
1075.76298	0.85923
1073.70607	0.85522
1071.64916	0.85142
1069.59226	0.84776
1067.53535	0.84398
1065.47844	0.84030
1063.42153	0.83681
1061.36462	0.83306
1059.30771	0.82863
1057.25081	0.82354
1055.19390	0.81834
1053.13699	0.81344
1051.08008	0.80871
1049.02317	0.80394
1046.96627	0.79926
1044.90936	0.79485
1042.85245	0.79092
1040.79554	0.78717
1038.73863	0.78299
1036.68172	0.77880
1034.62482	0.77549
1032.56791	0.77309
1030.51100	0.77141
1028.45409	0.77102
1026.39718	0.77230
1024.34028	0.77471
1022.28337	0.77766
1020.22646	0.78134
1018.16955	0.78595
1016.11264	0.79076
1014.05573	0.79520
1011.99883	0.79982
1009.94192	0.80497
1007.88501	0.81018
1005.82810	0.81526
1003.77119	0.82040
1001.71429	0.82539
999.65738	0.83001
997.60047	0.83418
995.54356	0.83785
993.48665	0.84107
991.42974	0.84390
989.37284	0.84661
987.31593	0.84901
985.25902	0.85105
983.20211	0.85344
981.14520	0.85616
979.08830	0.85864
977.03139	0.86129
974.97448	0.86486
972.91757	0.86892
970.86066	0.87274
968.80375	0.87616
966.74685	0.87948
964.68994	0.88278
962.63303	0.88559
960.57612	0.88768
958.51921	0.88919
956.46231	0.89036
954.40540	0.89134
952.34849	0.89246
950.29158	0.89411
948.23467	0.89600
946.17776	0.89760
944.12086	0.89923
942.06395	0.90116
940.00704	0.90321
937.95013	0.90497
935.89322	0.90593
933.83632	0.90637
931.77941	0.90684
929.72250	0.90718
927.66559	0.90700
925.60868	0.90629
923.55177	0.90527
921.49487	0.90429
919.43796	0.90323
917.38105	0.90183
915.32414	0.90047
913.26723	0.89967
911.21033	0.89896
909.15342	0.89769
907.09651	0.89613
905.03960	0.89430
902.98269	0.89213
900.92578	0.89039
898.86888	0.88983
896.81197	0.89082
894.75506	0.89283
892.69815	0.89486
890.64124	0.89662
888.58434	0.89808
886.52743	0.89930
884.47052	0.90105
882.41361	0.90323
880.35670	0.90469
878.29979	0.90570
876.24289	0.90726
874.18598	0.90940
872.12907	0.91187
870.07216	0.91440
868.01525	0.91642
865.95835	0.91828
863.90144	0.92061
861.84453	0.92300
859.78762	0.92491
857.73071	0.92633
855.67380	0.92711
853.61690	0.92726
851.55999	0.92718
849.50308	0.92713
847.44617	0.92703
845.38926	0.92645
843.33236	0.92553
841.27545	0.92477
839.21854	0.92452
837.16163	0.92473
835.10472	0.92469
833.04781	0.92497
830.99091	0.92685
828.93400	0.92941
826.87709	0.93114
824.82018	0.93217
822.76327	0.93313
820.70637	0.93422
818.64946	0.93542
816.59255	0.93666
814.53564	0.93789
812.47873	0.93884
810.42182	0.93922
808.36492	0.93964
806.30801	0.94058
804.25110	0.94111
802.19419	0.94067
800.13728	0.94021
798.08038	0.94077
796.02347	0.94197
793.96656	0.94278
791.90965	0.94320
789.85274	0.94363
787.79583	0.94393
785.73893	0.94395
783.68202	0.94406
781.62511	0.94454
779.56820	0.94492
777.51129	0.94486
775.45439	0.94500
773.39748	0.94565
771.34057	0.94628
769.28366	0.94648
767.22675	0.94662
765.16984	0.94702
763.11294	0.94718
761.05603	0.94724
758.99912	0.94759
756.94221	0.94776
754.88530	0.94792
752.82839	0.94859
750.77149	0.94910
748.71458	0.94914
746.65767	0.94938
744.60076	0.94971
742.54385	0.94939
740.48695	0.94880
738.43004	0.94881
736.37313	0.94908
734.31622	0.94884
732.25931	0.94824
730.20240	0.94811
728.14550	0.94846
726.08859	0.94841
724.03168	0.94762
721.97477	0.94683
719.91786	0.94712
717.86096	0.94771
715.80405	0.94726
713.74714	0.94640
711.69023	0.94577
709.63332	0.94541
707.57641	0.94540
705.51951	0.94509
703.46260	0.94413
701.40569	0.94310
699.34878	0.94288
697.29187	0.94326
695.23497	0.94298
693.17806	0.94177
691.12115	0.94054
689.06424	0.94020
687.00733	0.94044
684.95042	0.94016
682.89352	0.93921
680.83661	0.93880
678.77970	0.93939
676.72279	0.93963
674.66588	0.93926
672.60898	0.93903
670.55207	0.93923
668.49516	0.93976
666.43825	0.94072
664.38134	0.94185
662.32443	0.94214
660.26753	0.94155
658.21062	0.94092
656.15371	0.94031
654.09680	0.93920
652.03989	0.93725
649.98299	0.93539
647.92608	0.93443
645.86917	0.93385
643.81226	0.93321
641.75535	0.93234
639.69844	0.93107
637.64154	0.92953
635.58463	0.92801
633.52772	0.92680
631.47081	0.92648
629.41390	0.92684
627.35700	0.92607
625.30009	0.92407
623.24318	0.92244
621.18627	0.92182
619.12936	0.92162
617.07245	0.92076
615.01555	0.91838
612.95864	0.91428
610.90173	0.90940
608.84482	0.90472
606.78791	0.90023
604.73101	0.89574
602.67410	0.89180
600.61719	0.88966
598.56028	0.89114
596.50337	0.89561
594.44646	0.89990
592.38956	0.90314
590.33265	0.90594
588.27574	0.90868
586.21883	0.91214
584.16192	0.91510
582.10502	0.91620
580.04811	0.91756
577.99120	0.91954
575.93429	0.92020
573.87738	0.92096
571.82047	0.92190
569.76357	0.92130
567.70666	0.92047
565.64975	0.91953
563.59284	0.91744
561.53593	0.91552
559.47903	0.91457
557.42212	0.91378
555.36521	0.91303
553.30830	0.91334
551.25139	0.91480
549.19448	0.91650
547.13758	0.91753
545.08067	0.91803
543.02376	0.91868
540.96685	0.91888
538.90994	0.91885
536.85304	0.91943
534.79613	0.92012
532.73922	0.92080
530.68231	0.92187
528.62540	0.92207
526.56849	0.92081
524.51159	0.91988
522.45468	0.91996
520.39777	0.91988
518.34086	0.91908
516.28395	0.91792
514.22705	0.91680
512.17014	0.91655
510.11323	0.91698
508.05632	0.91700
505.99941	0.91700
503.94250	0.91699
501.88560	0.91609
499.82869	0.91443
497.77178	0.91256
495.71487	0.91072
493.65796	0.90952
491.60106	0.90895
489.54415	0.90763
487.48724	0.90601
485.43033	0.90592
483.37342	0.90620
481.31651	0.90558
479.25961	0.90476
477.20270	0.90362
475.14579	0.90367
473.08888	0.90636
471.03197	0.90830
468.97507	0.90704
466.91816	0.90472
464.86125	0.90264
462.80434	0.90140
460.74743	0.89993
458.69052	0.89604
456.63362	0.89290
454.57671	0.89331
452.51980	0.89410
450.46289	0.89287
448.40598	0.89111
446.34908	0.89097
444.29217	0.89215
442.23526	0.89356
440.17835	0.89368
438.12144	0.89353
436.06453	0.89515
434.00763	0.89656
431.95072	0.89668
429.89381	0.89680
427.83690	0.89715
425.77999	0.89913
423.72309	0.90314
421.66618	0.90431
419.60927	0.89977
417.55236	0.89822
415.49545	0.90238
413.43854	0.90507
411.38164	0.90477
409.32473	0.90132
407.26782	0.89611
405.21091	0.89195
403.15400	0.89061
401.09710	0.89392
399.04019	0.89573
