3996.57260	0.99052
3994.51569	0.99077
3992.45878	0.99080
3990.40188	0.99038
3988.34497	0.99005
3986.28806	0.99007
3984.23115	0.99054
3982.17424	0.99112
3980.11733	0.99094
3978.06043	0.99011
3976.00352	0.98943
3973.94661	0.98951
3971.88970	0.99009
3969.83279	0.99036
3967.77589	0.99022
3965.71898	0.99008
3963.66207	0.98989
3961.60516	0.98962
3959.54825	0.98954
3957.49134	0.98953
3955.43444	0.98939
3953.37753	0.98931
3951.32062	0.98957
3949.26371	0.98972
3947.20680	0.98937
3945.14990	0.98916
3943.09299	0.98952
3941.03608	0.98985
3938.97917	0.98971
3936.92226	0.98956
3934.86535	0.98981
3932.80845	0.99018
3930.75154	0.99004
3928.69463	0.98963
3926.63772	0.98949
3924.58081	0.98943
3922.52391	0.98913
3920.46700	0.98900
3918.41009	0.98934
3916.35318	0.98970
3914.29627	0.98966
3912.23936	0.98950
3910.18246	0.98968
3908.12555	0.99034
3906.06864	0.99071
3904.01173	0.99003
3901.95482	0.98933
3899.89792	0.98975
3897.84101	0.99015
3895.78410	0.98968
3893.72719	0.98913
3891.67028	0.98898
3889.61337	0.98889
3887.55647	0.98891
3885.49956	0.98942
3883.44265	0.99016
3881.38574	0.99053
3879.32883	0.99054
3877.27193	0.99073
3875.21502	0.99105
3873.15811	0.99080
3871.10120	0.99034
3869.04429	0.99016
3866.98738	0.98992
3864.93048	0.98987
3862.87357	0.99014
3860.81666	0.99029
3858.75975	0.99025
3856.70284	0.99048
3854.64594	0.99120
3852.58903	0.99142
3850.53212	0.99052
3848.47521	0.98987
3846.41830	0.98998
3844.36139	0.99034
3842.30449	0.99024
3840.24758	0.98954
3838.19067	0.98883
3836.13376	0.98932
3834.07685	0.99024
3832.01995	0.99026
3829.96304	0.99013
3827.90613	0.99072
3825.84922	0.99091
3823.79231	0.98981
3821.73540	0.98847
3819.67850	0.98889
3817.62159	0.99043
3815.56468	0.99082
3813.50777	0.99026
3811.45086	0.98996
3809.39396	0.98988
3807.33705	0.98966
3805.28014	0.98916
3803.22323	0.98917
3801.16632	0.99004
3799.10941	0.99049
3797.05251	0.99049
3794.99560	0.99080
3792.93869	0.99057
3790.88178	0.98972
3788.82487	0.98953
3786.76796	0.99040
3784.71106	0.99123
3782.65415	0.99127
3780.59724	0.99078
3778.54033	0.99003
3776.48342	0.98945
3774.42652	0.98937
3772.36961	0.98966
3770.31270	0.98978
3768.25579	0.98944
3766.19888	0.98882
3764.14197	0.98832
3762.08507	0.98859
3760.02816	0.98969
3757.97125	0.99075
3755.91434	0.99110
3753.85743	0.99130
3751.80053	0.99159
3749.74362	0.99159
3747.68671	0.99133
3745.62980	0.99104
3743.57289	0.99041
3741.51598	0.98977
3739.45908	0.98967
3737.40217	0.98993
3735.34526	0.99020
3733.28835	0.99055
3731.23144	0.99099
3729.17454	0.99087
3727.11763	0.99026
3725.06072	0.98992
3723.00381	0.99030
3720.94690	0.99063
3718.88999	0.99029
3716.83309	0.98975
3714.77618	0.98927
3712.71927	0.98899
3710.66236	0.98934
3708.60545	0.99009
3706.54855	0.99051
3704.49164	0.99045
3702.43473	0.99048
3700.37782	0.99083
3698.32091	0.99071
3696.26400	0.99045
3694.20710	0.99108
3692.15019	0.99192
3690.09328	0.99163
3688.03637	0.99067
3685.97946	0.99052
3683.92256	0.99071
3681.86565	0.99068
3679.80874	0.99046
3677.75183	0.99039
3675.69492	0.99098
3673.63801	0.99136
3671.58111	0.99057
3669.52420	0.98927
3667.46729	0.98919
3665.41038	0.99021
3663.35347	0.99086
3661.29657	0.99056
3659.23966	0.98985
3657.18275	0.98923
3655.12584	0.98898
3653.06893	0.98958
3651.01202	0.99056
3648.95512	0.99076
3646.89821	0.99001
3644.84130	0.98943
3642.78439	0.98966
3640.72748	0.99050
3638.67058	0.99083
3636.61367	0.99033
3634.55676	0.99035
3632.49985	0.99108
3630.44294	0.99069
3628.38603	0.98891
3626.32913	0.98810
3624.27222	0.98823
3622.21531	0.98855
3620.15840	0.98897
3618.10149	0.98937
3616.04459	0.98954
3613.98768	0.98945
3611.93077	0.98951
3609.87386	0.98983
3607.81695	0.98983
3605.76004	0.98945
3603.70314	0.98928
3601.64623	0.98948
3599.58932	0.98950
3597.53241	0.98894
3595.47550	0.98862
3593.41860	0.98913
3591.36169	0.98955
3589.30478	0.98946
3587.24787	0.98931
3585.19096	0.98894
3583.13405	0.98851
3581.07715	0.98830
3579.02024	0.98779
3576.96333	0.98723
3574.90642	0.98756
3572.84951	0.98824
3570.79261	0.98815
3568.73570	0.98755
3566.67879	0.98698
3564.62188	0.98675
3562.56497	0.98689
3560.50806	0.98688
3558.45116	0.98661
3556.39425	0.98620
3554.33734	0.98584
3552.28043	0.98592
3550.22352	0.98621
3548.16662	0.98608
3546.10971	0.98567
3544.05280	0.98507
3541.99589	0.98426
3539.93898	0.98387
3537.88207	0.98398
3535.82517	0.98411
3533.76826	0.98423
3531.71135	0.98441
3529.65444	0.98433
3527.59753	0.98367
3525.54063	0.98308
3523.48372	0.98318
3521.42681	0.98323
3519.36990	0.98289
3517.31299	0.98264
3515.25608	0.98246
3513.19918	0.98215
3511.14227	0.98189
3509.08536	0.98176
3507.02845	0.98156
3504.97154	0.98113
3502.91464	0.98071
3500.85773	0.98080
3498.80082	0.98132
3496.74391	0.98147
3494.68700	0.98118
3492.63009	0.98099
3490.57319	0.98063
3488.51628	0.98007
3486.45937	0.97980
3484.40246	0.97966
3482.34555	0.97965
3480.28865	0.97996
3478.23174	0.98030
3476.17483	0.98071
3474.11792	0.98115
3472.06101	0.98099
3470.00410	0.98034
3467.94720	0.98031
3465.89029	0.98061
3463.83338	0.98014
3461.77647	0.97957
3459.71956	0.97991
3457.66266	0.98085
3455.60575	0.98168
3453.54884	0.98193
3451.49193	0.98183
3449.43502	0.98182
3447.37811	0.98206
3445.32121	0.98227
3443.26430	0.98215
3441.20739	0.98206
3439.15048	0.98216
3437.09357	0.98191
3435.03667	0.98114
3432.97976	0.98090
3430.92285	0.98149
3428.86594	0.98210
3426.80903	0.98274
3424.75212	0.98361
3422.69522	0.98385
3420.63831	0.98328
3418.58140	0.98338
3416.52449	0.98386
3414.46758	0.98330
3412.41068	0.98268
3410.35377	0.98273
3408.29686	0.98272
3406.23995	0.98293
3404.18304	0.98345
3402.12613	0.98374
3400.06923	0.98363
3398.01232	0.98325
3395.95541	0.98330
3393.89850	0.98402
3391.84159	0.98453
3389.78469	0.98443
3387.72778	0.98443
3385.67087	0.98472
3383.61396	0.98473
3381.55705	0.98476
3379.50014	0.98536
3377.44324	0.98582
3375.38633	0.98553
3373.32942	0.98490
3371.27251	0.98446
3369.21560	0.98477
3367.15870	0.98535
3365.10179	0.98548
3363.04488	0.98545
3360.98797	0.98554
3358.93106	0.98569
3356.87415	0.98563
3354.81725	0.98548
3352.76034	0.98561
3350.70343	0.98560
3348.64652	0.98532
3346.58961	0.98514
3344.53271	0.98532
3342.47580	0.98597
3340.41889	0.98637
3338.36198	0.98627
3336.30507	0.98639
3334.24816	0.98654
3332.19126	0.98628
3330.13435	0.98586
3328.07744	0.98575
3326.02053	0.98597
3323.96362	0.98618
3321.90672	0.98653
3319.84981	0.98715
3317.79290	0.98746
3315.73599	0.98731
3313.67908	0.98708
3311.62217	0.98701
3309.56527	0.98706
3307.50836	0.98688
3305.45145	0.98639
3303.39454	0.98610
3301.33763	0.98642
3299.28073	0.98706
3297.22382	0.98741
3295.16691	0.98727
3293.11000	0.98682
3291.05309	0.98663
3288.99618	0.98696
3286.93928	0.98751
3284.88237	0.98811
3282.82546	0.98840
3280.76855	0.98786
3278.71164	0.98701
3276.65474	0.98688
3274.59783	0.98749
3272.54092	0.98818
3270.48401	0.98857
3268.42710	0.98875
3266.37019	0.98854
3264.31329	0.98763
3262.25638	0.98692
3260.19947	0.98718
3258.14256	0.98782
3256.08565	0.98812
3254.02875	0.98808
3251.97184	0.98802
3249.91493	0.98816
3247.85802	0.98824
3245.80111	0.98776
3243.74420	0.98715
3241.68730	0.98691
3239.63039	0.98720
3237.57348	0.98793
3235.51657	0.98827
3233.45966	0.98824
3231.40276	0.98879
3229.34585	0.98921
3227.28894	0.98884
3225.23203	0.98850
3223.17512	0.98827
3221.11821	0.98786
3219.06131	0.98748
3217.00440	0.98748
3214.94749	0.98799
3212.89058	0.98864
3210.83367	0.98888
3208.77677	0.98874
3206.71986	0.98846
3204.66295	0.98824
3202.60604	0.98841
3200.54913	0.98870
3198.49222	0.98865
3196.43532	0.98864
3194.37841	0.98889
3192.32150	0.98896
3190.26459	0.98883
3188.20768	0.98855
3186.15078	0.98836
3184.09387	0.98858
3182.03696	0.98887
3179.98005	0.98908
3177.92314	0.98900
3175.86623	0.98832
3173.80933	0.98770
3171.75242	0.98790
3169.69551	0.98882
3167.63860	0.98932
3165.58169	0.98901
3163.52479	0.98888
3161.46788	0.98920
3159.41097	0.98910
3157.35406	0.98855
3155.29715	0.98828
3153.24024	0.98829
3151.18334	0.98840
3149.12643	0.98872
3147.06952	0.98884
3145.01261	0.98868
3142.95570	0.98897
3140.89880	0.98958
3138.84189	0.98961
3136.78498	0.98905
3134.72807	0.98867
3132.67116	0.98857
3130.61425	0.98854
3128.55735	0.98872
3126.50044	0.98889
3124.44353	0.98862
3122.38662	0.98811
3120.32971	0.98786
3118.27281	0.98798
3116.21590	0.98819
3114.15899	0.98847
3112.10208	0.98855
3110.04517	0.98837
3107.98826	0.98827
3105.93136	0.98826
3103.87445	0.98846
3101.81754	0.98897
3099.76063	0.98966
3097.70372	0.98997
3095.64682	0.98961
3093.58991	0.98907
3091.53300	0.98869
3089.47609	0.98858
3087.41918	0.98872
3085.36227	0.98880
3083.30537	0.98881
3081.24846	0.98901
3079.19155	0.98933
3077.13464	0.98941
3075.07773	0.98896
3073.02083	0.98837
3070.96392	0.98834
3068.90701	0.98863
3066.85010	0.98851
3064.79319	0.98829
3062.73628	0.98850
3060.67938	0.98868
3058.62247	0.98861
3056.56556	0.98859
3054.50865	0.98872
3052.45174	0.98883
3050.39484	0.98862
3048.33793	0.98834
3046.28102	0.98834
3044.22411	0.98838
3042.16720	0.98827
3040.11029	0.98810
3038.05339	0.98806
3035.99648	0.98818
3033.93957	0.98811
3031.88266	0.98790
3029.82575	0.98773
3027.76885	0.98745
3025.71194	0.98700
3023.65503	0.98651
3021.59812	0.98650
3019.54121	0.98704
3017.48430	0.98750
3015.42740	0.98763
3013.37049	0.98755
3011.31358	0.98745
3009.25667	0.98756
3007.19976	0.98761
3005.14286	0.98724
3003.08595	0.98678
3001.02904	0.98665
2998.97213	0.98662
2996.91522	0.98655
2994.85831	0.98658
2992.80141	0.98669
2990.74450	0.98674
2988.68759	0.98650
2986.63068	0.98623
2984.57377	0.98626
2982.51687	0.98627
2980.45996	0.98613
2978.40305	0.98607
2976.34614	0.98597
2974.28923	0.98568
2972.23232	0.98517
2970.17542	0.98483
2968.11851	0.98516
2966.06160	0.98545
2964.00469	0.98508
2961.94778	0.98473
2959.89088	0.98483
2957.83397	0.98488
2955.77706	0.98440
2953.72015	0.98378
2951.66324	0.98357
2949.60633	0.98379
2947.54943	0.98390
2945.49252	0.98360
2943.43561	0.98343
2941.37870	0.98341
2939.32179	0.98327
2937.26489	0.98349
2935.20798	0.98406
2933.15107	0.98414
2931.09416	0.98362
2929.03725	0.98337
2926.98034	0.98387
2924.92344	0.98451
2922.86653	0.98477
2920.80962	0.98499
2918.75271	0.98514
2916.69580	0.98491
2914.63890	0.98464
2912.58199	0.98464
2910.52508	0.98494
2908.46817	0.98518
2906.41126	0.98481
2904.35435	0.98423
2902.29745	0.98413
2900.24054	0.98432
2898.18363	0.98428
2896.12672	0.98411
2894.06981	0.98411
2892.01291	0.98414
2889.95600	0.98411
2887.89909	0.98415
2885.84218	0.98404
2883.78527	0.98373
2881.72836	0.98354
2879.67146	0.98374
2877.61455	0.98417
2875.55764	0.98437
2873.50073	0.98427
2871.44382	0.98404
2869.38692	0.98378
2867.33001	0.98392
2865.27310	0.98451
2863.21619	0.98496
2861.15928	0.98512
2859.10237	0.98529
2857.04547	0.98558
2854.98856	0.98584
2852.93165	0.98582
2850.87474	0.98582
2848.81783	0.98608
2846.76093	0.98640
2844.70402	0.98666
2842.64711	0.98692
2840.59020	0.98712
2838.53329	0.98727
2836.47638	0.98739
2834.41948	0.98742
2832.36257	0.98753
2830.30566	0.98768
2828.24875	0.98779
2826.19184	0.98794
2824.13494	0.98796
2822.07803	0.98787
2820.02112	0.98782
2817.96421	0.98784
2815.90730	0.98790
2813.85039	0.98773
2811.79349	0.98739
2809.73658	0.98740
2807.67967	0.98778
2805.62276	0.98816
2803.56585	0.98853
2801.50895	0.98873
2799.45204	0.98851
2797.39513	0.98833
2795.33822	0.98826
2793.28131	0.98809
2791.22440	0.98804
2789.16750	0.98805
2787.11059	0.98804
2785.05368	0.98807
2782.99677	0.98787
2780.93986	0.98785
2778.88296	0.98838
2776.82605	0.98877
2774.76914	0.98876
2772.71223	0.98880
2770.65532	0.98898
2768.59841	0.98885
2766.54151	0.98835
2764.48460	0.98794
2762.42769	0.98766
2760.37078	0.98752
2758.31387	0.98785
2756.25697	0.98836
2754.20006	0.98861
2752.14315	0.98872
2750.08624	0.98862
2748.02933	0.98837
2745.97242	0.98823
2743.91552	0.98812
2741.85861	0.98812
2739.80170	0.98814
2737.74479	0.98793
2735.68788	0.98770
2733.63098	0.98783
2731.57407	0.98808
2729.51716	0.98842
2727.46025	0.98873
2725.40334	0.98876
2723.34643	0.98880
2721.28953	0.98894
2719.23262	0.98904
2717.17571	0.98899
2715.11880	0.98874
2713.06189	0.98841
2711.00499	0.98829
2708.94808	0.98835
2706.89117	0.98830
2704.83426	0.98839
2702.77735	0.98866
2700.72044	0.98877
2698.66354	0.98857
2696.60663	0.98846
2694.54972	0.98875
2692.49281	0.98907
2690.43590	0.98903
2688.37900	0.98876
2686.32209	0.98853
2684.26518	0.98843
2682.20827	0.98847
2680.15136	0.98850
2678.09445	0.98856
2676.03755	0.98874
2673.98064	0.98888
2671.92373	0.98877
2669.86682	0.98845
2667.80991	0.98819
2665.75301	0.98822
2663.69610	0.98846
2661.63919	0.98846
2659.58228	0.98822
2657.52537	0.98820
2655.46846	0.98832
2653.41156	0.98829
2651.35465	0.98801
2649.29774	0.98772
2647.24083	0.98776
2645.18392	0.98790
2643.12702	0.98787
2641.07011	0.98804
2639.01320	0.98839
2636.95629	0.98831
2634.89938	0.98776
2632.84247	0.98742
2630.78557	0.98764
2628.72866	0.98801
2626.67175	0.98812
2624.61484	0.98803
2622.55793	0.98816
2620.50103	0.98851
2618.44412	0.98851
2616.38721	0.98816
2614.33030	0.98805
2612.27339	0.98807
2610.21648	0.98787
2608.15958	0.98763
2606.10267	0.98760
2604.04576	0.98794
2601.98885	0.98849
2599.93194	0.98881
2597.87504	0.98878
2595.81813	0.98850
2593.76122	0.98817
2591.70431	0.98822
2589.64740	0.98862
2587.59049	0.98895
2585.53359	0.98933
2583.47668	0.98984
2581.41977	0.99002
2579.36286	0.98969
2577.30595	0.98951
2575.24905	0.98986
2573.19214	0.99002
2571.13523	0.98989
2569.07832	0.98968
2567.02141	0.98909
2564.96450	0.98881
2562.90760	0.98951
2560.85069	0.99012
2558.79378	0.98963
2556.73687	0.98892
2554.67996	0.98897
2552.62306	0.98942
2550.56615	0.98968
2548.50924	0.98957
2546.45233	0.98901
2544.39542	0.98840
2542.33851	0.98845
2540.28161	0.98890
2538.22470	0.98941
2536.16779	0.98983
2534.11088	0.98996
2532.05397	0.98999
2529.99707	0.98990
2527.94016	0.98949
2525.88325	0.98884
2523.82634	0.98826
2521.76943	0.98808
2519.71252	0.98866
2517.65562	0.98993
2515.59871	0.99094
2513.54180	0.99095
2511.48489	0.99059
2509.42798	0.99068
2507.37108	0.99064
2505.31417	0.99019
2503.25726	0.98975
2501.20035	0.98928
2499.14344	0.98926
2497.08653	0.98973
2495.02963	0.99008
2492.97272	0.99042
2490.91581	0.99061
2488.85890	0.99055
2486.80199	0.99013
2484.74509	0.98929
2482.68818	0.98884
2480.63127	0.98895
2478.57436	0.98916
2476.51745	0.98962
2474.46054	0.99014
2472.40364	0.99017
2470.34673	0.98976
2468.28982	0.98942
2466.23291	0.98928
2464.17600	0.98930
2462.11910	0.98938
2460.06219	0.98987
2458.00528	0.99085
2455.94837	0.99100
2453.89146	0.99023
2451.83455	0.98976
2449.77765	0.98936
2447.72074	0.98899
2445.66383	0.98908
2443.60692	0.98943
2441.55001	0.98963
2439.49311	0.98969
2437.43620	0.98984
2435.37929	0.99024
2433.32238	0.99058
2431.26547	0.99057
2429.20856	0.99053
2427.15166	0.99033
2425.09475	0.99020
2423.03784	0.99052
2420.98093	0.99055
2418.92402	0.99019
2416.86712	0.98991
2414.81021	0.98977
2412.75330	0.98982
2410.69639	0.99015
2408.63948	0.99067
2406.58257	0.99074
2404.52567	0.98991
2402.46876	0.98914
2400.41185	0.98941
2398.35494	0.99012
2396.29803	0.99050
2394.24113	0.99058
2392.18422	0.99036
2390.12731	0.99007
2388.07040	0.99039
2386.01349	0.99127
2383.95658	0.99155
2381.89968	0.99074
2379.84277	0.99036
2377.78586	0.99102
2375.72895	0.99125
2373.67204	0.99071
2371.61514	0.99022
2369.55823	0.99015
2367.50132	0.98968
2365.44441	0.98851
2363.38750	0.98823
2361.33059	0.98906
2359.27369	0.99009
2357.21678	0.99090
2355.15987	0.99117
2353.10296	0.99109
2351.04605	0.99045
2348.98915	0.98959
2346.93224	0.98902
2344.87533	0.98857
2342.81842	0.98827
2340.76151	0.98826
2338.70460	0.98883
2336.64770	0.98927
2334.59079	0.98873
2332.53388	0.98823
2330.47697	0.98880
2328.42006	0.98955
2326.36316	0.98939
2324.30625	0.98913
2322.24934	0.98920
2320.19243	0.98895
2318.13552	0.98844
2316.07861	0.98846
2314.02171	0.98897
2311.96480	0.98871
2309.90789	0.98789
2307.85098	0.98807
2305.79407	0.98924
2303.73717	0.99019
2301.68026	0.99031
2299.62335	0.98977
2297.56644	0.98942
2295.50953	0.98922
2293.45262	0.98853
2291.39572	0.98819
2289.33881	0.98860
2287.28190	0.98897
2285.22499	0.98899
2283.16808	0.98874
2281.11117	0.98827
2279.05427	0.98771
2276.99736	0.98801
2274.94045	0.98954
2272.88354	0.99031
2270.82663	0.99013
2268.76973	0.99109
2266.71282	0.99216
2264.65591	0.99156
2262.59900	0.99028
2260.54209	0.98972
2258.48518	0.98962
2256.42828	0.98965
2254.37137	0.99027
2252.31446	0.99063
2250.25755	0.99013
2248.20064	0.98966
2246.14374	0.98932
2244.08683	0.98938
2242.02992	0.99001
2239.97301	0.99031
2237.91610	0.99003
2235.85919	0.98920
2233.80229	0.98773
2231.74538	0.98691
2229.68847	0.98796
2227.63156	0.98979
2225.57465	0.99039
2223.51775	0.99035
2221.46084	0.99114
2219.40393	0.99127
2217.34702	0.99027
2215.29011	0.99010
2213.23320	0.99092
2211.17630	0.99129
2209.11939	0.99088
2207.06248	0.98954
2205.00557	0.98803
2202.94866	0.98803
2200.89176	0.98878
2198.83485	0.98964
2196.77794	0.99104
2194.72103	0.99184
2192.66412	0.99200
2190.60721	0.99205
2188.55031	0.99091
2186.49340	0.98928
2184.43649	0.98892
2182.37958	0.98982
2180.32267	0.99141
2178.26577	0.99243
2176.20886	0.99145
2174.15195	0.98995
2172.09504	0.99034
2170.03813	0.99131
2167.98122	0.99063
2165.92432	0.98885
2163.86741	0.98848
2161.81050	0.98952
2159.75359	0.99057
2157.69668	0.99329
2155.63978	0.99653
2153.58287	0.99661
2151.52596	0.99440
2149.46905	0.99302
2147.41214	0.99219
2145.35523	0.99165
2143.29833	0.99225
2141.24142	0.99237
2139.18451	0.99189
2137.12760	0.99145
2135.07069	0.99015
2133.01379	0.98893
2130.95688	0.99028
2128.89997	0.99315
2126.84306	0.99352
2124.78615	0.99200
2122.72924	0.99166
2120.67234	0.99137
2118.61543	0.98995
2116.55852	0.98890
2114.50161	0.98869
2112.44470	0.98810
2110.38780	0.98730
2108.33089	0.98795
2106.27398	0.98944
2104.21707	0.99017
2102.16016	0.99015
2100.10325	0.98980
2098.04635	0.98964
2095.98944	0.99009
2093.93253	0.99068
2091.87562	0.99082
2089.81871	0.99090
2087.76181	0.99101
2085.70490	0.99119
2083.64799	0.99151
2081.59108	0.99079
2079.53417	0.98953
2077.47726	0.98995
2075.42036	0.99077
2073.36345	0.99040
2071.30654	0.99067
2069.24963	0.99137
2067.19272	0.99118
2065.13582	0.99122
2063.07891	0.99162
2061.02200	0.99132
2058.96509	0.99059
2056.90818	0.99009
2054.85127	0.98995
2052.79437	0.99000
2050.73746	0.99030
2048.68055	0.99090
2046.62364	0.99127
2044.56673	0.99107
2042.50983	0.99098
2040.45292	0.99129
2038.39601	0.99092
2036.33910	0.98955
2034.28219	0.98941
2032.22528	0.99174
2030.16838	0.99365
2028.11147	0.99340
2026.05456	0.99200
2023.99765	0.99024
2021.94074	0.98995
2019.88384	0.99257
2017.82693	0.99576
2015.77002	0.99545
2013.71311	0.99197
2011.65620	0.98951
2009.59929	0.99020
2007.54239	0.99196
2005.48548	0.99256
2003.42857	0.99202
2001.37166	0.99026
1999.31475	0.98807
1997.25785	0.98816
1995.20094	0.99071
1993.14403	0.99234
1991.08712	0.99187
1989.03021	0.99114
1986.97330	0.99115
1984.91640	0.99130
1982.85949	0.99111
1980.80258	0.99102
1978.74567	0.99212
1976.68876	0.99399
1974.63186	0.99390
1972.57495	0.99254
1970.51804	0.99185
1968.46113	0.99138
1966.40422	0.99084
1964.34731	0.99081
1962.29041	0.99149
1960.23350	0.99201
1958.17659	0.99201
1956.11968	0.99206
1954.06277	0.99207
1952.00587	0.99144
1949.94896	0.99095
1947.89205	0.99172
1945.83514	0.99244
1943.77823	0.99186
1941.72132	0.99160
1939.66442	0.99227
1937.60751	0.99252
1935.55060	0.99246
1933.49369	0.99242
1931.43678	0.99165
1929.37988	0.99066
1927.32297	0.99058
1925.26606	0.99132
1923.20915	0.99234
1921.15224	0.99302
1919.09533	0.99301
1917.03843	0.99262
1914.98152	0.99252
1912.92461	0.99285
1910.86770	0.99317
1908.81079	0.99302
1906.75389	0.99256
1904.69698	0.99255
1902.64007	0.99287
1900.58316	0.99273
1898.52625	0.99246
1896.46934	0.99272
1894.41244	0.99316
1892.35553	0.99325
1890.29862	0.99268
1888.24171	0.99174
1886.18480	0.99140
1884.12790	0.99158
1882.07099	0.99154
1880.01408	0.99164
1877.95717	0.99232
1875.90026	0.99278
1873.84335	0.99276
1871.78645	0.99274
1869.72954	0.99289
1867.67263	0.99331
1865.61572	0.99345
1863.55881	0.99284
1861.50191	0.99260
1859.44500	0.99345
1857.38809	0.99402
1855.33118	0.99342
1853.27427	0.99236
1851.21736	0.99133
1849.16046	0.99103
1847.10355	0.99172
1845.04664	0.99217
1842.98973	0.99207
1840.93282	0.99239
1838.87592	0.99255
1836.81901	0.99184
1834.76210	0.99113
1832.70519	0.99125
1830.64828	0.99185
1828.59137	0.99266
1826.53447	0.99345
1824.47756	0.99345
1822.42065	0.99270
1820.36374	0.99226
1818.30683	0.99253
1816.24993	0.99279
1814.19302	0.99219
1812.13611	0.99151
1810.07920	0.99158
1808.02229	0.99169
1805.96538	0.99148
1803.90848	0.99139
1801.85157	0.99136
1799.79466	0.99113
1797.73775	0.99074
1795.68084	0.99043
1793.62394	0.99023
1791.56703	0.98989
1789.51012	0.98954
1787.45321	0.98926
1785.39630	0.98874
1783.33939	0.98789
1781.28249	0.98703
1779.22558	0.98618
1777.16867	0.98488
1775.11176	0.98282
1773.05485	0.97985
1770.99795	0.97593
1768.94104	0.97168
1766.88413	0.96703
1764.82722	0.96193
1762.77031	0.95569
1760.71340	0.94821
1758.65650	0.94145
1756.59959	0.93493
1754.54268	0.92871
1752.48577	0.92322
1750.42886	0.91761
1748.37196	0.91235
1746.31505	0.90810
1744.25814	0.90439
1742.20123	0.90099
1740.14432	0.89840
1738.08741	0.89737
1736.03051	0.89726
1733.97360	0.89731
1731.91669	0.89880
1729.85978	0.90183
1727.80287	0.90522
1725.74597	0.90862
1723.68906	0.91270
1721.63215	0.91727
1719.57524	0.92192
1717.51833	0.92709
1715.46142	0.93249
1713.40452	0.93755
1711.34761	0.94230
1709.29070	0.94651
1707.23379	0.95042
1705.17688	0.95448
1703.11998	0.95789
1701.06307	0.96064
1699.00616	0.96335
1696.94925	0.96588
1694.89234	0.96837
1692.83543	0.97039
1690.77853	0.97190
1688.72162	0.97300
1686.66471	0.97367
1684.60780	0.97448
1682.55089	0.97586
1680.49399	0.97702
1678.43708	0.97761
1676.38017	0.97791
1674.32326	0.97851
1672.26635	0.97920
1670.20944	0.97945
1668.15254	0.97954
1666.09563	0.97982
1664.03872	0.98003
1661.98181	0.98029
1659.92490	0.98088
1657.86800	0.98144
1655.81109	0.98166
1653.75418	0.98148
1651.69727	0.98095
1649.64036	0.98085
1647.58345	0.98103
1645.52655	0.98115
1643.46964	0.98123
1641.41273	0.98148
1639.35582	0.98206
1637.29891	0.98281
1635.24201	0.98339
1633.18510	0.98359
1631.12819	0.98359
1629.07128	0.98351
1627.01437	0.98343
1624.95746	0.98359
1622.90056	0.98398
1620.84365	0.98418
1618.78674	0.98422
1616.72983	0.98450
1614.67292	0.98494
1612.61602	0.98531
1610.55911	0.98569
1608.50220	0.98585
1606.44529	0.98560
1604.38838	0.98554
1602.33147	0.98604
1600.27457	0.98660
1598.21766	0.98686
1596.16075	0.98701
1594.10384	0.98701
1592.04693	0.98679
1589.99003	0.98651
1587.93312	0.98639
1585.87621	0.98665
1583.81930	0.98702
1581.76239	0.98716
1579.70548	0.98700
1577.64858	0.98665
1575.59167	0.98655
1573.53476	0.98694
1571.47785	0.98743
1569.42094	0.98768
1567.36404	0.98768
1565.30713	0.98774
1563.25022	0.98778
1561.19331	0.98773
1559.13640	0.98767
1557.07949	0.98743
1555.02259	0.98746
1552.96568	0.98791
1550.90877	0.98833
1548.85186	0.98838
1546.79495	0.98824
1544.73805	0.98810
1542.68114	0.98795
1540.62423	0.98785
1538.56732	0.98794
1536.51041	0.98797
1534.45350	0.98794
1532.39660	0.98802
1530.33969	0.98817
1528.28278	0.98829
1526.22587	0.98838
1524.16896	0.98834
1522.11206	0.98824
1520.05515	0.98841
1517.99824	0.98837
1515.94133	0.98801
1513.88442	0.98795
1511.82751	0.98815
1509.77061	0.98813
1507.71370	0.98771
1505.65679	0.98748
1503.59988	0.98779
1501.54297	0.98815
1499.48607	0.98850
1497.42916	0.98863
1495.37225	0.98853
1493.31534	0.98850
1491.25843	0.98835
1489.20152	0.98784
1487.14462	0.98737
1485.08771	0.98745
1483.03080	0.98772
1480.97389	0.98753
1478.91698	0.98701
1476.86008	0.98680
1474.80317	0.98694
1472.74626	0.98652
1470.68935	0.98544
1468.63244	0.98457
1466.57553	0.98368
1464.51863	0.98254
1462.46172	0.98166
1460.40481	0.98118
1458.34790	0.98030
1456.29099	0.97887
1454.23409	0.97812
1452.17718	0.97758
1450.12027	0.97664
1448.06336	0.97546
1446.00645	0.97458
1443.94954	0.97399
1441.89264	0.97324
1439.83573	0.97243
1437.77882	0.97169
1435.72191	0.97080
1433.66500	0.97018
1431.60810	0.96981
1429.55119	0.96958
1427.49428	0.96998
1425.43737	0.97086
1423.38046	0.97173
1421.32355	0.97264
1419.26665	0.97349
1417.20974	0.97399
1415.15283	0.97446
1413.09592	0.97487
1411.03901	0.97501
1408.98211	0.97512
1406.92520	0.97533
1404.86829	0.97549
1402.81138	0.97558
1400.75447	0.97560
1398.69756	0.97532
1396.64066	0.97455
1394.58375	0.97309
1392.52684	0.97110
1390.46993	0.96894
1388.41302	0.96612
1386.35612	0.96227
1384.29921	0.95833
1382.24230	0.95465
1380.18539	0.95074
1378.12848	0.94661
1376.07157	0.94272
1374.01467	0.93879
1371.95776	0.93502
1369.90085	0.93228
1367.84394	0.93104
1365.78703	0.93185
1363.73013	0.93484
1361.67322	0.93995
1359.61631	0.94626
1357.55940	0.95264
1355.50249	0.95854
1353.44558	0.96359
1351.38868	0.96733
1349.33177	0.96980
1347.27486	0.97154
1345.21795	0.97279
1343.16104	0.97366
1341.10414	0.97446
1339.04723	0.97517
1336.99032	0.97547
1334.93341	0.97561
1332.87650	0.97582
1330.81959	0.97570
1328.76269	0.97519
1326.70578	0.97481
1324.64887	0.97476
1322.59196	0.97487
1320.53505	0.97496
1318.47815	0.97489
1316.42124	0.97502
1314.36433	0.97555
1312.30742	0.97592
1310.25051	0.97586
1308.19360	0.97576
1306.13670	0.97598
1304.07979	0.97639
1302.02288	0.97658
1299.96597	0.97644
1297.90906	0.97598
1295.85216	0.97517
1293.79525	0.97421
1291.73834	0.97330
1289.68143	0.97247
1287.62452	0.97155
1285.56761	0.97033
1283.51071	0.96892
1281.45380	0.96752
1279.39689	0.96599
1277.33998	0.96415
1275.28307	0.96206
1273.22617	0.95969
1271.16926	0.95698
1269.11235	0.95424
1267.05544	0.95154
1264.99853	0.94853
1262.94162	0.94503
1260.88472	0.94105
1258.82781	0.93684
1256.77090	0.93266
1254.71399	0.92836
1252.65708	0.92383
1250.60018	0.91919
1248.54327	0.91444
1246.48636	0.90937
1244.42945	0.90410
1242.37254	0.89892
1240.31563	0.89388
1238.25873	0.88885
1236.20182	0.88368
1234.14491	0.87849
1232.08800	0.87396
1230.03109	0.87025
1227.97419	0.86698
1225.91728	0.86409
1223.86037	0.86165
1221.80346	0.85968
1219.74655	0.85855
1217.68964	0.85827
1215.63274	0.85845
1213.57583	0.85946
1211.51892	0.86183
1209.46201	0.86570
1207.40510	0.87107
1205.34820	0.87764
1203.29129	0.88521
1201.23438	0.89372
1199.17747	0.90259
1197.12056	0.91111
1195.06365	0.91878
1193.00675	0.92545
1190.94984	0.93098
1188.89293	0.93504
1186.83602	0.93778
1184.77911	0.93962
1182.72221	0.94032
1180.66530	0.93989
1178.60839	0.93920
1176.55148	0.93863
1174.49457	0.93801
1172.43766	0.93704
1170.38076	0.93563
1168.32385	0.93427
1166.26694	0.93350
1164.21003	0.93337
1162.15312	0.93359
1160.09622	0.93414
1158.03931	0.93514
1155.98240	0.93631
1153.92549	0.93746
1151.86858	0.93873
1149.81167	0.94002
1147.75477	0.94113
1145.69786	0.94192
1143.64095	0.94221
1141.58404	0.94202
1139.52713	0.94144
1137.47023	0.94035
1135.41332	0.93887
1133.35641	0.93736
1131.29950	0.93590
1129.24259	0.93430
1127.18568	0.93275
1125.12878	0.93154
1123.07187	0.93054
1121.01496	0.92962
1118.95805	0.92895
1116.90114	0.92847
1114.84424	0.92812
1112.78733	0.92816
1110.73042	0.92826
1108.67351	0.92772
1106.61660	0.92690
1104.55969	0.92607
1102.50279	0.92501
1100.44588	0.92395
1098.38897	0.92281
1096.33206	0.92137
1094.27515	0.91955
1092.21825	0.91725
1090.16134	0.91445
1088.10443	0.91162
1086.04752	0.90895
1083.99061	0.90604
1081.93370	0.90312
1079.87680	0.90027
1077.81989	0.89718
1075.76298	0.89414
1073.70607	0.89146
1071.64916	0.88899
1069.59226	0.88655
1067.53535	0.88428
1065.47844	0.88213
1063.42153	0.87971
1061.36462	0.87709
1059.30771	0.87445
1057.25081	0.87168
1055.19390	0.86888
1053.13699	0.86598
1051.08008	0.86283
1049.02317	0.85956
1046.96627	0.85639
1044.90936	0.85345
1042.85245	0.85092
1040.79554	0.84866
1038.73863	0.84620
1036.68172	0.84356
1034.62482	0.84107
1032.56791	0.83909
1030.51100	0.83790
1028.45409	0.83746
1026.39718	0.83756
1024.34028	0.83853
1022.28337	0.84064
1020.22646	0.84343
1018.16955	0.84630
1016.11264	0.84914
1014.05573	0.85218
1011.99883	0.85554
1009.94192	0.85925
1007.88501	0.86321
1005.82810	0.86704
1003.77119	0.87062
1001.71429	0.87400
999.65738	0.87700
997.60047	0.87971
995.54356	0.88251
993.48665	0.88543
991.42974	0.88824
989.37284	0.89054
987.31593	0.89241
985.25902	0.89437
983.20211	0.89646
981.14520	0.89832
979.08830	0.90005
977.03139	0.90226
974.97448	0.90473
972.91757	0.90720
970.86066	0.91015
968.80375	0.91333
966.74685	0.91625
964.68994	0.91899
962.63303	0.92129
960.57612	0.92287
958.51921	0.92399
956.46231	0.92500
954.40540	0.92625
952.34849	0.92777
950.29158	0.92896
948.23467	0.92972
946.17776	0.93058
944.12086	0.93138
942.06395	0.93217
940.00704	0.93333
937.95013	0.93453
935.89322	0.93543
933.83632	0.93609
931.77941	0.93658
929.72250	0.93651
927.66559	0.93592
925.60868	0.93542
923.55177	0.93503
921.49487	0.93430
919.43796	0.93352
917.38105	0.93284
915.32414	0.93192
913.26723	0.93085
911.21033	0.92969
909.15342	0.92865
907.09651	0.92815
905.03960	0.92786
902.98269	0.92707
900.92578	0.92615
898.86888	0.92598
896.81197	0.92686
894.75506	0.92819
892.69815	0.92932
890.64124	0.93053
888.58434	0.93189
886.52743	0.93323
884.47052	0.93458
882.41361	0.93587
880.35670	0.93728
878.29979	0.93932
876.24289	0.94146
874.18598	0.94290
872.12907	0.94445
870.07216	0.94659
868.01525	0.94844
865.95835	0.94975
863.90144	0.95106
861.84453	0.95242
859.78762	0.95350
857.73071	0.95460
855.67380	0.95604
853.61690	0.95693
851.55999	0.95650
849.50308	0.95585
847.44617	0.95559
845.38926	0.95519
843.33236	0.95485
841.27545	0.95474
839.21854	0.95462
837.16163	0.95468
835.10472	0.95522
833.04781	0.95606
830.99091	0.95700
828.93400	0.95794
826.87709	0.95854
824.82018	0.95920
822.76327	0.96035
820.70637	0.96122
818.64946	0.96148
816.59255	0.96172
814.53564	0.96228
812.47873	0.96292
810.42182	0.96320
808.36492	0.96329
806.30801	0.96361
804.25110	0.96383
802.19419	0.96380
800.13728	0.96395
798.08038	0.96426
796.02347	0.96450
793.96656	0.96500
791.90965	0.96580
789.85274	0.96605
787.79583	0.96579
785.73893	0.96603
783.68202	0.96660
781.62511	0.96660
779.56820	0.96605
777.51129	0.96564
775.45439	0.96573
773.39748	0.96590
771.34057	0.96591
769.28366	0.96636
767.22675	0.96738
765.16984	0.96827
763.11294	0.96910
761.05603	0.96988
758.99912	0.97000
756.94221	0.96974
754.88530	0.96993
752.82839	0.97027
750.77149	0.97017
748.71458	0.96983
746.65767	0.96955
744.60076	0.96967
742.54385	0.97008
740.48695	0.97041
738.43004	0.97010
736.37313	0.96912
734.31622	0.96867
732.25931	0.96882
730.20240	0.96867
728.14550	0.96864
726.08859	0.96867
724.03168	0.96793
721.97477	0.96703
719.91786	0.96663
717.86096	0.96614
715.80405	0.96558
713.74714	0.96593
711.69023	0.96687
709.63332	0.96700
707.57641	0.96644
705.51951	0.96587
703.46260	0.96536
701.40569	0.96520
699.34878	0.96499
697.29187	0.96442
695.23497	0.96432
693.17806	0.96433
691.12115	0.96329
689.06424	0.96180
687.00733	0.96101
684.95042	0.96066
682.89352	0.96068
680.83661	0.96131
678.77970	0.96155
676.72279	0.96105
674.66588	0.96095
672.60898	0.96136
670.55207	0.96168
668.49516	0.96240
666.43825	0.96278
664.38134	0.96203
662.32443	0.96135
660.26753	0.96103
658.21062	0.96040
656.15371	0.95984
654.09680	0.96018
652.03989	0.96037
649.98299	0.95928
647.92608	0.95773
645.86917	0.95692
643.81226	0.95679
641.75535	0.95620
639.69844	0.95455
637.64154	0.95274
635.58463	0.95167
633.52772	0.95157
631.47081	0.95189
629.41390	0.95185
627.35700	0.95170
625.30009	0.95159
623.24318	0.95100
621.18627	0.94981
619.12936	0.94835
617.07245	0.94687
615.01555	0.94480
612.95864	0.94177
610.90173	0.93805
608.84482	0.93397
606.78791	0.93008
604.73101	0.92722
602.67410	0.92617
600.61719	0.92673
598.56028	0.92820
596.50337	0.93042
594.44646	0.93337
592.38956	0.93671
590.33265	0.93979
588.27574	0.94225
586.21883	0.94438
584.16192	0.94584
582.10502	0.94649
580.04811	0.94752
577.99120	0.94874
575.93429	0.94878
573.87738	0.94781
571.82047	0.94672
569.76357	0.94611
567.70666	0.94560
565.64975	0.94499
563.59284	0.94444
561.53593	0.94391
559.47903	0.94424
557.42212	0.94488
555.36521	0.94452
553.30830	0.94411
551.25139	0.94482
549.19448	0.94587
547.13758	0.94620
545.08067	0.94654
543.02376	0.94747
540.96685	0.94802
538.90994	0.94727
536.85304	0.94593
534.79613	0.94498
532.73922	0.94475
530.68231	0.94517
528.62540	0.94495
526.56849	0.94405
524.51159	0.94407
522.45468	0.94492
520.39777	0.94526
518.34086	0.94459
516.28395	0.94305
514.22705	0.94147
512.17014	0.94094
510.11323	0.94004
508.05632	0.93757
505.99941	0.93542
503.94250	0.93557
501.88560	0.93690
499.82869	0.93697
497.77178	0.93604
495.71487	0.93434
493.65796	0.93151
491.60106	0.92916
489.54415	0.92868
487.48724	0.92877
485.43033	0.92800
483.37342	0.92714
481.31651	0.92784
479.25961	0.92966
477.20270	0.92926
475.14579	0.92663
473.08888	0.92556
471.03197	0.92645
468.97507	0.92640
466.91816	0.92569
464.86125	0.92555
462.80434	0.92344
460.74743	0.91984
458.69052	0.91866
456.63362	0.91800
454.57671	0.91600
452.51980	0.91637
450.46289	0.91893
448.40598	0.91926
446.34908	0.91769
444.29217	0.91791
442.23526	0.91766
440.17835	0.91410
438.12144	0.91196
436.06453	0.91453
434.00763	0.91815
431.95072	0.91772
429.89381	0.91482
427.83690	0.91578
425.77999	0.92141
423.72309	0.92511
421.66618	0.92438
419.60927	0.92200
417.55236	0.91982
415.49545	0.91957
413.43854	0.91805
411.38164	0.91618
409.32473	0.91914
407.26782	0.92243
405.21091	0.92173
403.15400	0.92171
401.09710	0.92157
399.04019	0.91577
