3996.57260	0.97836
3994.51569	0.97855
3992.45878	0.97891
3990.40188	0.97837
3988.34497	0.97720
3986.28806	0.97721
3984.23115	0.97859
3982.17424	0.97933
3980.11733	0.97893
3978.06043	0.97847
3976.00352	0.97877
3973.94661	0.97949
3971.88970	0.97960
3969.83279	0.97901
3967.77589	0.97840
3965.71898	0.97800
3963.66207	0.97766
3961.60516	0.97788
3959.54825	0.97854
3957.49134	0.97850
3955.43444	0.97832
3953.37753	0.97897
3951.32062	0.97965
3949.26371	0.97976
3947.20680	0.97941
3945.14990	0.97890
3943.09299	0.97878
3941.03608	0.97915
3938.97917	0.97917
3936.92226	0.97840
3934.86535	0.97784
3932.80845	0.97832
3930.75154	0.97903
3928.69463	0.97928
3926.63772	0.97921
3924.58081	0.97879
3922.52391	0.97846
3920.46700	0.97844
3918.41009	0.97831
3916.35318	0.97816
3914.29627	0.97898
3912.23936	0.98035
3910.18246	0.98081
3908.12555	0.98035
3906.06864	0.97967
3904.01173	0.97883
3901.95482	0.97826
3899.89792	0.97840
3897.84101	0.97862
3895.78410	0.97870
3893.72719	0.97873
3891.67028	0.97863
3889.61337	0.97899
3887.55647	0.97960
3885.49956	0.97915
3883.44265	0.97817
3881.38574	0.97827
3879.32883	0.97901
3877.27193	0.97947
3875.21502	0.97952
3873.15811	0.97927
3871.10120	0.97897
3869.04429	0.97866
3866.98738	0.97852
3864.93048	0.97893
3862.87357	0.97962
3860.81666	0.97985
3858.75975	0.97990
3856.70284	0.98007
3854.64594	0.97975
3852.58903	0.97952
3850.53212	0.98031
3848.47521	0.98092
3846.41830	0.98097
3844.36139	0.98023
3842.30449	0.97854
3840.24758	0.97671
3838.19067	0.97645
3836.13376	0.97782
3834.07685	0.97879
3832.01995	0.97953
3829.96304	0.98047
3827.90613	0.98082
3825.84922	0.98078
3823.79231	0.98095
3821.73540	0.98068
3819.67850	0.97980
3817.62159	0.97908
3815.56468	0.97855
3813.50777	0.97836
3811.45086	0.97813
3809.39396	0.97798
3807.33705	0.97813
3805.28014	0.97797
3803.22323	0.97769
3801.16632	0.97792
3799.10941	0.97870
3797.05251	0.97946
3794.99560	0.97995
3792.93869	0.98033
3790.88178	0.98073
3788.82487	0.98136
3786.76796	0.98185
3784.71106	0.98157
3782.65415	0.98064
3780.59724	0.97974
3778.54033	0.97992
3776.48342	0.98080
3774.42652	0.98112
3772.36961	0.98082
3770.31270	0.98000
3768.25579	0.97918
3766.19888	0.97903
3764.14197	0.97938
3762.08507	0.97969
3760.02816	0.97918
3757.97125	0.97835
3755.91434	0.97815
3753.85743	0.97790
3751.80053	0.97745
3749.74362	0.97770
3747.68671	0.97846
3745.62980	0.97958
3743.57289	0.98054
3741.51598	0.98036
3739.45908	0.97984
3737.40217	0.97935
3735.34526	0.97968
3733.28835	0.98090
3731.23144	0.98039
3729.17454	0.97903
3727.11763	0.97902
3725.06072	0.97965
3723.00381	0.98006
3720.94690	0.98069
3718.88999	0.98121
3716.83309	0.98146
3714.77618	0.98140
3712.71927	0.98122
3710.66236	0.98107
3708.60545	0.98100
3706.54855	0.98129
3704.49164	0.98152
3702.43473	0.98152
3700.37782	0.98188
3698.32091	0.98232
3696.26400	0.98221
3694.20710	0.98163
3692.15019	0.98043
3690.09328	0.97878
3688.03637	0.97821
3685.97946	0.97934
3683.92256	0.98085
3681.86565	0.98138
3679.80874	0.98047
3677.75183	0.97920
3675.69492	0.97958
3673.63801	0.98159
3671.58111	0.98270
3669.52420	0.98236
3667.46729	0.98180
3665.41038	0.98170
3663.35347	0.98136
3661.29657	0.98086
3659.23966	0.98070
3657.18275	0.98133
3655.12584	0.98276
3653.06893	0.98313
3651.01202	0.98091
3648.95512	0.97772
3646.89821	0.97792
3644.84130	0.97937
3642.78439	0.97951
3640.72748	0.97930
3638.67058	0.98024
3636.61367	0.98154
3634.55676	0.98142
3632.49985	0.98030
3630.44294	0.97926
3628.38603	0.97840
3626.32913	0.97853
3624.27222	0.97878
3622.21531	0.97837
3620.15840	0.97782
3618.10149	0.97804
3616.04459	0.97902
3613.98768	0.97935
3611.93077	0.97849
3609.87386	0.97769
3607.81695	0.97792
3605.76004	0.97891
3603.70314	0.97940
3601.64623	0.97896
3599.58932	0.97803
3597.53241	0.97691
3595.47550	0.97604
3593.41860	0.97553
3591.36169	0.97503
3589.30478	0.97513
3587.24787	0.97594
3585.19096	0.97546
3583.13405	0.97451
3581.07715	0.97465
3579.02024	0.97444
3576.96333	0.97325
3574.90642	0.97247
3572.84951	0.97257
3570.79261	0.97249
3568.73570	0.97162
3566.67879	0.97099
3564.62188	0.97126
3562.56497	0.97150
3560.50806	0.97134
3558.45116	0.97094
3556.39425	0.97078
3554.33734	0.97011
3552.28043	0.96824
3550.22352	0.96717
3548.16662	0.96753
3546.10971	0.96751
3544.05280	0.96669
3541.99589	0.96588
3539.93898	0.96530
3537.88207	0.96493
3535.82517	0.96447
3533.76826	0.96397
3531.71135	0.96366
3529.65444	0.96293
3527.59753	0.96217
3525.54063	0.96215
3523.48372	0.96174
3521.42681	0.96050
3519.36990	0.95948
3517.31299	0.95900
3515.25608	0.95909
3513.19918	0.95949
3511.14227	0.95975
3509.08536	0.95949
3507.02845	0.95835
3504.97154	0.95695
3502.91464	0.95621
3500.85773	0.95601
3498.80082	0.95550
3496.74391	0.95445
3494.68700	0.95331
3492.63009	0.95203
3490.57319	0.95072
3488.51628	0.95007
3486.45937	0.94975
3484.40246	0.94950
3482.34555	0.94939
3480.28865	0.94862
3478.23174	0.94692
3476.17483	0.94510
3474.11792	0.94438
3472.06101	0.94461
3470.00410	0.94428
3467.94720	0.94335
3465.89029	0.94258
3463.83338	0.94192
3461.77647	0.94089
3459.71956	0.93958
3457.66266	0.93875
3455.60575	0.93840
3453.54884	0.93802
3451.49193	0.93753
3449.43502	0.93678
3447.37811	0.93576
3445.32121	0.93481
3443.26430	0.93385
3441.20739	0.93267
3439.15048	0.93163
3437.09357	0.93112
3435.03667	0.93073
3432.97976	0.93004
3430.92285	0.92902
3428.86594	0.92787
3426.80903	0.92719
3424.75212	0.92680
3422.69522	0.92603
3420.63831	0.92536
3418.58140	0.92482
3416.52449	0.92398
3414.46758	0.92339
3412.41068	0.92290
3410.35377	0.92150
3408.29686	0.92009
3406.23995	0.91973
3404.18304	0.91929
3402.12613	0.91858
3400.06923	0.91834
3398.01232	0.91789
3395.95541	0.91677
3393.89850	0.91570
3391.84159	0.91492
3389.78469	0.91416
3387.72778	0.91342
3385.67087	0.91293
3383.61396	0.91278
3381.55705	0.91255
3379.50014	0.91161
3377.44324	0.91007
3375.38633	0.90902
3373.32942	0.90874
3371.27251	0.90840
3369.21560	0.90788
3367.15870	0.90766
3365.10179	0.90747
3363.04488	0.90675
3360.98797	0.90546
3358.93106	0.90442
3356.87415	0.90365
3354.81725	0.90239
3352.76034	0.90122
3350.70343	0.90075
3348.64652	0.90043
3346.58961	0.89952
3344.53271	0.89822
3342.47580	0.89711
3340.41889	0.89631
3338.36198	0.89593
3336.30507	0.89578
3334.24816	0.89549
3332.19126	0.89536
3330.13435	0.89553
3328.07744	0.89533
3326.02053	0.89450
3323.96362	0.89390
3321.90672	0.89413
3319.84981	0.89465
3317.79290	0.89530
3315.73599	0.89601
3313.67908	0.89622
3311.62217	0.89603
3309.56527	0.89633
3307.50836	0.89736
3305.45145	0.89795
3303.39454	0.89785
3301.33763	0.89770
3299.28073	0.89726
3297.22382	0.89648
3295.16691	0.89647
3293.11000	0.89724
3291.05309	0.89753
3288.99618	0.89700
3286.93928	0.89622
3284.88237	0.89602
3282.82546	0.89649
3280.76855	0.89719
3278.71164	0.89778
3276.65474	0.89806
3274.59783	0.89836
3272.54092	0.89889
3270.48401	0.89920
3268.42710	0.89920
3266.37019	0.89923
3264.31329	0.89931
3262.25638	0.89991
3260.19947	0.90105
3258.14256	0.90223
3256.08565	0.90371
3254.02875	0.90533
3251.97184	0.90604
3249.91493	0.90608
3247.85802	0.90672
3245.80111	0.90781
3243.74420	0.90831
3241.68730	0.90865
3239.63039	0.90966
3237.57348	0.91083
3235.51657	0.91169
3233.45966	0.91267
3231.40276	0.91360
3229.34585	0.91396
3227.28894	0.91428
3225.23203	0.91493
3223.17512	0.91562
3221.11821	0.91622
3219.06131	0.91686
3217.00440	0.91780
3214.94749	0.91882
3212.89058	0.91969
3210.83367	0.92036
3208.77677	0.92070
3206.71986	0.92086
3204.66295	0.92108
3202.60604	0.92157
3200.54913	0.92262
3198.49222	0.92403
3196.43532	0.92495
3194.37841	0.92522
3192.32150	0.92560
3190.26459	0.92627
3188.20768	0.92663
3186.15078	0.92674
3184.09387	0.92745
3182.03696	0.92875
3179.98005	0.92959
3177.92314	0.92986
3175.86623	0.93027
3173.80933	0.93096
3171.75242	0.93203
3169.69551	0.93312
3167.63860	0.93373
3165.58169	0.93401
3163.52479	0.93423
3161.46788	0.93458
3159.41097	0.93487
3157.35406	0.93490
3155.29715	0.93529
3153.24024	0.93656
3151.18334	0.93780
3149.12643	0.93829
3147.06952	0.93866
3145.01261	0.93915
3142.95570	0.93908
3140.89880	0.93883
3138.84189	0.93917
3136.78498	0.93954
3134.72807	0.93998
3132.67116	0.94094
3130.61425	0.94196
3128.55735	0.94256
3126.50044	0.94256
3124.44353	0.94266
3122.38662	0.94355
3120.32971	0.94450
3118.27281	0.94491
3116.21590	0.94518
3114.15899	0.94563
3112.10208	0.94589
3110.04517	0.94582
3107.98826	0.94597
3105.93136	0.94662
3103.87445	0.94696
3101.81754	0.94669
3099.76063	0.94661
3097.70372	0.94704
3095.64682	0.94737
3093.58991	0.94745
3091.53300	0.94775
3089.47609	0.94836
3087.41918	0.94925
3085.36227	0.95016
3083.30537	0.95044
3081.24846	0.95032
3079.19155	0.95077
3077.13464	0.95149
3075.07773	0.95174
3073.02083	0.95195
3070.96392	0.95216
3068.90701	0.95198
3066.85010	0.95185
3064.79319	0.95218
3062.73628	0.95264
3060.67938	0.95300
3058.62247	0.95333
3056.56556	0.95364
3054.50865	0.95371
3052.45174	0.95346
3050.39484	0.95363
3048.33793	0.95438
3046.28102	0.95485
3044.22411	0.95496
3042.16720	0.95530
3040.11029	0.95566
3038.05339	0.95590
3035.99648	0.95625
3033.93957	0.95664
3031.88266	0.95718
3029.82575	0.95759
3027.76885	0.95739
3025.71194	0.95691
3023.65503	0.95696
3021.59812	0.95759
3019.54121	0.95825
3017.48430	0.95875
3015.42740	0.95884
3013.37049	0.95879
3011.31358	0.95927
3009.25667	0.95980
3007.19976	0.95972
3005.14286	0.95940
3003.08595	0.95923
3001.02904	0.95929
2998.97213	0.95922
2996.91522	0.95889
2994.85831	0.95908
2992.80141	0.95923
2990.74450	0.95886
2988.68759	0.95912
2986.63068	0.95975
2984.57377	0.95961
2982.51687	0.95923
2980.45996	0.95928
2978.40305	0.95908
2976.34614	0.95815
2974.28923	0.95739
2972.23232	0.95721
2970.17542	0.95696
2968.11851	0.95651
2966.06160	0.95641
2964.00469	0.95667
2961.94778	0.95681
2959.89088	0.95661
2957.83397	0.95634
2955.77706	0.95611
2953.72015	0.95557
2951.66324	0.95465
2949.60633	0.95378
2947.54943	0.95333
2945.49252	0.95289
2943.43561	0.95218
2941.37870	0.95162
2939.32179	0.95133
2937.26489	0.95094
2935.20798	0.95051
2933.15107	0.95027
2931.09416	0.94977
2929.03725	0.94910
2926.98034	0.94886
2924.92344	0.94840
2922.86653	0.94704
2920.80962	0.94569
2918.75271	0.94506
2916.69580	0.94450
2914.63890	0.94335
2912.58199	0.94180
2910.52508	0.94068
2908.46817	0.94032
2906.41126	0.94003
2904.35435	0.93926
2902.29745	0.93840
2900.24054	0.93782
2898.18363	0.93733
2896.12672	0.93680
2894.06981	0.93659
2892.01291	0.93675
2889.95600	0.93689
2887.89909	0.93701
2885.84218	0.93723
2883.78527	0.93752
2881.72836	0.93779
2879.67146	0.93821
2877.61455	0.93897
2875.55764	0.93946
2873.50073	0.93915
2871.44382	0.93881
2869.38692	0.93901
2867.33001	0.93919
2865.27310	0.93928
2863.21619	0.93975
2861.15928	0.94044
2859.10237	0.94091
2857.04547	0.94140
2854.98856	0.94222
2852.93165	0.94312
2850.87474	0.94396
2848.81783	0.94467
2846.76093	0.94510
2844.70402	0.94554
2842.64711	0.94632
2840.59020	0.94743
2838.53329	0.94855
2836.47638	0.94906
2834.41948	0.94901
2832.36257	0.94932
2830.30566	0.94993
2828.24875	0.95034
2826.19184	0.95096
2824.13494	0.95182
2822.07803	0.95252
2820.02112	0.95286
2817.96421	0.95285
2815.90730	0.95252
2813.85039	0.95226
2811.79349	0.95258
2809.73658	0.95290
2807.67967	0.95282
2805.62276	0.95291
2803.56585	0.95353
2801.50895	0.95424
2799.45204	0.95466
2797.39513	0.95490
2795.33822	0.95493
2793.28131	0.95496
2791.22440	0.95529
2789.16750	0.95559
2787.11059	0.95563
2785.05368	0.95553
2782.99677	0.95542
2780.93986	0.95540
2778.88296	0.95544
2776.82605	0.95557
2774.76914	0.95588
2772.71223	0.95615
2770.65532	0.95625
2768.59841	0.95637
2766.54151	0.95659
2764.48460	0.95667
2762.42769	0.95659
2760.37078	0.95656
2758.31387	0.95650
2756.25697	0.95638
2754.20006	0.95630
2752.14315	0.95635
2750.08624	0.95673
2748.02933	0.95724
2745.97242	0.95733
2743.91552	0.95691
2741.85861	0.95667
2739.80170	0.95685
2737.74479	0.95698
2735.68788	0.95695
2733.63098	0.95703
2731.57407	0.95725
2729.51716	0.95740
2727.46025	0.95734
2725.40334	0.95743
2723.34643	0.95799
2721.28953	0.95853
2719.23262	0.95823
2717.17571	0.95755
2715.11880	0.95720
2713.06189	0.95729
2711.00499	0.95789
2708.94808	0.95852
2706.89117	0.95850
2704.83426	0.95831
2702.77735	0.95853
2700.72044	0.95889
2698.66354	0.95910
2696.60663	0.95903
2694.54972	0.95886
2692.49281	0.95905
2690.43590	0.95943
2688.37900	0.95951
2686.32209	0.95936
2684.26518	0.95929
2682.20827	0.95934
2680.15136	0.95940
2678.09445	0.95956
2676.03755	0.95982
2673.98064	0.95991
2671.92373	0.95983
2669.86682	0.95986
2667.80991	0.96007
2665.75301	0.96018
2663.69610	0.95996
2661.63919	0.95956
2659.58228	0.95911
2657.52537	0.95897
2655.46846	0.95942
2653.41156	0.95990
2651.35465	0.96012
2649.29774	0.96012
2647.24083	0.95982
2645.18392	0.95986
2643.12702	0.96040
2641.07011	0.96077
2639.01320	0.96075
2636.95629	0.96075
2634.89938	0.96106
2632.84247	0.96123
2630.78557	0.96094
2628.72866	0.96076
2626.67175	0.96110
2624.61484	0.96146
2622.55793	0.96163
2620.50103	0.96177
2618.44412	0.96181
2616.38721	0.96190
2614.33030	0.96185
2612.27339	0.96152
2610.21648	0.96135
2608.15958	0.96158
2606.10267	0.96204
2604.04576	0.96249
2601.98885	0.96251
2599.93194	0.96160
2597.87504	0.96074
2595.81813	0.96115
2593.76122	0.96215
2591.70431	0.96282
2589.64740	0.96301
2587.59049	0.96260
2585.53359	0.96206
2583.47668	0.96226
2581.41977	0.96296
2579.36286	0.96297
2577.30595	0.96245
2575.24905	0.96243
2573.19214	0.96264
2571.13523	0.96272
2569.07832	0.96290
2567.02141	0.96315
2564.96450	0.96344
2562.90760	0.96393
2560.85069	0.96449
2558.79378	0.96461
2556.73687	0.96378
2554.67996	0.96269
2552.62306	0.96251
2550.56615	0.96270
2548.50924	0.96260
2546.45233	0.96300
2544.39542	0.96402
2542.33851	0.96447
2540.28161	0.96391
2538.22470	0.96335
2536.16779	0.96354
2534.11088	0.96408
2532.05397	0.96457
2529.99707	0.96487
2527.94016	0.96459
2525.88325	0.96385
2523.82634	0.96372
2521.76943	0.96450
2519.71252	0.96489
2517.65562	0.96455
2515.59871	0.96437
2513.54180	0.96440
2511.48489	0.96420
2509.42798	0.96373
2507.37108	0.96339
2505.31417	0.96340
2503.25726	0.96353
2501.20035	0.96359
2499.14344	0.96368
2497.08653	0.96377
2495.02963	0.96365
2492.97272	0.96361
2490.91581	0.96390
2488.85890	0.96383
2486.80199	0.96354
2484.74509	0.96375
2482.68818	0.96398
2480.63127	0.96398
2478.57436	0.96411
2476.51745	0.96420
2474.46054	0.96392
2472.40364	0.96384
2470.34673	0.96436
2468.28982	0.96485
2466.23291	0.96482
2464.17600	0.96435
2462.11910	0.96386
2460.06219	0.96415
2458.00528	0.96499
2455.94837	0.96534
2453.89146	0.96505
2451.83455	0.96457
2449.77765	0.96441
2447.72074	0.96433
2445.66383	0.96383
2443.60692	0.96345
2441.55001	0.96388
2439.49311	0.96458
2437.43620	0.96496
2435.37929	0.96530
2433.32238	0.96532
2431.26547	0.96502
2429.20856	0.96490
2427.15166	0.96487
2425.09475	0.96513
2423.03784	0.96572
2420.98093	0.96586
2418.92402	0.96533
2416.86712	0.96507
2414.81021	0.96538
2412.75330	0.96576
2410.69639	0.96612
2408.63948	0.96623
2406.58257	0.96594
2404.52567	0.96552
2402.46876	0.96545
2400.41185	0.96568
2398.35494	0.96561
2396.29803	0.96542
2394.24113	0.96562
2392.18422	0.96605
2390.12731	0.96632
2388.07040	0.96631
2386.01349	0.96643
2383.95658	0.96694
2381.89968	0.96762
2379.84277	0.96785
2377.78586	0.96740
2375.72895	0.96686
2373.67204	0.96637
2371.61514	0.96570
2369.55823	0.96482
2367.50132	0.96431
2365.44441	0.96562
2363.38750	0.96760
2361.33059	0.96783
2359.27369	0.96743
2357.21678	0.96701
2355.15987	0.96623
2353.10296	0.96591
2351.04605	0.96581
2348.98915	0.96590
2346.93224	0.96604
2344.87533	0.96624
2342.81842	0.96688
2340.76151	0.96665
2338.70460	0.96536
2336.64770	0.96471
2334.59079	0.96487
2332.53388	0.96515
2330.47697	0.96568
2328.42006	0.96577
2326.36316	0.96491
2324.30625	0.96418
2322.24934	0.96423
2320.19243	0.96474
2318.13552	0.96499
2316.07861	0.96505
2314.02171	0.96549
2311.96480	0.96592
2309.90789	0.96575
2307.85098	0.96550
2305.79407	0.96534
2303.73717	0.96513
2301.68026	0.96535
2299.62335	0.96601
2297.56644	0.96668
2295.50953	0.96700
2293.45262	0.96683
2291.39572	0.96617
2289.33881	0.96555
2287.28190	0.96551
2285.22499	0.96582
2283.16808	0.96609
2281.11117	0.96634
2279.05427	0.96636
2276.99736	0.96614
2274.94045	0.96651
2272.88354	0.96718
2270.82663	0.96707
2268.76973	0.96656
2266.71282	0.96629
2264.65591	0.96650
2262.59900	0.96697
2260.54209	0.96629
2258.48518	0.96540
2256.42828	0.96628
2254.37137	0.96794
2252.31446	0.96933
2250.25755	0.96990
2248.20064	0.96947
2246.14374	0.96851
2244.08683	0.96772
2242.02992	0.96740
2239.97301	0.96712
2237.91610	0.96716
2235.85919	0.96769
2233.80229	0.96792
2231.74538	0.96741
2229.68847	0.96660
2227.63156	0.96552
2225.57465	0.96519
2223.51775	0.96604
2221.46084	0.96649
2219.40393	0.96663
2217.34702	0.96667
2215.29011	0.96736
2213.23320	0.96965
2211.17630	0.97101
2209.11939	0.96991
2207.06248	0.96869
2205.00557	0.96876
2202.94866	0.96932
2200.89176	0.97017
2198.83485	0.97115
2196.77794	0.97131
2194.72103	0.97094
2192.66412	0.97049
2190.60721	0.96962
2188.55031	0.96880
2186.49340	0.96753
2184.43649	0.96553
2182.37958	0.96490
2180.32267	0.96640
2178.26577	0.96865
2176.20886	0.97043
2174.15195	0.97133
2172.09504	0.97087
2170.03813	0.96896
2167.98122	0.96734
2165.92432	0.96663
2163.86741	0.96574
2161.81050	0.96594
2159.75359	0.96905
2157.69668	0.97234
2155.63978	0.97278
2153.58287	0.97165
2151.52596	0.97045
2149.46905	0.96910
2147.41214	0.96841
2145.35523	0.96904
2143.29833	0.96955
2141.24142	0.96956
2139.18451	0.96995
2137.12760	0.97058
2135.07069	0.97111
2133.01379	0.97092
2130.95688	0.96966
2128.89997	0.96836
2126.84306	0.96767
2124.78615	0.96732
2122.72924	0.96776
2120.67234	0.96870
2118.61543	0.96877
2116.55852	0.96801
2114.50161	0.96738
2112.44470	0.96733
2110.38780	0.96762
2108.33089	0.96748
2106.27398	0.96721
2104.21707	0.96741
2102.16016	0.96778
2100.10325	0.96795
2098.04635	0.96804
2095.98944	0.96821
2093.93253	0.96814
2091.87562	0.96812
2089.81871	0.96822
2087.76181	0.96861
2085.70490	0.96947
2083.64799	0.96983
2081.59108	0.96918
2079.53417	0.96829
2077.47726	0.96862
2075.42036	0.97001
2073.36345	0.97091
2071.30654	0.97088
2069.24963	0.97035
2067.19272	0.97001
2065.13582	0.97031
2063.07891	0.97065
2061.02200	0.97024
2058.96509	0.96969
2056.90818	0.96963
2054.85127	0.96945
2052.79437	0.96940
2050.73746	0.97024
2048.68055	0.97132
2046.62364	0.97174
2044.56673	0.97137
2042.50983	0.97026
2040.45292	0.96950
2038.39601	0.96975
2036.33910	0.97046
2034.28219	0.97166
2032.22528	0.97235
2030.16838	0.97281
2028.11147	0.97467
2026.05456	0.97505
2023.99765	0.97265
2021.94074	0.97164
2019.88384	0.97331
2017.82693	0.97426
2015.77002	0.97260
2013.71311	0.97140
2011.65620	0.97166
2009.59929	0.97012
2007.54239	0.96831
2005.48548	0.96987
2003.42857	0.97231
2001.37166	0.97399
1999.31475	0.97526
1997.25785	0.97489
1995.20094	0.97349
1993.14403	0.97308
1991.08712	0.97307
1989.03021	0.97160
1986.97330	0.97031
1984.91640	0.97009
1982.85949	0.96954
1980.80258	0.96904
1978.74567	0.96978
1976.68876	0.97161
1974.63186	0.97301
1972.57495	0.97439
1970.51804	0.97655
1968.46113	0.97704
1966.40422	0.97472
1964.34731	0.97270
1962.29041	0.97182
1960.23350	0.97138
1958.17659	0.97210
1956.11968	0.97320
1954.06277	0.97353
1952.00587	0.97285
1949.94896	0.97216
1947.89205	0.97250
1945.83514	0.97333
1943.77823	0.97293
1941.72132	0.97093
1939.66442	0.97022
1937.60751	0.97133
1935.55060	0.97195
1933.49369	0.97111
1931.43678	0.97029
1929.37988	0.97117
1927.32297	0.97236
1925.26606	0.97193
1923.20915	0.97127
1921.15224	0.97200
1919.09533	0.97267
1917.03843	0.97156
1914.98152	0.97014
1912.92461	0.97042
1910.86770	0.97152
1908.81079	0.97160
1906.75389	0.97112
1904.69698	0.97126
1902.64007	0.97141
1900.58316	0.97136
1898.52625	0.97158
1896.46934	0.97148
1894.41244	0.97115
1892.35553	0.97119
1890.29862	0.97122
1888.24171	0.97099
1886.18480	0.97080
1884.12790	0.97089
1882.07099	0.97100
1880.01408	0.97133
1877.95717	0.97165
1875.90026	0.97135
1873.84335	0.97109
1871.78645	0.97105
1869.72954	0.97098
1867.67263	0.97143
1865.61572	0.97185
1863.55881	0.97118
1861.50191	0.97050
1859.44500	0.97083
1857.38809	0.97088
1855.33118	0.97020
1853.27427	0.97014
1851.21736	0.97075
1849.16046	0.97108
1847.10355	0.97087
1845.04664	0.97035
1842.98973	0.96996
1840.93282	0.96999
1838.87592	0.97018
1836.81901	0.97028
1834.76210	0.97040
1832.70519	0.97086
1830.64828	0.97125
1828.59137	0.97106
1826.53447	0.97113
1824.47756	0.97146
1822.42065	0.97136
1820.36374	0.97118
1818.30683	0.97127
1816.24993	0.97130
1814.19302	0.97095
1812.13611	0.97067
1810.07920	0.97077
1808.02229	0.97110
1805.96538	0.97136
1803.90848	0.97130
1801.85157	0.97097
1799.79466	0.97055
1797.73775	0.97046
1795.68084	0.97050
1793.62394	0.97023
1791.56703	0.97017
1789.51012	0.97074
1787.45321	0.97110
1785.39630	0.97079
1783.33939	0.97039
1781.28249	0.97039
1779.22558	0.97052
1777.16867	0.97055
1775.11176	0.97071
1773.05485	0.97083
1770.99795	0.97025
1768.94104	0.96986
1766.88413	0.97019
1764.82722	0.97061
1762.77031	0.97082
1760.71340	0.97086
1758.65650	0.97074
1756.59959	0.97061
1754.54268	0.97072
1752.48577	0.97083
1750.42886	0.97053
1748.37196	0.97015
1746.31505	0.97012
1744.25814	0.97035
1742.20123	0.97081
1740.14432	0.97113
1738.08741	0.97092
1736.03051	0.97045
1733.97360	0.97001
1731.91669	0.97005
1729.85978	0.97025
1727.80287	0.97015
1725.74597	0.97001
1723.68906	0.97003
1721.63215	0.97000
1719.57524	0.96973
1717.51833	0.96930
1715.46142	0.96896
1713.40452	0.96910
1711.34761	0.96954
1709.29070	0.96975
1707.23379	0.96949
1705.17688	0.96914
1703.11998	0.96885
1701.06307	0.96805
1699.00616	0.96742
1696.94925	0.96777
1694.89234	0.96824
1692.83543	0.96879
1690.77853	0.96907
1688.72162	0.96876
1686.66471	0.96815
1684.60780	0.96725
1682.55089	0.96677
1680.49399	0.96735
1678.43708	0.96810
1676.38017	0.96817
1674.32326	0.96756
1672.26635	0.96693
1670.20944	0.96617
1668.15254	0.96560
1666.09563	0.96568
1664.03872	0.96570
1661.98181	0.96543
1659.92490	0.96524
1657.86800	0.96510
1655.81109	0.96478
1653.75418	0.96369
1651.69727	0.96248
1649.64036	0.96250
1647.58345	0.96275
1645.52655	0.96292
1643.46964	0.96322
1641.41273	0.96361
1639.35582	0.96369
1637.29891	0.96302
1635.24201	0.96202
1633.18510	0.96233
1631.12819	0.96320
1629.07128	0.96357
1627.01437	0.96360
1624.95746	0.96376
1622.90056	0.96407
1620.84365	0.96449
1618.78674	0.96477
1616.72983	0.96455
1614.67292	0.96465
1612.61602	0.96545
1610.55911	0.96601
1608.50220	0.96614
1606.44529	0.96629
1604.38838	0.96650
1602.33147	0.96686
1600.27457	0.96726
1598.21766	0.96746
1596.16075	0.96775
1594.10384	0.96812
1592.04693	0.96816
1589.99003	0.96810
1587.93312	0.96822
1585.87621	0.96838
1583.81930	0.96868
1581.76239	0.96915
1579.70548	0.96946
1577.64858	0.96940
1575.59167	0.96925
1573.53476	0.96951
1571.47785	0.96968
1569.42094	0.96950
1567.36404	0.96956
1565.30713	0.96997
1563.25022	0.97038
1561.19331	0.97011
1559.13640	0.96854
1557.07949	0.96840
1555.02259	0.96961
1552.96568	0.97034
1550.90877	0.97069
1548.85186	0.97095
1546.79495	0.97125
1544.73805	0.97137
1542.68114	0.97103
1540.62423	0.97037
1538.56732	0.97018
1536.51041	0.97061
1534.45350	0.97109
1532.39660	0.97143
1530.33969	0.97143
1528.28278	0.97118
1526.22587	0.97120
1524.16896	0.97156
1522.11206	0.97194
1520.05515	0.97230
1517.99824	0.97225
1515.94133	0.97184
1513.88442	0.97172
1511.82751	0.97187
1509.77061	0.97187
1507.71370	0.97139
1505.65679	0.97108
1503.59988	0.97150
1501.54297	0.97194
1499.48607	0.97213
1497.42916	0.97175
1495.37225	0.97114
1493.31534	0.97093
1491.25843	0.97045
1489.20152	0.96947
1487.14462	0.96883
1485.08771	0.96799
1483.03080	0.96658
1480.97389	0.96525
1478.91698	0.96451
1476.86008	0.96412
1474.80317	0.96369
1472.74626	0.96264
1470.68935	0.96136
1468.63244	0.96040
1466.57553	0.95903
1464.51863	0.95704
1462.46172	0.95528
1460.40481	0.95383
1458.34790	0.95214
1456.29099	0.95058
1454.23409	0.94993
1452.17718	0.94957
1450.12027	0.94915
1448.06336	0.94862
1446.00645	0.94813
1443.94954	0.94772
1441.89264	0.94710
1439.83573	0.94625
1437.77882	0.94458
1435.72191	0.94197
1433.66500	0.94035
1431.60810	0.93942
1429.55119	0.93837
1427.49428	0.93771
1425.43737	0.93801
1423.38046	0.93915
1421.32355	0.94050
1419.26665	0.94219
1417.20974	0.94439
1415.15283	0.94616
1413.09592	0.94727
1411.03901	0.94794
1408.98211	0.94837
1406.92520	0.94888
1404.86829	0.94925
1402.81138	0.94950
1400.75447	0.94997
1398.69756	0.95045
1396.64066	0.95069
1394.58375	0.95032
1392.52684	0.94970
1390.46993	0.94934
1388.41302	0.94846
1386.35612	0.94662
1384.29921	0.94468
1382.24230	0.94256
1380.18539	0.93983
1378.12848	0.93726
1376.07157	0.93483
1374.01467	0.93157
1371.95776	0.92880
1369.90085	0.92778
1367.84394	0.92772
1365.78703	0.92790
1363.73013	0.92783
1361.67322	0.92750
1359.61631	0.92763
1357.55940	0.92836
1355.50249	0.92934
1353.44558	0.93039
1351.38868	0.93144
1349.33177	0.93213
1347.27486	0.93202
1345.21795	0.93104
1343.16104	0.92945
1341.10414	0.92742
1339.04723	0.92528
1336.99032	0.92374
1334.93341	0.92303
1332.87650	0.92296
1330.81959	0.92340
1328.76269	0.92401
1326.70578	0.92416
1324.64887	0.92339
1322.59196	0.92158
1320.53505	0.91891
1318.47815	0.91602
1316.42124	0.91402
1314.36433	0.91353
1312.30742	0.91443
1310.25051	0.91638
1308.19360	0.91917
1306.13670	0.92239
1304.07979	0.92554
1302.02288	0.92859
1299.96597	0.93151
1297.90906	0.93394
1295.85216	0.93581
1293.79525	0.93726
1291.73834	0.93827
1289.68143	0.93887
1287.62452	0.93902
1285.56761	0.93883
1283.51071	0.93846
1281.45380	0.93807
1279.39689	0.93809
1277.33998	0.93870
1275.28307	0.93936
1273.22617	0.93985
1271.16926	0.94043
1269.11235	0.94108
1267.05544	0.94151
1264.99853	0.94166
1262.94162	0.94189
1260.88472	0.94239
1258.82781	0.94294
1256.77090	0.94359
1254.71399	0.94419
1252.65708	0.94438
1250.60018	0.94416
1248.54327	0.94374
1246.48636	0.94371
1244.42945	0.94437
1242.37254	0.94512
1240.31563	0.94545
1238.25873	0.94569
1236.20182	0.94612
1234.14491	0.94670
1232.08800	0.94756
1230.03109	0.94892
1227.97419	0.95063
1225.91728	0.95243
1223.86037	0.95431
1221.80346	0.95601
1219.74655	0.95727
1217.68964	0.95824
1215.63274	0.95876
1213.57583	0.95821
1211.51892	0.95640
1209.46201	0.95381
1207.40510	0.95110
1205.34820	0.94908
1203.29129	0.94832
1201.23438	0.94851
1199.17747	0.94911
1197.12056	0.95019
1195.06365	0.95176
1193.00675	0.95331
1190.94984	0.95471
1188.89293	0.95600
1186.83602	0.95671
1184.77911	0.95624
1182.72221	0.95473
1180.66530	0.95255
1178.60839	0.94953
1176.55148	0.94516
1174.49457	0.93929
1172.43766	0.93198
1170.38076	0.92312
1168.32385	0.91338
1166.26694	0.90432
1164.21003	0.89717
1162.15312	0.89271
1160.09622	0.89118
1158.03931	0.89226
1155.98240	0.89497
1153.92549	0.89831
1151.86858	0.90194
1149.81167	0.90581
1147.75477	0.90988
1145.69786	0.91401
1143.64095	0.91781
1141.58404	0.92079
1139.52713	0.92243
1137.47023	0.92230
1135.41332	0.92070
1133.35641	0.91816
1131.29950	0.91423
1129.24259	0.90874
1127.18568	0.90253
1125.12878	0.89625
1123.07187	0.89019
1121.01496	0.88444
1118.95805	0.87860
1116.90114	0.87173
1114.84424	0.86354
1112.78733	0.85572
1110.73042	0.85006
1108.67351	0.84645
1106.61660	0.84419
1104.55969	0.84302
1102.50279	0.84293
1100.44588	0.84430
1098.38897	0.84704
1096.33206	0.85004
1094.27515	0.85263
1092.21825	0.85488
1090.16134	0.85647
1088.10443	0.85701
1086.04752	0.85661
1083.99061	0.85540
1081.93370	0.85298
1079.87680	0.84917
1077.81989	0.84425
1075.76298	0.83869
1073.70607	0.83315
1071.64916	0.82740
1069.59226	0.82063
1067.53535	0.81274
1065.47844	0.80347
1063.42153	0.79264
1061.36462	0.78192
1059.30771	0.77310
1057.25081	0.76663
1055.19390	0.76274
1053.13699	0.76154
1051.08008	0.76262
1049.02317	0.76531
1046.96627	0.76858
1044.90936	0.77113
1042.85245	0.77183
1040.79554	0.77016
1038.73863	0.76595
1036.68172	0.75974
1034.62482	0.75327
1032.56791	0.74855
1030.51100	0.74605
1028.45409	0.74499
1026.39718	0.74485
1024.34028	0.74546
1022.28337	0.74653
1020.22646	0.74779
1018.16955	0.74907
1016.11264	0.75015
1014.05573	0.75120
1011.99883	0.75299
1009.94192	0.75529
1007.88501	0.75701
1005.82810	0.75775
1003.77119	0.75776
1001.71429	0.75759
999.65738	0.75786
997.60047	0.75877
995.54356	0.76007
993.48665	0.76155
991.42974	0.76275
989.37284	0.76289
987.31593	0.76221
985.25902	0.76206
983.20211	0.76367
981.14520	0.76792
979.08830	0.77458
977.03139	0.78225
974.97448	0.78980
972.91757	0.79659
970.86066	0.80244
968.80375	0.80761
966.74685	0.81241
964.68994	0.81753
962.63303	0.82290
960.57612	0.82794
958.51921	0.83277
956.46231	0.83753
954.40540	0.84238
952.34849	0.84725
950.29158	0.85156
948.23467	0.85524
946.17776	0.85878
944.12086	0.86235
942.06395	0.86556
940.00704	0.86836
937.95013	0.87124
935.89322	0.87407
933.83632	0.87656
931.77941	0.87901
929.72250	0.88162
927.66559	0.88411
925.60868	0.88614
923.55177	0.88768
921.49487	0.88886
919.43796	0.88980
917.38105	0.89097
915.32414	0.89204
913.26723	0.89232
911.21033	0.89232
909.15342	0.89200
907.09651	0.89074
905.03960	0.88895
902.98269	0.88736
900.92578	0.88599
898.86888	0.88467
896.81197	0.88410
894.75506	0.88484
892.69815	0.88611
890.64124	0.88743
888.58434	0.88949
886.52743	0.89238
884.47052	0.89527
882.41361	0.89788
880.35670	0.90024
878.29979	0.90207
876.24289	0.90338
874.18598	0.90457
872.12907	0.90572
870.07216	0.90692
868.01525	0.90874
865.95835	0.91122
863.90144	0.91322
861.84453	0.91438
859.78762	0.91561
857.73071	0.91693
855.67380	0.91800
853.61690	0.91887
851.55999	0.91949
849.50308	0.91978
847.44617	0.92017
845.38926	0.92107
843.33236	0.92189
841.27545	0.92224
839.21854	0.92272
837.16163	0.92346
835.10472	0.92386
833.04781	0.92374
830.99091	0.92376
828.93400	0.92429
826.87709	0.92482
824.82018	0.92512
822.76327	0.92512
820.70637	0.92451
818.64946	0.92374
816.59255	0.92325
814.53564	0.92270
812.47873	0.92209
810.42182	0.92202
808.36492	0.92263
806.30801	0.92358
804.25110	0.92477
802.19419	0.92567
800.13728	0.92571
798.08038	0.92535
796.02347	0.92496
793.96656	0.92459
791.90965	0.92423
789.85274	0.92401
787.79583	0.92429
785.73893	0.92454
783.68202	0.92411
781.62511	0.92359
779.56820	0.92364
777.51129	0.92403
775.45439	0.92434
773.39748	0.92424
771.34057	0.92371
769.28366	0.92334
767.22675	0.92314
765.16984	0.92264
763.11294	0.92211
761.05603	0.92194
758.99912	0.92147
756.94221	0.92025
754.88530	0.91926
752.82839	0.91884
750.77149	0.91835
748.71458	0.91764
746.65767	0.91662
744.60076	0.91527
742.54385	0.91415
740.48695	0.91330
738.43004	0.91261
736.37313	0.91202
734.31622	0.91074
732.25931	0.90886
730.20240	0.90714
728.14550	0.90538
726.08859	0.90318
724.03168	0.90064
721.97477	0.89814
719.91786	0.89584
717.86096	0.89361
715.80405	0.89137
713.74714	0.88899
711.69023	0.88673
709.63332	0.88552
707.57641	0.88485
705.51951	0.88386
703.46260	0.88289
701.40569	0.88163
699.34878	0.87994
697.29187	0.87878
695.23497	0.87830
693.17806	0.87785
691.12115	0.87725
689.06424	0.87663
687.00733	0.87623
684.95042	0.87551
682.89352	0.87369
680.83661	0.87087
678.77970	0.86728
676.72279	0.86273
674.66588	0.85782
672.60898	0.85376
670.55207	0.85054
668.49516	0.84702
666.43825	0.84389
664.38134	0.84194
662.32443	0.84082
660.26753	0.84134
658.21062	0.84347
656.15371	0.84578
654.09680	0.84781
652.03989	0.84962
649.98299	0.85036
647.92608	0.85013
645.86917	0.84996
643.81226	0.84978
641.75535	0.84872
639.69844	0.84716
637.64154	0.84615
635.58463	0.84490
633.52772	0.84233
631.47081	0.83914
629.41390	0.83629
627.35700	0.83430
625.30009	0.83293
623.24318	0.83064
621.18627	0.82663
619.12936	0.82178
617.07245	0.81734
615.01555	0.81523
612.95864	0.81555
610.90173	0.81544
608.84482	0.81451
606.78791	0.81441
604.73101	0.81467
602.67410	0.81437
600.61719	0.81291
598.56028	0.81087
596.50337	0.81006
594.44646	0.81013
592.38956	0.80885
590.33265	0.80729
588.27574	0.80821
586.21883	0.81001
584.16192	0.81007
582.10502	0.80869
580.04811	0.80752
577.99120	0.80694
575.93429	0.80605
573.87738	0.80553
571.82047	0.80590
569.76357	0.80517
567.70666	0.80230
565.64975	0.79861
563.59284	0.79443
561.53593	0.78862
559.47903	0.78293
557.42212	0.78023
555.36521	0.78012
553.30830	0.78184
551.25139	0.78460
549.19448	0.78702
547.13758	0.79000
545.08067	0.79364
543.02376	0.79607
540.96685	0.79741
538.90994	0.79786
536.85304	0.79801
534.79613	0.79911
532.73922	0.80021
530.68231	0.80107
528.62540	0.80164
526.56849	0.80010
524.51159	0.79682
522.45468	0.79481
520.39777	0.79457
518.34086	0.79493
516.28395	0.79625
514.22705	0.79740
512.17014	0.79712
510.11323	0.79765
508.05632	0.80021
505.99941	0.80264
503.94250	0.80354
501.88560	0.80335
499.82869	0.80256
497.77178	0.80218
495.71487	0.80336
493.65796	0.80527
491.60106	0.80646
489.54415	0.80792
487.48724	0.81079
485.43033	0.81274
483.37342	0.81203
481.31651	0.81057
479.25961	0.81015
477.20270	0.81124
475.14579	0.81374
473.08888	0.81683
471.03197	0.81860
468.97507	0.81851
466.91816	0.81822
464.86125	0.81905
462.80434	0.82061
460.74743	0.82113
458.69052	0.81972
456.63362	0.81729
454.57671	0.81526
452.51980	0.81274
450.46289	0.80889
448.40598	0.80692
446.34908	0.80918
444.29217	0.81187
442.23526	0.81173
440.17835	0.80946
438.12144	0.80515
436.06453	0.80175
434.00763	0.80371
431.95072	0.80891
429.89381	0.81229
427.83690	0.81291
425.77999	0.81280
423.72309	0.81242
421.66618	0.81062
419.60927	0.80800
417.55236	0.81065
415.49545	0.81567
413.43854	0.81723
411.38164	0.81957
409.32473	0.82392
407.26782	0.82554
405.21091	0.82605
403.15400	0.82734
401.09710	0.82386
399.04019	0.81534
