3996.57260	0.99358
3994.51569	0.99349
3992.45878	0.99398
3990.40188	0.99454
3988.34497	0.99493
3986.28806	0.99522
3984.23115	0.99495
3982.17424	0.99406
3980.11733	0.99288
3978.06043	0.99224
3976.00352	0.99279
3973.94661	0.99360
3971.88970	0.99355
3969.83279	0.99299
3967.77589	0.99280
3965.71898	0.99287
3963.66207	0.99268
3961.60516	0.99265
3959.54825	0.99310
3957.49134	0.99346
3955.43444	0.99382
3953.37753	0.99432
3951.32062	0.99448
3949.26371	0.99420
3947.20680	0.99351
3945.14990	0.99296
3943.09299	0.99335
3941.03608	0.99381
3938.97917	0.99339
3936.92226	0.99297
3934.86535	0.99289
3932.80845	0.99253
3930.75154	0.99214
3928.69463	0.99226
3926.63772	0.99266
3924.58081	0.99291
3922.52391	0.99312
3920.46700	0.99344
3918.41009	0.99322
3916.35318	0.99252
3914.29627	0.99242
3912.23936	0.99305
3910.18246	0.99364
3908.12555	0.99403
3906.06864	0.99474
3904.01173	0.99519
3901.95482	0.99407
3899.89792	0.99279
3897.84101	0.99284
3895.78410	0.99317
3893.72719	0.99335
3891.67028	0.99365
3889.61337	0.99361
3887.55647	0.99303
3885.49956	0.99244
3883.44265	0.99269
3881.38574	0.99350
3879.32883	0.99373
3877.27193	0.99336
3875.21502	0.99352
3873.15811	0.99435
3871.10120	0.99459
3869.04429	0.99432
3866.98738	0.99416
3864.93048	0.99383
3862.87357	0.99379
3860.81666	0.99400
3858.75975	0.99391
3856.70284	0.99372
3854.64594	0.99367
3852.58903	0.99333
3850.53212	0.99298
3848.47521	0.99336
3846.41830	0.99413
3844.36139	0.99455
3842.30449	0.99414
3840.24758	0.99328
3838.19067	0.99273
3836.13376	0.99264
3834.07685	0.99280
3832.01995	0.99336
3829.96304	0.99417
3827.90613	0.99459
3825.84922	0.99444
3823.79231	0.99417
3821.73540	0.99380
3819.67850	0.99308
3817.62159	0.99290
3815.56468	0.99341
3813.50777	0.99358
3811.45086	0.99344
3809.39396	0.99313
3807.33705	0.99277
3805.28014	0.99286
3803.22323	0.99330
3801.16632	0.99381
3799.10941	0.99387
3797.05251	0.99372
3794.99560	0.99376
3792.93869	0.99365
3790.88178	0.99324
3788.82487	0.99288
3786.76796	0.99294
3784.71106	0.99319
3782.65415	0.99328
3780.59724	0.99354
3778.54033	0.99394
3776.48342	0.99412
3774.42652	0.99416
3772.36961	0.99413
3770.31270	0.99436
3768.25579	0.99447
3766.19888	0.99403
3764.14197	0.99352
3762.08507	0.99306
3760.02816	0.99288
3757.97125	0.99320
3755.91434	0.99350
3753.85743	0.99352
3751.80053	0.99355
3749.74362	0.99359
3747.68671	0.99401
3745.62980	0.99446
3743.57289	0.99339
3741.51598	0.99227
3739.45908	0.99278
3737.40217	0.99378
3735.34526	0.99434
3733.28835	0.99468
3731.23144	0.99439
3729.17454	0.99354
3727.11763	0.99314
3725.06072	0.99382
3723.00381	0.99421
3720.94690	0.99333
3718.88999	0.99287
3716.83309	0.99348
3714.77618	0.99439
3712.71927	0.99473
3710.66236	0.99372
3708.60545	0.99292
3706.54855	0.99309
3704.49164	0.99311
3702.43473	0.99323
3700.37782	0.99410
3698.32091	0.99493
3696.26400	0.99506
3694.20710	0.99459
3692.15019	0.99405
3690.09328	0.99368
3688.03637	0.99353
3685.97946	0.99394
3683.92256	0.99429
3681.86565	0.99390
3679.80874	0.99344
3677.75183	0.99362
3675.69492	0.99388
3673.63801	0.99404
3671.58111	0.99402
3669.52420	0.99345
3667.46729	0.99296
3665.41038	0.99264
3663.35347	0.99234
3661.29657	0.99226
3659.23966	0.99209
3657.18275	0.99172
3655.12584	0.99202
3653.06893	0.99275
3651.01202	0.99317
3648.95512	0.99325
3646.89821	0.99244
3644.84130	0.99164
3642.78439	0.99185
3640.72748	0.99250
3638.67058	0.99274
3636.61367	0.99261
3634.55676	0.99244
3632.49985	0.99204
3630.44294	0.99130
3628.38603	0.99105
3626.32913	0.99138
3624.27222	0.99116
3622.21531	0.99064
3620.15840	0.99054
3618.10149	0.99079
3616.04459	0.99049
3613.98768	0.98951
3611.93077	0.98881
3609.87386	0.98864
3607.81695	0.98856
3605.76004	0.98850
3603.70314	0.98849
3601.64623	0.98816
3599.58932	0.98764
3597.53241	0.98760
3595.47550	0.98798
3593.41860	0.98842
3591.36169	0.98842
3589.30478	0.98808
3587.24787	0.98799
3585.19096	0.98822
3583.13405	0.98849
3581.07715	0.98839
3579.02024	0.98773
3576.96333	0.98702
3574.90642	0.98667
3572.84951	0.98626
3570.79261	0.98560
3568.73570	0.98492
3566.67879	0.98409
3564.62188	0.98328
3562.56497	0.98276
3560.50806	0.98277
3558.45116	0.98308
3556.39425	0.98326
3554.33734	0.98327
3552.28043	0.98255
3550.22352	0.98098
3548.16662	0.97994
3546.10971	0.98002
3544.05280	0.98007
3541.99589	0.97953
3539.93898	0.97912
3537.88207	0.97910
3535.82517	0.97882
3533.76826	0.97825
3531.71135	0.97800
3529.65444	0.97764
3527.59753	0.97708
3525.54063	0.97726
3523.48372	0.97777
3521.42681	0.97742
3519.36990	0.97612
3517.31299	0.97493
3515.25608	0.97478
3513.19918	0.97500
3511.14227	0.97474
3509.08536	0.97407
3507.02845	0.97353
3504.97154	0.97347
3502.91464	0.97340
3500.85773	0.97303
3498.80082	0.97301
3496.74391	0.97339
3494.68700	0.97311
3492.63009	0.97211
3490.57319	0.97145
3488.51628	0.97137
3486.45937	0.97156
3484.40246	0.97183
3482.34555	0.97180
3480.28865	0.97198
3478.23174	0.97280
3476.17483	0.97309
3474.11792	0.97207
3472.06101	0.97072
3470.00410	0.97040
3467.94720	0.97105
3465.89029	0.97141
3463.83338	0.97119
3461.77647	0.97133
3459.71956	0.97192
3457.66266	0.97186
3455.60575	0.97118
3453.54884	0.97106
3451.49193	0.97148
3449.43502	0.97159
3447.37811	0.97139
3445.32121	0.97135
3443.26430	0.97164
3441.20739	0.97235
3439.15048	0.97313
3437.09357	0.97302
3435.03667	0.97254
3432.97976	0.97298
3430.92285	0.97372
3428.86594	0.97372
3426.80903	0.97320
3424.75212	0.97289
3422.69522	0.97300
3420.63831	0.97324
3418.58140	0.97357
3416.52449	0.97369
3414.46758	0.97360
3412.41068	0.97403
3410.35377	0.97502
3408.29686	0.97579
3406.23995	0.97591
3404.18304	0.97567
3402.12613	0.97538
3400.06923	0.97525
3398.01232	0.97537
3395.95541	0.97564
3393.89850	0.97601
3391.84159	0.97630
3389.78469	0.97661
3387.72778	0.97704
3385.67087	0.97727
3383.61396	0.97726
3381.55705	0.97732
3379.50014	0.97765
3377.44324	0.97803
3375.38633	0.97811
3373.32942	0.97794
3371.27251	0.97787
3369.21560	0.97805
3367.15870	0.97829
3365.10179	0.97838
3363.04488	0.97822
3360.98797	0.97835
3358.93106	0.97879
3356.87415	0.97886
3354.81725	0.97898
3352.76034	0.97948
3350.70343	0.97976
3348.64652	0.97953
3346.58961	0.97924
3344.53271	0.97945
3342.47580	0.97988
3340.41889	0.97974
3338.36198	0.97931
3336.30507	0.97965
3334.24816	0.98066
3332.19126	0.98111
3330.13435	0.98069
3328.07744	0.98053
3326.02053	0.98064
3323.96362	0.98039
3321.90672	0.98079
3319.84981	0.98196
3317.79290	0.98268
3315.73599	0.98319
3313.67908	0.98399
3311.62217	0.98457
3309.56527	0.98446
3307.50836	0.98377
3305.45145	0.98353
3303.39454	0.98394
3301.33763	0.98405
3299.28073	0.98385
3297.22382	0.98411
3295.16691	0.98477
3293.11000	0.98481
3291.05309	0.98430
3288.99618	0.98425
3286.93928	0.98446
3284.88237	0.98458
3282.82546	0.98484
3280.76855	0.98478
3278.71164	0.98453
3276.65474	0.98470
3274.59783	0.98505
3272.54092	0.98541
3270.48401	0.98564
3268.42710	0.98554
3266.37019	0.98542
3264.31329	0.98569
3262.25638	0.98613
3260.19947	0.98600
3258.14256	0.98539
3256.08565	0.98553
3254.02875	0.98642
3251.97184	0.98677
3249.91493	0.98675
3247.85802	0.98702
3245.80111	0.98668
3243.74420	0.98588
3241.68730	0.98616
3239.63039	0.98733
3237.57348	0.98784
3235.51657	0.98723
3233.45966	0.98657
3231.40276	0.98659
3229.34585	0.98687
3227.28894	0.98722
3225.23203	0.98781
3223.17512	0.98836
3221.11821	0.98831
3219.06131	0.98770
3217.00440	0.98734
3214.94749	0.98748
3212.89058	0.98784
3210.83367	0.98848
3208.77677	0.98912
3206.71986	0.98923
3204.66295	0.98883
3202.60604	0.98855
3200.54913	0.98859
3198.49222	0.98868
3196.43532	0.98898
3194.37841	0.98912
3192.32150	0.98883
3190.26459	0.98877
3188.20768	0.98918
3186.15078	0.98954
3184.09387	0.98979
3182.03696	0.99007
3179.98005	0.98999
3177.92314	0.98979
3175.86623	0.98980
3173.80933	0.98965
3171.75242	0.98947
3169.69551	0.98967
3167.63860	0.99004
3165.58169	0.99011
3163.52479	0.99016
3161.46788	0.99044
3159.41097	0.99064
3157.35406	0.99056
3155.29715	0.99011
3153.24024	0.98963
3151.18334	0.98952
3149.12643	0.98986
3147.06952	0.99019
3145.01261	0.99015
3142.95570	0.99026
3140.89880	0.99105
3138.84189	0.99170
3136.78498	0.99125
3134.72807	0.99043
3132.67116	0.99017
3130.61425	0.99064
3128.55735	0.99131
3126.50044	0.99160
3124.44353	0.99173
3122.38662	0.99173
3120.32971	0.99167
3118.27281	0.99161
3116.21590	0.99144
3114.15899	0.99130
3112.10208	0.99100
3110.04517	0.99057
3107.98826	0.99062
3105.93136	0.99115
3103.87445	0.99169
3101.81754	0.99189
3099.76063	0.99171
3097.70372	0.99151
3095.64682	0.99156
3093.58991	0.99188
3091.53300	0.99245
3089.47609	0.99272
3087.41918	0.99204
3085.36227	0.99103
3083.30537	0.99078
3081.24846	0.99110
3079.19155	0.99142
3077.13464	0.99176
3075.07773	0.99203
3073.02083	0.99195
3070.96392	0.99159
3068.90701	0.99123
3066.85010	0.99110
3064.79319	0.99143
3062.73628	0.99201
3060.67938	0.99209
3058.62247	0.99186
3056.56556	0.99209
3054.50865	0.99246
3052.45174	0.99254
3050.39484	0.99251
3048.33793	0.99239
3046.28102	0.99192
3044.22411	0.99141
3042.16720	0.99158
3040.11029	0.99204
3038.05339	0.99196
3035.99648	0.99146
3033.93957	0.99116
3031.88266	0.99109
3029.82575	0.99096
3027.76885	0.99091
3025.71194	0.99091
3023.65503	0.99107
3021.59812	0.99171
3019.54121	0.99211
3017.48430	0.99194
3015.42740	0.99196
3013.37049	0.99217
3011.31358	0.99201
3009.25667	0.99162
3007.19976	0.99133
3005.14286	0.99079
3003.08595	0.98991
3001.02904	0.98961
2998.97213	0.99014
2996.91522	0.99055
2994.85831	0.99039
2992.80141	0.98995
2990.74450	0.98981
2988.68759	0.99017
2986.63068	0.99053
2984.57377	0.99048
2982.51687	0.99020
2980.45996	0.98979
2978.40305	0.98916
2976.34614	0.98845
2974.28923	0.98786
2972.23232	0.98766
2970.17542	0.98769
2968.11851	0.98761
2966.06160	0.98751
2964.00469	0.98738
2961.94778	0.98718
2959.89088	0.98703
2957.83397	0.98692
2955.77706	0.98672
2953.72015	0.98636
2951.66324	0.98583
2949.60633	0.98530
2947.54943	0.98483
2945.49252	0.98454
2943.43561	0.98459
2941.37870	0.98484
2939.32179	0.98497
2937.26489	0.98493
2935.20798	0.98486
2933.15107	0.98467
2931.09416	0.98461
2929.03725	0.98493
2926.98034	0.98504
2924.92344	0.98497
2922.86653	0.98513
2920.80962	0.98518
2918.75271	0.98498
2916.69580	0.98478
2914.63890	0.98477
2912.58199	0.98476
2910.52508	0.98448
2908.46817	0.98419
2906.41126	0.98431
2904.35435	0.98463
2902.29745	0.98452
2900.24054	0.98423
2898.18363	0.98415
2896.12672	0.98388
2894.06981	0.98360
2892.01291	0.98389
2889.95600	0.98438
2887.89909	0.98450
2885.84218	0.98445
2883.78527	0.98438
2881.72836	0.98402
2879.67146	0.98370
2877.61455	0.98418
2875.55764	0.98504
2873.50073	0.98554
2871.44382	0.98554
2869.38692	0.98544
2867.33001	0.98577
2865.27310	0.98647
2863.21619	0.98721
2861.15928	0.98759
2859.10237	0.98760
2857.04547	0.98770
2854.98856	0.98796
2852.93165	0.98836
2850.87474	0.98895
2848.81783	0.98952
2846.76093	0.98978
2844.70402	0.98981
2842.64711	0.98998
2840.59020	0.99039
2838.53329	0.99077
2836.47638	0.99075
2834.41948	0.99046
2832.36257	0.99035
2830.30566	0.99056
2828.24875	0.99073
2826.19184	0.99063
2824.13494	0.99060
2822.07803	0.99062
2820.02112	0.99046
2817.96421	0.99062
2815.90730	0.99110
2813.85039	0.99142
2811.79349	0.99163
2809.73658	0.99174
2807.67967	0.99167
2805.62276	0.99156
2803.56585	0.99151
2801.50895	0.99135
2799.45204	0.99122
2797.39513	0.99158
2795.33822	0.99210
2793.28131	0.99221
2791.22440	0.99214
2789.16750	0.99208
2787.11059	0.99194
2785.05368	0.99179
2782.99677	0.99175
2780.93986	0.99198
2778.88296	0.99236
2776.82605	0.99253
2774.76914	0.99246
2772.71223	0.99244
2770.65532	0.99250
2768.59841	0.99248
2766.54151	0.99255
2764.48460	0.99284
2762.42769	0.99283
2760.37078	0.99237
2758.31387	0.99224
2756.25697	0.99263
2754.20006	0.99273
2752.14315	0.99227
2750.08624	0.99174
2748.02933	0.99167
2745.97242	0.99202
2743.91552	0.99230
2741.85861	0.99242
2739.80170	0.99255
2737.74479	0.99251
2735.68788	0.99231
2733.63098	0.99202
2731.57407	0.99160
2729.51716	0.99148
2727.46025	0.99189
2725.40334	0.99250
2723.34643	0.99298
2721.28953	0.99304
2719.23262	0.99281
2717.17571	0.99273
2715.11880	0.99277
2713.06189	0.99281
2711.00499	0.99295
2708.94808	0.99301
2706.89117	0.99292
2704.83426	0.99285
2702.77735	0.99282
2700.72044	0.99297
2698.66354	0.99323
2696.60663	0.99302
2694.54972	0.99251
2692.49281	0.99245
2690.43590	0.99285
2688.37900	0.99322
2686.32209	0.99330
2684.26518	0.99311
2682.20827	0.99266
2680.15136	0.99236
2678.09445	0.99250
2676.03755	0.99267
2673.98064	0.99266
2671.92373	0.99288
2669.86682	0.99322
2667.80991	0.99323
2665.75301	0.99302
2663.69610	0.99283
2661.63919	0.99254
2659.58228	0.99230
2657.52537	0.99254
2655.46846	0.99284
2653.41156	0.99278
2651.35465	0.99284
2649.29774	0.99311
2647.24083	0.99334
2645.18392	0.99352
2643.12702	0.99338
2641.07011	0.99294
2639.01320	0.99289
2636.95629	0.99337
2634.89938	0.99364
2632.84247	0.99318
2630.78557	0.99254
2628.72866	0.99238
2626.67175	0.99239
2624.61484	0.99243
2622.55793	0.99300
2620.50103	0.99366
2618.44412	0.99356
2616.38721	0.99295
2614.33030	0.99259
2612.27339	0.99289
2610.21648	0.99335
2608.15958	0.99354
2606.10267	0.99363
2604.04576	0.99371
2601.98885	0.99361
2599.93194	0.99369
2597.87504	0.99431
2595.81813	0.99482
2593.76122	0.99439
2591.70431	0.99340
2589.64740	0.99300
2587.59049	0.99328
2585.53359	0.99345
2583.47668	0.99348
2581.41977	0.99360
2579.36286	0.99373
2577.30595	0.99390
2575.24905	0.99400
2573.19214	0.99398
2571.13523	0.99393
2569.07832	0.99388
2567.02141	0.99390
2564.96450	0.99367
2562.90760	0.99326
2560.85069	0.99345
2558.79378	0.99412
2556.73687	0.99431
2554.67996	0.99400
2552.62306	0.99393
2550.56615	0.99408
2548.50924	0.99391
2546.45233	0.99347
2544.39542	0.99331
2542.33851	0.99377
2540.28161	0.99434
2538.22470	0.99432
2536.16779	0.99396
2534.11088	0.99410
2532.05397	0.99446
2529.99707	0.99410
2527.94016	0.99327
2525.88325	0.99285
2523.82634	0.99330
2521.76943	0.99383
2519.71252	0.99367
2517.65562	0.99364
2515.59871	0.99395
2513.54180	0.99389
2511.48489	0.99355
2509.42798	0.99358
2507.37108	0.99414
2505.31417	0.99453
2503.25726	0.99423
2501.20035	0.99380
2499.14344	0.99368
2497.08653	0.99370
2495.02963	0.99405
2492.97272	0.99441
2490.91581	0.99423
2488.85890	0.99412
2486.80199	0.99432
2484.74509	0.99409
2482.68818	0.99356
2480.63127	0.99341
2478.57436	0.99361
2476.51745	0.99407
2474.46054	0.99455
2472.40364	0.99427
2470.34673	0.99357
2468.28982	0.99346
2466.23291	0.99388
2464.17600	0.99411
2462.11910	0.99395
2460.06219	0.99368
2458.00528	0.99356
2455.94837	0.99384
2453.89146	0.99417
2451.83455	0.99416
2449.77765	0.99418
2447.72074	0.99445
2445.66383	0.99426
2443.60692	0.99352
2441.55001	0.99349
2439.49311	0.99420
2437.43620	0.99471
2435.37929	0.99499
2433.32238	0.99485
2431.26547	0.99430
2429.20856	0.99435
2427.15166	0.99498
2425.09475	0.99512
2423.03784	0.99479
2420.98093	0.99471
2418.92402	0.99504
2416.86712	0.99529
2414.81021	0.99543
2412.75330	0.99571
2410.69639	0.99561
2408.63948	0.99522
2406.58257	0.99528
2404.52567	0.99513
2402.46876	0.99429
2400.41185	0.99363
2398.35494	0.99365
2396.29803	0.99438
2394.24113	0.99522
2392.18422	0.99534
2390.12731	0.99515
2388.07040	0.99506
2386.01349	0.99481
2383.95658	0.99464
2381.89968	0.99482
2379.84277	0.99515
2377.78586	0.99527
2375.72895	0.99477
2373.67204	0.99448
2371.61514	0.99565
2369.55823	0.99687
2367.50132	0.99609
2365.44441	0.99497
2363.38750	0.99534
2361.33059	0.99542
2359.27369	0.99438
2357.21678	0.99395
2355.15987	0.99418
2353.10296	0.99441
2351.04605	0.99464
2348.98915	0.99440
2346.93224	0.99384
2344.87533	0.99331
2342.81842	0.99249
2340.76151	0.99208
2338.70460	0.99306
2336.64770	0.99410
2334.59079	0.99429
2332.53388	0.99427
2330.47697	0.99420
2328.42006	0.99410
2326.36316	0.99349
2324.30625	0.99272
2322.24934	0.99284
2320.19243	0.99317
2318.13552	0.99340
2316.07861	0.99396
2314.02171	0.99442
2311.96480	0.99424
2309.90789	0.99367
2307.85098	0.99361
2305.79407	0.99415
2303.73717	0.99458
2301.68026	0.99479
2299.62335	0.99486
2297.56644	0.99464
2295.50953	0.99434
2293.45262	0.99431
2291.39572	0.99462
2289.33881	0.99459
2287.28190	0.99398
2285.22499	0.99387
2283.16808	0.99450
2281.11117	0.99468
2279.05427	0.99436
2276.99736	0.99422
2274.94045	0.99449
2272.88354	0.99531
2270.82663	0.99527
2268.76973	0.99343
2266.71282	0.99232
2264.65591	0.99341
2262.59900	0.99478
2260.54209	0.99492
2258.48518	0.99441
2256.42828	0.99392
2254.37137	0.99362
2252.31446	0.99351
2250.25755	0.99361
2248.20064	0.99396
2246.14374	0.99381
2244.08683	0.99364
2242.02992	0.99407
2239.97301	0.99373
2237.91610	0.99293
2235.85919	0.99362
2233.80229	0.99501
2231.74538	0.99496
2229.68847	0.99500
2227.63156	0.99643
2225.57465	0.99678
2223.51775	0.99522
2221.46084	0.99404
2219.40393	0.99429
2217.34702	0.99393
2215.29011	0.99333
2213.23320	0.99407
2211.17630	0.99394
2209.11939	0.99291
2207.06248	0.99395
2205.00557	0.99640
2202.94866	0.99818
2200.89176	0.99886
2198.83485	0.99782
2196.77794	0.99562
2194.72103	0.99471
2192.66412	0.99521
2190.60721	0.99448
2188.55031	0.99308
2186.49340	0.99400
2184.43649	0.99597
2182.37958	0.99555
2180.32267	0.99313
2178.26577	0.99164
2176.20886	0.99190
2174.15195	0.99274
2172.09504	0.99356
2170.03813	0.99444
2167.98122	0.99469
2165.92432	0.99377
2163.86741	0.99248
2161.81050	0.99205
2159.75359	0.99213
2157.69668	0.99273
2155.63978	0.99510
2153.58287	0.99771
2151.52596	0.99844
2149.46905	0.99734
2147.41214	0.99628
2145.35523	0.99620
2143.29833	0.99668
2141.24142	0.99785
2139.18451	0.99906
2137.12760	0.99927
2135.07069	0.99871
2133.01379	0.99770
2130.95688	0.99663
2128.89997	0.99613
2126.84306	0.99551
2124.78615	0.99452
2122.72924	0.99428
2120.67234	0.99482
2118.61543	0.99543
2116.55852	0.99585
2114.50161	0.99549
2112.44470	0.99482
2110.38780	0.99476
2108.33089	0.99475
2106.27398	0.99467
2104.21707	0.99430
2102.16016	0.99350
2100.10325	0.99371
2098.04635	0.99546
2095.98944	0.99690
2093.93253	0.99726
2091.87562	0.99750
2089.81871	0.99715
2087.76181	0.99658
2085.70490	0.99637
2083.64799	0.99499
2081.59108	0.99299
2079.53417	0.99229
2077.47726	0.99252
2075.42036	0.99377
2073.36345	0.99624
2071.30654	0.99747
2069.24963	0.99674
2067.19272	0.99630
2065.13582	0.99611
2063.07891	0.99487
2061.02200	0.99394
2058.96509	0.99388
2056.90818	0.99388
2054.85127	0.99375
2052.79437	0.99286
2050.73746	0.99179
2048.68055	0.99195
2046.62364	0.99289
2044.56673	0.99343
2042.50983	0.99287
2040.45292	0.99172
2038.39601	0.99195
2036.33910	0.99444
2034.28219	0.99693
2032.22528	0.99717
2030.16838	0.99662
2028.11147	0.99555
2026.05456	0.99444
2023.99765	0.99569
2021.94074	0.99775
2019.88384	0.99790
2017.82693	0.99666
2015.77002	0.99504
2013.71311	0.99375
2011.65620	0.99362
2009.59929	0.99335
2007.54239	0.99281
2005.48548	0.99304
2003.42857	0.99364
2001.37166	0.99442
1999.31475	0.99502
1997.25785	0.99613
1995.20094	0.99743
1993.14403	0.99734
1991.08712	0.99685
1989.03021	0.99742
1986.97330	0.99751
1984.91640	0.99587
1982.85949	0.99346
1980.80258	0.99194
1978.74567	0.99283
1976.68876	0.99420
1974.63186	0.99527
1972.57495	0.99731
1970.51804	0.99855
1968.46113	0.99852
1966.40422	0.99792
1964.34731	0.99747
1962.29041	0.99667
1960.23350	0.99522
1958.17659	0.99489
1956.11968	0.99531
1954.06277	0.99578
1952.00587	0.99618
1949.94896	0.99640
1947.89205	0.99709
1945.83514	0.99762
1943.77823	0.99773
1941.72132	0.99783
1939.66442	0.99795
1937.60751	0.99818
1935.55060	0.99827
1933.49369	0.99776
1931.43678	0.99651
1929.37988	0.99564
1927.32297	0.99580
1925.26606	0.99609
1923.20915	0.99601
1921.15224	0.99535
1919.09533	0.99451
1917.03843	0.99501
1914.98152	0.99643
1912.92461	0.99683
1910.86770	0.99625
1908.81079	0.99583
1906.75389	0.99565
1904.69698	0.99536
1902.64007	0.99525
1900.58316	0.99547
1898.52625	0.99591
1896.46934	0.99617
1894.41244	0.99561
1892.35553	0.99489
1890.29862	0.99519
1888.24171	0.99622
1886.18480	0.99662
1884.12790	0.99611
1882.07099	0.99545
1880.01408	0.99516
1877.95717	0.99556
1875.90026	0.99636
1873.84335	0.99642
1871.78645	0.99574
1869.72954	0.99538
1867.67263	0.99522
1865.61572	0.99509
1863.55881	0.99553
1861.50191	0.99606
1859.44500	0.99603
1857.38809	0.99596
1855.33118	0.99605
1853.27427	0.99576
1851.21736	0.99536
1849.16046	0.99555
1847.10355	0.99577
1845.04664	0.99556
1842.98973	0.99532
1840.93282	0.99512
1838.87592	0.99490
1836.81901	0.99494
1834.76210	0.99544
1832.70519	0.99582
1830.64828	0.99545
1828.59137	0.99483
1826.53447	0.99488
1824.47756	0.99522
1822.42065	0.99515
1820.36374	0.99470
1818.30683	0.99414
1816.24993	0.99386
1814.19302	0.99415
1812.13611	0.99466
1810.07920	0.99455
1808.02229	0.99400
1805.96538	0.99361
1803.90848	0.99344
1801.85157	0.99322
1799.79466	0.99287
1797.73775	0.99253
1795.68084	0.99223
1793.62394	0.99219
1791.56703	0.99230
1789.51012	0.99187
1787.45321	0.99079
1785.39630	0.98955
1783.33939	0.98847
1781.28249	0.98758
1779.22558	0.98670
1777.16867	0.98563
1775.11176	0.98418
1773.05485	0.98206
1770.99795	0.97892
1768.94104	0.97492
1766.88413	0.96995
1764.82722	0.96429
1762.77031	0.95716
1760.71340	0.94833
1758.65650	0.93985
1756.59959	0.93110
1754.54268	0.92307
1752.48577	0.91639
1750.42886	0.90939
1748.37196	0.90302
1746.31505	0.89880
1744.25814	0.89608
1742.20123	0.89420
1740.14432	0.89292
1738.08741	0.89265
1736.03051	0.89336
1733.97360	0.89413
1731.91669	0.89558
1729.85978	0.89822
1727.80287	0.90158
1725.74597	0.90552
1723.68906	0.91022
1721.63215	0.91506
1719.57524	0.92014
1717.51833	0.92708
1715.46142	0.93482
1713.40452	0.94123
1711.34761	0.94693
1709.29070	0.95223
1707.23379	0.95740
1705.17688	0.96264
1703.11998	0.96681
1701.06307	0.97009
1699.00616	0.97314
1696.94925	0.97565
1694.89234	0.97814
1692.83543	0.97989
1690.77853	0.98079
1688.72162	0.98154
1686.66471	0.98233
1684.60780	0.98310
1682.55089	0.98371
1680.49399	0.98439
1678.43708	0.98516
1676.38017	0.98559
1674.32326	0.98546
1672.26635	0.98537
1670.20944	0.98576
1668.15254	0.98630
1666.09563	0.98625
1664.03872	0.98596
1661.98181	0.98598
1659.92490	0.98601
1657.86800	0.98583
1655.81109	0.98557
1653.75418	0.98522
1651.69727	0.98462
1649.64036	0.98391
1647.58345	0.98341
1645.52655	0.98389
1643.46964	0.98474
1641.41273	0.98518
1639.35582	0.98552
1637.29891	0.98576
1635.24201	0.98569
1633.18510	0.98575
1631.12819	0.98584
1629.07128	0.98582
1627.01437	0.98601
1624.95746	0.98623
1622.90056	0.98627
1620.84365	0.98650
1618.78674	0.98695
1616.72983	0.98737
1614.67292	0.98783
1612.61602	0.98842
1610.55911	0.98890
1608.50220	0.98900
1606.44529	0.98887
1604.38838	0.98881
1602.33147	0.98900
1600.27457	0.98960
1598.21766	0.99022
1596.16075	0.99041
1594.10384	0.99030
1592.04693	0.99021
1589.99003	0.99022
1587.93312	0.99024
1585.87621	0.99009
1583.81930	0.98979
1581.76239	0.98981
1579.70548	0.99032
1577.64858	0.99090
1575.59167	0.99098
1573.53476	0.99077
1571.47785	0.99080
1569.42094	0.99097
1567.36404	0.99113
1565.30713	0.99134
1563.25022	0.99151
1561.19331	0.99141
1559.13640	0.99092
1557.07949	0.99082
1555.02259	0.99126
1552.96568	0.99160
1550.90877	0.99168
1548.85186	0.99149
1546.79495	0.99111
1544.73805	0.99091
1542.68114	0.99114
1540.62423	0.99116
1538.56732	0.99105
1536.51041	0.99140
1534.45350	0.99189
1532.39660	0.99220
1530.33969	0.99199
1528.28278	0.99175
1526.22587	0.99181
1524.16896	0.99187
1522.11206	0.99179
1520.05515	0.99150
1517.99824	0.99116
1515.94133	0.99114
1513.88442	0.99140
1511.82751	0.99156
1509.77061	0.99171
1507.71370	0.99205
1505.65679	0.99168
1503.59988	0.99118
1501.54297	0.99140
1499.48607	0.99176
1497.42916	0.99166
1495.37225	0.99137
1493.31534	0.99112
1491.25843	0.99064
1489.20152	0.99011
1487.14462	0.98997
1485.08771	0.98993
1483.03080	0.98962
1480.97389	0.98909
1478.91698	0.98854
1476.86008	0.98802
1474.80317	0.98755
1472.74626	0.98684
1470.68935	0.98587
1468.63244	0.98495
1466.57553	0.98384
1464.51863	0.98245
1462.46172	0.98133
1460.40481	0.98061
1458.34790	0.97975
1456.29099	0.97840
1454.23409	0.97727
1452.17718	0.97651
1450.12027	0.97581
1448.06336	0.97490
1446.00645	0.97366
1443.94954	0.97254
1441.89264	0.97165
1439.83573	0.97059
1437.77882	0.96926
1435.72191	0.96799
1433.66500	0.96747
1431.60810	0.96751
1429.55119	0.96769
1427.49428	0.96810
1425.43737	0.96875
1423.38046	0.96914
1421.32355	0.96932
1419.26665	0.96982
1417.20974	0.97043
1415.15283	0.97082
1413.09592	0.97090
1411.03901	0.97080
1408.98211	0.97085
1406.92520	0.97088
1404.86829	0.97061
1402.81138	0.97021
1400.75447	0.96982
1398.69756	0.96923
1396.64066	0.96817
1394.58375	0.96638
1392.52684	0.96434
1390.46993	0.96211
1388.41302	0.95859
1386.35612	0.95376
1384.29921	0.94899
1382.24230	0.94433
1380.18539	0.93938
1378.12848	0.93465
1376.07157	0.93074
1374.01467	0.92773
1371.95776	0.92614
1369.90085	0.92640
1367.84394	0.92822
1365.78703	0.93152
1363.73013	0.93667
1361.67322	0.94335
1359.61631	0.94989
1357.55940	0.95552
1355.50249	0.96024
1353.44558	0.96387
1351.38868	0.96628
1349.33177	0.96803
1347.27486	0.96955
1345.21795	0.97054
1343.16104	0.97105
1341.10414	0.97143
1339.04723	0.97147
1336.99032	0.97120
1334.93341	0.97096
1332.87650	0.97070
1330.81959	0.97035
1328.76269	0.97007
1326.70578	0.96994
1324.64887	0.96968
1322.59196	0.96903
1320.53505	0.96837
1318.47815	0.96783
1316.42124	0.96741
1314.36433	0.96757
1312.30742	0.96809
1310.25051	0.96827
1308.19360	0.96813
1306.13670	0.96791
1304.07979	0.96779
1302.02288	0.96764
1299.96597	0.96710
1297.90906	0.96630
1295.85216	0.96551
1293.79525	0.96454
1291.73834	0.96323
1289.68143	0.96154
1287.62452	0.95967
1285.56761	0.95780
1283.51071	0.95560
1281.45380	0.95276
1279.39689	0.94960
1277.33998	0.94628
1275.28307	0.94239
1273.22617	0.93808
1271.16926	0.93367
1269.11235	0.92909
1267.05544	0.92431
1264.99853	0.91920
1262.94162	0.91365
1260.88472	0.90809
1258.82781	0.90243
1256.77090	0.89622
1254.71399	0.88976
1252.65708	0.88345
1250.60018	0.87746
1248.54327	0.87172
1246.48636	0.86591
1244.42945	0.86013
1242.37254	0.85477
1240.31563	0.84978
1238.25873	0.84516
1236.20182	0.84120
1234.14491	0.83796
1232.08800	0.83575
1230.03109	0.83500
1227.97419	0.83581
1225.91728	0.83817
1223.86037	0.84218
1221.80346	0.84796
1219.74655	0.85568
1217.68964	0.86510
1215.63274	0.87565
1213.57583	0.88670
1211.51892	0.89740
1209.46201	0.90725
1207.40510	0.91628
1205.34820	0.92457
1203.29129	0.93220
1201.23438	0.93898
1199.17747	0.94456
1197.12056	0.94923
1195.06365	0.95339
1193.00675	0.95675
1190.94984	0.95895
1188.89293	0.96021
1186.83602	0.96075
1184.77911	0.96032
1182.72221	0.95889
1180.66530	0.95683
1178.60839	0.95454
1176.55148	0.95216
1174.49457	0.94951
1172.43766	0.94642
1170.38076	0.94333
1168.32385	0.94041
1166.26694	0.93766
1164.21003	0.93578
1162.15312	0.93481
1160.09622	0.93423
1158.03931	0.93451
1155.98240	0.93597
1153.92549	0.93768
1151.86858	0.93912
1149.81167	0.94063
1147.75477	0.94209
1145.69786	0.94303
1143.64095	0.94329
1141.58404	0.94277
1139.52713	0.94141
1137.47023	0.93946
1135.41332	0.93706
1133.35641	0.93452
1131.29950	0.93212
1129.24259	0.92956
1127.18568	0.92687
1125.12878	0.92461
1123.07187	0.92275
1121.01496	0.92095
1118.95805	0.91930
1116.90114	0.91778
1114.84424	0.91638
1112.78733	0.91530
1110.73042	0.91427
1108.67351	0.91276
1106.61660	0.91087
1104.55969	0.90910
1102.50279	0.90739
1100.44588	0.90530
1098.38897	0.90256
1096.33206	0.89941
1094.27515	0.89605
1092.21825	0.89204
1090.16134	0.88752
1088.10443	0.88305
1086.04752	0.87853
1083.99061	0.87373
1081.93370	0.86856
1079.87680	0.86345
1077.81989	0.85869
1075.76298	0.85388
1073.70607	0.84933
1071.64916	0.84541
1069.59226	0.84189
1067.53535	0.83866
1065.47844	0.83558
1063.42153	0.83277
1061.36462	0.83027
1059.30771	0.82788
1057.25081	0.82545
1055.19390	0.82283
1053.13699	0.81987
1051.08008	0.81665
1049.02317	0.81377
1046.96627	0.81160
1044.90936	0.80977
1042.85245	0.80776
1040.79554	0.80561
1038.73863	0.80411
1036.68172	0.80373
1034.62482	0.80421
1032.56791	0.80553
1030.51100	0.80814
1028.45409	0.81220
1026.39718	0.81740
1024.34028	0.82355
1022.28337	0.83067
1020.22646	0.83834
1018.16955	0.84606
1016.11264	0.85352
1014.05573	0.86024
1011.99883	0.86643
1009.94192	0.87242
1007.88501	0.87830
1005.82810	0.88403
1003.77119	0.88907
1001.71429	0.89339
999.65738	0.89761
997.60047	0.90191
995.54356	0.90599
993.48665	0.90967
991.42974	0.91311
989.37284	0.91645
987.31593	0.91986
985.25902	0.92308
983.20211	0.92569
981.14520	0.92830
979.08830	0.93120
977.03139	0.93413
974.97448	0.93752
972.91757	0.94137
970.86066	0.94495
968.80375	0.94779
966.74685	0.94997
964.68994	0.95201
962.63303	0.95419
960.57612	0.95635
958.51921	0.95802
956.46231	0.95890
954.40540	0.95957
952.34849	0.96060
950.29158	0.96186
948.23467	0.96286
946.17776	0.96319
944.12086	0.96323
942.06395	0.96351
940.00704	0.96383
937.95013	0.96413
935.89322	0.96458
933.83632	0.96487
931.77941	0.96459
929.72250	0.96398
927.66559	0.96361
925.60868	0.96322
923.55177	0.96253
921.49487	0.96195
919.43796	0.96140
917.38105	0.96050
915.32414	0.95951
913.26723	0.95882
911.21033	0.95797
909.15342	0.95689
907.09651	0.95614
905.03960	0.95568
902.98269	0.95538
900.92578	0.95508
898.86888	0.95494
896.81197	0.95547
894.75506	0.95660
892.69815	0.95830
890.64124	0.96041
888.58434	0.96218
886.52743	0.96345
884.47052	0.96455
882.41361	0.96602
880.35670	0.96821
878.29979	0.97058
876.24289	0.97280
874.18598	0.97508
872.12907	0.97691
870.07216	0.97752
868.01525	0.97763
865.95835	0.97825
863.90144	0.97904
861.84453	0.97969
859.78762	0.98033
857.73071	0.98077
855.67380	0.98139
853.61690	0.98192
851.55999	0.98141
849.50308	0.98045
847.44617	0.97972
845.38926	0.97913
843.33236	0.97884
841.27545	0.97878
839.21854	0.97880
837.16163	0.97895
835.10472	0.97926
833.04781	0.97957
830.99091	0.98014
828.93400	0.98141
826.87709	0.98280
824.82018	0.98337
822.76327	0.98317
820.70637	0.98283
818.64946	0.98286
816.59255	0.98361
814.53564	0.98407
812.47873	0.98380
810.42182	0.98391
808.36492	0.98412
806.30801	0.98391
804.25110	0.98390
802.19419	0.98444
800.13728	0.98520
798.08038	0.98554
796.02347	0.98529
793.96656	0.98469
791.90965	0.98405
789.85274	0.98381
787.79583	0.98407
785.73893	0.98461
783.68202	0.98501
781.62511	0.98506
779.56820	0.98492
777.51129	0.98475
775.45439	0.98457
773.39748	0.98406
771.34057	0.98326
769.28366	0.98296
767.22675	0.98343
765.16984	0.98385
763.11294	0.98396
761.05603	0.98383
758.99912	0.98336
756.94221	0.98304
754.88530	0.98300
752.82839	0.98290
750.77149	0.98255
748.71458	0.98211
746.65767	0.98212
744.60076	0.98238
742.54385	0.98206
740.48695	0.98151
738.43004	0.98142
736.37313	0.98111
734.31622	0.98025
732.25931	0.97973
730.20240	0.97954
728.14550	0.97896
726.08859	0.97857
724.03168	0.97849
721.97477	0.97807
719.91786	0.97733
717.86096	0.97650
715.80405	0.97596
713.74714	0.97595
711.69023	0.97608
709.63332	0.97573
707.57641	0.97493
705.51951	0.97385
703.46260	0.97231
701.40569	0.97108
699.34878	0.97088
697.29187	0.97082
695.23497	0.96985
693.17806	0.96872
691.12115	0.96829
689.06424	0.96817
687.00733	0.96788
684.95042	0.96728
682.89352	0.96664
680.83661	0.96633
678.77970	0.96635
676.72279	0.96610
674.66588	0.96546
672.60898	0.96536
670.55207	0.96558
668.49516	0.96494
666.43825	0.96378
664.38134	0.96355
662.32443	0.96382
660.26753	0.96348
658.21062	0.96219
656.15371	0.96101
654.09680	0.96065
652.03989	0.96006
649.98299	0.95863
647.92608	0.95778
645.86917	0.95792
643.81226	0.95731
641.75535	0.95515
639.69844	0.95283
637.64154	0.95136
635.58463	0.94991
633.52772	0.94846
631.47081	0.94791
629.41390	0.94759
627.35700	0.94691
625.30009	0.94701
623.24318	0.94742
621.18627	0.94577
619.12936	0.94240
617.07245	0.93992
615.01555	0.93887
612.95864	0.93728
610.90173	0.93441
608.84482	0.93161
606.78791	0.93009
604.73101	0.93029
602.67410	0.93101
600.61719	0.93141
598.56028	0.93214
596.50337	0.93382
594.44646	0.93699
592.38956	0.94024
590.33265	0.94166
588.27574	0.94184
586.21883	0.94208
584.16192	0.94264
582.10502	0.94300
580.04811	0.94337
577.99120	0.94348
575.93429	0.94266
573.87738	0.94156
571.82047	0.94092
569.76357	0.94062
567.70666	0.94034
565.64975	0.94008
563.59284	0.93933
561.53593	0.93874
559.47903	0.93922
557.42212	0.93989
555.36521	0.94052
553.30830	0.94160
551.25139	0.94282
549.19448	0.94328
547.13758	0.94296
545.08067	0.94273
543.02376	0.94203
540.96685	0.94159
538.90994	0.94307
536.85304	0.94373
534.79613	0.94151
532.73922	0.93868
530.68231	0.93734
528.62540	0.93819
526.56849	0.93976
524.51159	0.94063
522.45468	0.94179
520.39777	0.94308
518.34086	0.94229
516.28395	0.94046
514.22705	0.94007
512.17014	0.93946
510.11323	0.93792
508.05632	0.93737
505.99941	0.93824
503.94250	0.93945
501.88560	0.93910
499.82869	0.93662
497.77178	0.93382
495.71487	0.93205
493.65796	0.93169
491.60106	0.93149
489.54415	0.93174
487.48724	0.93371
485.43033	0.93484
483.37342	0.93348
481.31651	0.93266
479.25961	0.93424
477.20270	0.93546
475.14579	0.93380
473.08888	0.93158
471.03197	0.93225
468.97507	0.93326
466.91816	0.93146
464.86125	0.93022
462.80434	0.93138
460.74743	0.93253
458.69052	0.93252
456.63362	0.93177
454.57671	0.93119
452.51980	0.93074
450.46289	0.92978
448.40598	0.93014
446.34908	0.93253
444.29217	0.93216
442.23526	0.92789
440.17835	0.92532
438.12144	0.92788
436.06453	0.93384
434.00763	0.93627
431.95072	0.93309
429.89381	0.93117
427.83690	0.93289
425.77999	0.93401
423.72309	0.93583
421.66618	0.94059
419.60927	0.94152
417.55236	0.93699
415.49545	0.93628
413.43854	0.93862
411.38164	0.94059
409.32473	0.94043
407.26782	0.93786
405.21091	0.93574
403.15400	0.93636
401.09710	0.93894
399.04019	0.94242
