3996.57260	0.99239
3994.51569	0.99230
3992.45878	0.99288
3990.40188	0.99311
3988.34497	0.99293
3986.28806	0.99286
3984.23115	0.99268
3982.17424	0.99207
3980.11733	0.99130
3978.06043	0.99123
3976.00352	0.99200
3973.94661	0.99278
3971.88970	0.99301
3969.83279	0.99268
3967.77589	0.99228
3965.71898	0.99209
3963.66207	0.99219
3961.60516	0.99258
3959.54825	0.99266
3957.49134	0.99251
3955.43444	0.99305
3953.37753	0.99405
3951.32062	0.99432
3949.26371	0.99342
3947.20680	0.99250
3945.14990	0.99281
3943.09299	0.99356
3941.03608	0.99329
3938.97917	0.99234
3936.92226	0.99200
3934.86535	0.99208
3932.80845	0.99174
3930.75154	0.99117
3928.69463	0.99101
3926.63772	0.99132
3924.58081	0.99169
3922.52391	0.99218
3920.46700	0.99248
3918.41009	0.99212
3916.35318	0.99172
3914.29627	0.99160
3912.23936	0.99185
3910.18246	0.99251
3908.12555	0.99277
3906.06864	0.99292
3904.01173	0.99374
3901.95482	0.99408
3899.89792	0.99360
3897.84101	0.99304
3895.78410	0.99265
3893.72719	0.99310
3891.67028	0.99414
3889.61337	0.99421
3887.55647	0.99337
3885.49956	0.99275
3883.44265	0.99300
3881.38574	0.99379
3879.32883	0.99388
3877.27193	0.99309
3875.21502	0.99272
3873.15811	0.99320
3871.10120	0.99363
3869.04429	0.99345
3866.98738	0.99285
3864.93048	0.99239
3862.87357	0.99250
3860.81666	0.99255
3858.75975	0.99195
3856.70284	0.99124
3854.64594	0.99147
3852.58903	0.99245
3850.53212	0.99276
3848.47521	0.99286
3846.41830	0.99300
3844.36139	0.99290
3842.30449	0.99232
3840.24758	0.99171
3838.19067	0.99224
3836.13376	0.99295
3834.07685	0.99308
3832.01995	0.99354
3829.96304	0.99386
3827.90613	0.99378
3825.84922	0.99364
3823.79231	0.99345
3821.73540	0.99308
3819.67850	0.99276
3817.62159	0.99282
3815.56468	0.99318
3813.50777	0.99331
3811.45086	0.99296
3809.39396	0.99243
3807.33705	0.99202
3805.28014	0.99197
3803.22323	0.99255
3801.16632	0.99345
3799.10941	0.99313
3797.05251	0.99247
3794.99560	0.99271
3792.93869	0.99273
3790.88178	0.99219
3788.82487	0.99197
3786.76796	0.99238
3784.71106	0.99292
3782.65415	0.99339
3780.59724	0.99386
3778.54033	0.99381
3776.48342	0.99341
3774.42652	0.99318
3772.36961	0.99285
3770.31270	0.99233
3768.25579	0.99172
3766.19888	0.99154
3764.14197	0.99217
3762.08507	0.99278
3760.02816	0.99300
3757.97125	0.99340
3755.91434	0.99393
3753.85743	0.99364
3751.80053	0.99296
3749.74362	0.99341
3747.68671	0.99455
3745.62980	0.99485
3743.57289	0.99319
3741.51598	0.99190
3739.45908	0.99248
3737.40217	0.99347
3735.34526	0.99354
3733.28835	0.99305
3731.23144	0.99272
3729.17454	0.99225
3727.11763	0.99168
3725.06072	0.99187
3723.00381	0.99300
3720.94690	0.99359
3718.88999	0.99291
3716.83309	0.99215
3714.77618	0.99232
3712.71927	0.99305
3710.66236	0.99333
3708.60545	0.99300
3706.54855	0.99281
3704.49164	0.99265
3702.43473	0.99235
3700.37782	0.99239
3698.32091	0.99273
3696.26400	0.99302
3694.20710	0.99320
3692.15019	0.99358
3690.09328	0.99415
3688.03637	0.99402
3685.97946	0.99366
3683.92256	0.99351
3681.86565	0.99296
3679.80874	0.99212
3677.75183	0.99171
3675.69492	0.99186
3673.63801	0.99208
3671.58111	0.99229
3669.52420	0.99214
3667.46729	0.99153
3665.41038	0.99111
3663.35347	0.99106
3661.29657	0.99107
3659.23966	0.99085
3657.18275	0.99058
3655.12584	0.99051
3653.06893	0.99037
3651.01202	0.99008
3648.95512	0.99004
3646.89821	0.98942
3644.84130	0.98867
3642.78439	0.98894
3640.72748	0.98970
3638.67058	0.98976
3636.61367	0.98892
3634.55676	0.98828
3632.49985	0.98834
3630.44294	0.98855
3628.38603	0.98868
3626.32913	0.98869
3624.27222	0.98844
3622.21531	0.98817
3620.15840	0.98809
3618.10149	0.98802
3616.04459	0.98767
3613.98768	0.98704
3611.93077	0.98666
3609.87386	0.98647
3607.81695	0.98626
3605.76004	0.98615
3603.70314	0.98577
3601.64623	0.98496
3599.58932	0.98439
3597.53241	0.98438
3595.47550	0.98434
3593.41860	0.98420
3591.36169	0.98425
3589.30478	0.98416
3587.24787	0.98369
3585.19096	0.98321
3583.13405	0.98281
3581.07715	0.98255
3579.02024	0.98227
3576.96333	0.98167
3574.90642	0.98111
3572.84951	0.98045
3570.79261	0.97949
3568.73570	0.97897
3566.67879	0.97909
3564.62188	0.97868
3562.56497	0.97762
3560.50806	0.97678
3558.45116	0.97628
3556.39425	0.97581
3554.33734	0.97559
3552.28043	0.97556
3550.22352	0.97532
3548.16662	0.97485
3546.10971	0.97395
3544.05280	0.97287
3541.99589	0.97215
3539.93898	0.97185
3537.88207	0.97153
3535.82517	0.97079
3533.76826	0.96984
3531.71135	0.96902
3529.65444	0.96858
3527.59753	0.96838
3525.54063	0.96840
3523.48372	0.96851
3521.42681	0.96788
3519.36990	0.96649
3517.31299	0.96583
3515.25608	0.96604
3513.19918	0.96598
3511.14227	0.96565
3509.08536	0.96527
3507.02845	0.96466
3504.97154	0.96406
3502.91464	0.96370
3500.85773	0.96333
3498.80082	0.96295
3496.74391	0.96258
3494.68700	0.96208
3492.63009	0.96161
3490.57319	0.96131
3488.51628	0.96130
3486.45937	0.96156
3484.40246	0.96191
3482.34555	0.96166
3480.28865	0.96107
3478.23174	0.96100
3476.17483	0.96070
3474.11792	0.96002
3472.06101	0.96017
3470.00410	0.96097
3467.94720	0.96147
3465.89029	0.96125
3463.83338	0.96053
3461.77647	0.96010
3459.71956	0.96016
3457.66266	0.96018
3455.60575	0.96019
3453.54884	0.96039
3451.49193	0.96057
3449.43502	0.96084
3447.37811	0.96113
3445.32121	0.96116
3443.26430	0.96130
3441.20739	0.96174
3439.15048	0.96192
3437.09357	0.96203
3435.03667	0.96254
3432.97976	0.96301
3430.92285	0.96285
3428.86594	0.96211
3426.80903	0.96136
3424.75212	0.96128
3422.69522	0.96222
3420.63831	0.96340
3418.58140	0.96403
3416.52449	0.96433
3414.46758	0.96460
3412.41068	0.96512
3410.35377	0.96589
3408.29686	0.96670
3406.23995	0.96699
3404.18304	0.96647
3402.12613	0.96599
3400.06923	0.96615
3398.01232	0.96638
3395.95541	0.96630
3393.89850	0.96629
3391.84159	0.96640
3389.78469	0.96646
3387.72778	0.96675
3385.67087	0.96733
3383.61396	0.96744
3381.55705	0.96691
3379.50014	0.96695
3377.44324	0.96788
3375.38633	0.96869
3373.32942	0.96904
3371.27251	0.96922
3369.21560	0.96924
3367.15870	0.96917
3365.10179	0.96926
3363.04488	0.96959
3360.98797	0.97001
3358.93106	0.97008
3356.87415	0.96987
3354.81725	0.96999
3352.76034	0.97035
3350.70343	0.97076
3348.64652	0.97112
3346.58961	0.97141
3344.53271	0.97181
3342.47580	0.97179
3340.41889	0.97120
3338.36198	0.97104
3336.30507	0.97148
3334.24816	0.97214
3332.19126	0.97287
3330.13435	0.97316
3328.07744	0.97296
3326.02053	0.97262
3323.96362	0.97238
3321.90672	0.97308
3319.84981	0.97445
3317.79290	0.97504
3315.73599	0.97513
3313.67908	0.97571
3311.62217	0.97646
3309.56527	0.97671
3307.50836	0.97670
3305.45145	0.97697
3303.39454	0.97723
3301.33763	0.97702
3299.28073	0.97698
3297.22382	0.97761
3295.16691	0.97793
3293.11000	0.97730
3291.05309	0.97679
3288.99618	0.97733
3286.93928	0.97795
3284.88237	0.97806
3282.82546	0.97852
3280.76855	0.97901
3278.71164	0.97871
3276.65474	0.97809
3274.59783	0.97806
3272.54092	0.97866
3270.48401	0.97923
3268.42710	0.97958
3266.37019	0.98002
3264.31329	0.98057
3262.25638	0.98102
3260.19947	0.98094
3258.14256	0.98035
3256.08565	0.98005
3254.02875	0.98035
3251.97184	0.98086
3249.91493	0.98119
3247.85802	0.98108
3245.80111	0.98069
3243.74420	0.98059
3241.68730	0.98102
3239.63039	0.98166
3237.57348	0.98232
3235.51657	0.98271
3233.45966	0.98277
3231.40276	0.98282
3229.34585	0.98286
3227.28894	0.98277
3225.23203	0.98276
3223.17512	0.98300
3221.11821	0.98326
3219.06131	0.98302
3217.00440	0.98285
3214.94749	0.98334
3212.89058	0.98373
3210.83367	0.98375
3208.77677	0.98400
3206.71986	0.98430
3204.66295	0.98413
3202.60604	0.98413
3200.54913	0.98436
3198.49222	0.98422
3196.43532	0.98446
3194.37841	0.98523
3192.32150	0.98558
3190.26459	0.98552
3188.20768	0.98551
3186.15078	0.98559
3184.09387	0.98569
3182.03696	0.98582
3179.98005	0.98584
3177.92314	0.98574
3175.86623	0.98572
3173.80933	0.98557
3171.75242	0.98538
3169.69551	0.98569
3167.63860	0.98613
3165.58169	0.98628
3163.52479	0.98644
3161.46788	0.98665
3159.41097	0.98687
3157.35406	0.98715
3155.29715	0.98727
3153.24024	0.98714
3151.18334	0.98699
3149.12643	0.98703
3147.06952	0.98721
3145.01261	0.98736
3142.95570	0.98770
3140.89880	0.98811
3138.84189	0.98796
3136.78498	0.98736
3134.72807	0.98719
3132.67116	0.98774
3130.61425	0.98859
3128.55735	0.98914
3126.50044	0.98915
3124.44353	0.98913
3122.38662	0.98921
3120.32971	0.98899
3118.27281	0.98845
3116.21590	0.98808
3114.15899	0.98822
3112.10208	0.98844
3110.04517	0.98832
3107.98826	0.98837
3105.93136	0.98878
3103.87445	0.98884
3101.81754	0.98849
3099.76063	0.98810
3097.70372	0.98790
3095.64682	0.98816
3093.58991	0.98850
3091.53300	0.98861
3089.47609	0.98871
3087.41918	0.98858
3085.36227	0.98840
3083.30537	0.98869
3081.24846	0.98904
3079.19155	0.98918
3077.13464	0.98947
3075.07773	0.98985
3073.02083	0.98986
3070.96392	0.98952
3068.90701	0.98923
3066.85010	0.98917
3064.79319	0.98917
3062.73628	0.98905
3060.67938	0.98888
3058.62247	0.98904
3056.56556	0.98933
3054.50865	0.98928
3052.45174	0.98915
3050.39484	0.98925
3048.33793	0.98927
3046.28102	0.98906
3044.22411	0.98880
3042.16720	0.98867
3040.11029	0.98881
3038.05339	0.98901
3035.99648	0.98892
3033.93957	0.98877
3031.88266	0.98873
3029.82575	0.98840
3027.76885	0.98796
3025.71194	0.98798
3023.65503	0.98853
3021.59812	0.98912
3019.54121	0.98916
3017.48430	0.98892
3015.42740	0.98886
3013.37049	0.98878
3011.31358	0.98856
3009.25667	0.98837
3007.19976	0.98825
3005.14286	0.98792
3003.08595	0.98735
3001.02904	0.98697
2998.97213	0.98701
2996.91522	0.98730
2994.85831	0.98747
2992.80141	0.98735
2990.74450	0.98722
2988.68759	0.98737
2986.63068	0.98768
2984.57377	0.98755
2982.51687	0.98693
2980.45996	0.98616
2978.40305	0.98547
2976.34614	0.98514
2974.28923	0.98507
2972.23232	0.98496
2970.17542	0.98439
2968.11851	0.98348
2966.06160	0.98297
2964.00469	0.98277
2961.94778	0.98243
2959.89088	0.98198
2957.83397	0.98149
2955.77706	0.98098
2953.72015	0.98059
2951.66324	0.98038
2949.60633	0.98038
2947.54943	0.98038
2945.49252	0.98006
2943.43561	0.97963
2941.37870	0.97926
2939.32179	0.97911
2937.26489	0.97956
2935.20798	0.97998
2933.15107	0.97971
2931.09416	0.97953
2929.03725	0.97978
2926.98034	0.97971
2924.92344	0.97960
2922.86653	0.97990
2920.80962	0.97979
2918.75271	0.97943
2916.69580	0.97939
2914.63890	0.97945
2912.58199	0.97948
2910.52508	0.97945
2908.46817	0.97940
2906.41126	0.97936
2904.35435	0.97892
2902.29745	0.97829
2900.24054	0.97821
2898.18363	0.97838
2896.12672	0.97804
2894.06981	0.97768
2892.01291	0.97807
2889.95600	0.97873
2887.89909	0.97884
2885.84218	0.97860
2883.78527	0.97858
2881.72836	0.97855
2879.67146	0.97859
2877.61455	0.97904
2875.55764	0.97954
2873.50073	0.97991
2871.44382	0.98022
2869.38692	0.98047
2867.33001	0.98093
2865.27310	0.98170
2863.21619	0.98259
2861.15928	0.98326
2859.10237	0.98345
2857.04547	0.98346
2854.98856	0.98365
2852.93165	0.98410
2850.87474	0.98488
2848.81783	0.98578
2846.76093	0.98633
2844.70402	0.98634
2842.64711	0.98646
2840.59020	0.98709
2838.53329	0.98783
2836.47638	0.98803
2834.41948	0.98760
2832.36257	0.98723
2830.30566	0.98734
2828.24875	0.98766
2826.19184	0.98785
2824.13494	0.98792
2822.07803	0.98808
2820.02112	0.98838
2817.96421	0.98868
2815.90730	0.98888
2813.85039	0.98904
2811.79349	0.98916
2809.73658	0.98923
2807.67967	0.98916
2805.62276	0.98914
2803.56585	0.98910
2801.50895	0.98890
2799.45204	0.98900
2797.39513	0.98947
2795.33822	0.98953
2793.28131	0.98902
2791.22440	0.98884
2789.16750	0.98933
2787.11059	0.98977
2785.05368	0.98977
2782.99677	0.98975
2780.93986	0.98988
2778.88296	0.98997
2776.82605	0.98986
2774.76914	0.98961
2772.71223	0.98946
2770.65532	0.98968
2768.59841	0.99008
2766.54151	0.99029
2764.48460	0.99053
2762.42769	0.99074
2760.37078	0.99054
2758.31387	0.99037
2756.25697	0.99057
2754.20006	0.99069
2752.14315	0.99049
2750.08624	0.99026
2748.02933	0.99007
2745.97242	0.98993
2743.91552	0.99000
2741.85861	0.99019
2739.80170	0.99036
2737.74479	0.99047
2735.68788	0.99032
2733.63098	0.98996
2731.57407	0.98961
2729.51716	0.98952
2727.46025	0.98978
2725.40334	0.99019
2723.34643	0.99039
2721.28953	0.99029
2719.23262	0.99020
2717.17571	0.99026
2715.11880	0.99027
2713.06189	0.99024
2711.00499	0.99042
2708.94808	0.99075
2706.89117	0.99109
2704.83426	0.99125
2702.77735	0.99111
2700.72044	0.99101
2698.66354	0.99119
2696.60663	0.99108
2694.54972	0.99058
2692.49281	0.99023
2690.43590	0.99040
2688.37900	0.99111
2686.32209	0.99177
2684.26518	0.99169
2682.20827	0.99098
2680.15136	0.99028
2678.09445	0.99006
2676.03755	0.99023
2673.98064	0.99053
2671.92373	0.99085
2669.86682	0.99119
2667.80991	0.99143
2665.75301	0.99139
2663.69610	0.99101
2661.63919	0.99031
2659.58228	0.98998
2657.52537	0.99033
2655.46846	0.99047
2653.41156	0.99001
2651.35465	0.98966
2649.29774	0.98993
2647.24083	0.99061
2645.18392	0.99119
2643.12702	0.99119
2641.07011	0.99084
2639.01320	0.99082
2636.95629	0.99110
2634.89938	0.99133
2632.84247	0.99123
2630.78557	0.99102
2628.72866	0.99111
2626.67175	0.99109
2624.61484	0.99078
2622.55793	0.99099
2620.50103	0.99144
2618.44412	0.99118
2616.38721	0.99051
2614.33030	0.99006
2612.27339	0.99022
2610.21648	0.99092
2608.15958	0.99163
2606.10267	0.99222
2604.04576	0.99244
2601.98885	0.99208
2599.93194	0.99157
2597.87504	0.99131
2595.81813	0.99135
2593.76122	0.99134
2591.70431	0.99097
2589.64740	0.99057
2587.59049	0.99053
2585.53359	0.99110
2583.47668	0.99199
2581.41977	0.99247
2579.36286	0.99244
2577.30595	0.99224
2575.24905	0.99197
2573.19214	0.99187
2571.13523	0.99202
2569.07832	0.99182
2567.02141	0.99138
2564.96450	0.99134
2562.90760	0.99154
2560.85069	0.99204
2558.79378	0.99290
2556.73687	0.99337
2554.67996	0.99318
2552.62306	0.99299
2550.56615	0.99307
2548.50924	0.99288
2546.45233	0.99256
2544.39542	0.99259
2542.33851	0.99262
2540.28161	0.99240
2538.22470	0.99220
2536.16779	0.99192
2534.11088	0.99160
2532.05397	0.99193
2529.99707	0.99234
2527.94016	0.99153
2525.88325	0.99073
2523.82634	0.99141
2521.76943	0.99233
2519.71252	0.99247
2517.65562	0.99256
2515.59871	0.99275
2513.54180	0.99271
2511.48489	0.99260
2509.42798	0.99250
2507.37108	0.99269
2505.31417	0.99299
2503.25726	0.99274
2501.20035	0.99238
2499.14344	0.99261
2497.08653	0.99319
2495.02963	0.99338
2492.97272	0.99289
2490.91581	0.99238
2488.85890	0.99237
2486.80199	0.99266
2484.74509	0.99289
2482.68818	0.99299
2480.63127	0.99277
2478.57436	0.99240
2476.51745	0.99248
2474.46054	0.99280
2472.40364	0.99276
2470.34673	0.99263
2468.28982	0.99274
2466.23291	0.99294
2464.17600	0.99308
2462.11910	0.99288
2460.06219	0.99250
2458.00528	0.99238
2455.94837	0.99283
2453.89146	0.99319
2451.83455	0.99259
2449.77765	0.99192
2447.72074	0.99223
2445.66383	0.99290
2443.60692	0.99295
2441.55001	0.99281
2439.49311	0.99293
2437.43620	0.99291
2435.37929	0.99295
2433.32238	0.99302
2431.26547	0.99298
2429.20856	0.99307
2427.15166	0.99298
2425.09475	0.99259
2423.03784	0.99236
2420.98093	0.99240
2418.92402	0.99270
2416.86712	0.99310
2414.81021	0.99351
2412.75330	0.99401
2410.69639	0.99414
2408.63948	0.99407
2406.58257	0.99417
2404.52567	0.99380
2402.46876	0.99310
2400.41185	0.99291
2398.35494	0.99295
2396.29803	0.99292
2394.24113	0.99302
2392.18422	0.99326
2390.12731	0.99360
2388.07040	0.99363
2386.01349	0.99317
2383.95658	0.99277
2381.89968	0.99301
2379.84277	0.99367
2377.78586	0.99395
2375.72895	0.99386
2373.67204	0.99389
2371.61514	0.99401
2369.55823	0.99405
2367.50132	0.99354
2365.44441	0.99288
2363.38750	0.99337
2361.33059	0.99386
2359.27369	0.99323
2357.21678	0.99259
2355.15987	0.99221
2353.10296	0.99203
2351.04605	0.99240
2348.98915	0.99286
2346.93224	0.99299
2344.87533	0.99281
2342.81842	0.99237
2340.76151	0.99233
2338.70460	0.99329
2336.64770	0.99402
2334.59079	0.99354
2332.53388	0.99292
2330.47697	0.99315
2328.42006	0.99343
2326.36316	0.99263
2324.30625	0.99159
2322.24934	0.99154
2320.19243	0.99181
2318.13552	0.99219
2316.07861	0.99305
2314.02171	0.99369
2311.96480	0.99349
2309.90789	0.99296
2307.85098	0.99300
2305.79407	0.99321
2303.73717	0.99299
2301.68026	0.99264
2299.62335	0.99233
2297.56644	0.99210
2295.50953	0.99199
2293.45262	0.99205
2291.39572	0.99250
2289.33881	0.99296
2287.28190	0.99268
2285.22499	0.99191
2283.16808	0.99145
2281.11117	0.99148
2279.05427	0.99198
2276.99736	0.99257
2274.94045	0.99291
2272.88354	0.99332
2270.82663	0.99290
2268.76973	0.99113
2266.71282	0.99028
2264.65591	0.99129
2262.59900	0.99184
2260.54209	0.99120
2258.48518	0.99096
2256.42828	0.99156
2254.37137	0.99247
2252.31446	0.99330
2250.25755	0.99390
2248.20064	0.99410
2246.14374	0.99378
2244.08683	0.99368
2242.02992	0.99356
2239.97301	0.99276
2237.91610	0.99261
2235.85919	0.99369
2233.80229	0.99467
2231.74538	0.99485
2229.68847	0.99451
2227.63156	0.99423
2225.57465	0.99411
2223.51775	0.99357
2221.46084	0.99336
2219.40393	0.99387
2217.34702	0.99386
2215.29011	0.99400
2213.23320	0.99432
2211.17630	0.99292
2209.11939	0.99107
2207.06248	0.99183
2205.00557	0.99437
2202.94866	0.99618
2200.89176	0.99684
2198.83485	0.99583
2196.77794	0.99429
2194.72103	0.99413
2192.66412	0.99335
2190.60721	0.99128
2188.55031	0.99103
2186.49340	0.99320
2184.43649	0.99474
2182.37958	0.99428
2180.32267	0.99323
2178.26577	0.99227
2176.20886	0.99139
2174.15195	0.99063
2172.09504	0.99042
2170.03813	0.99074
2167.98122	0.99062
2165.92432	0.99032
2163.86741	0.99078
2161.81050	0.99227
2159.75359	0.99381
2157.69668	0.99428
2155.63978	0.99465
2153.58287	0.99472
2151.52596	0.99387
2149.46905	0.99330
2147.41214	0.99315
2145.35523	0.99297
2143.29833	0.99364
2141.24142	0.99537
2139.18451	0.99692
2137.12760	0.99693
2135.07069	0.99577
2133.01379	0.99459
2130.95688	0.99362
2128.89997	0.99322
2126.84306	0.99303
2124.78615	0.99254
2122.72924	0.99253
2120.67234	0.99306
2118.61543	0.99328
2116.55852	0.99291
2114.50161	0.99240
2112.44470	0.99251
2110.38780	0.99289
2108.33089	0.99294
2106.27398	0.99286
2104.21707	0.99296
2102.16016	0.99319
2100.10325	0.99334
2098.04635	0.99412
2095.98944	0.99526
2093.93253	0.99562
2091.87562	0.99490
2089.81871	0.99351
2087.76181	0.99325
2085.70490	0.99374
2083.64799	0.99305
2081.59108	0.99257
2079.53417	0.99336
2077.47726	0.99435
2075.42036	0.99507
2073.36345	0.99548
2071.30654	0.99537
2069.24963	0.99482
2067.19272	0.99447
2065.13582	0.99409
2063.07891	0.99353
2061.02200	0.99300
2058.96509	0.99168
2056.90818	0.99091
2054.85127	0.99171
2052.79437	0.99217
2050.73746	0.99229
2048.68055	0.99267
2046.62364	0.99268
2044.56673	0.99277
2042.50983	0.99210
2040.45292	0.99093
2038.39601	0.99192
2036.33910	0.99490
2034.28219	0.99789
2032.22528	0.99923
2030.16838	0.99855
2028.11147	0.99594
2026.05456	0.99232
2023.99765	0.99159
2021.94074	0.99470
2019.88384	0.99745
2017.82693	0.99713
2015.77002	0.99490
2013.71311	0.99344
2011.65620	0.99236
2009.59929	0.98991
2007.54239	0.98899
2005.48548	0.99045
2003.42857	0.99143
2001.37166	0.99211
1999.31475	0.99328
1997.25785	0.99460
1995.20094	0.99584
1993.14403	0.99617
1991.08712	0.99554
1989.03021	0.99579
1986.97330	0.99670
1984.91640	0.99615
1982.85949	0.99399
1980.80258	0.99249
1978.74567	0.99333
1976.68876	0.99463
1974.63186	0.99448
1972.57495	0.99364
1970.51804	0.99403
1968.46113	0.99621
1966.40422	0.99771
1964.34731	0.99742
1962.29041	0.99634
1960.23350	0.99563
1958.17659	0.99554
1956.11968	0.99495
1954.06277	0.99449
1952.00587	0.99458
1949.94896	0.99427
1947.89205	0.99415
1945.83514	0.99531
1943.77823	0.99718
1941.72132	0.99734
1939.66442	0.99573
1937.60751	0.99469
1935.55060	0.99453
1933.49369	0.99491
1931.43678	0.99551
1929.37988	0.99591
1927.32297	0.99621
1925.26606	0.99593
1923.20915	0.99509
1921.15224	0.99438
1919.09533	0.99389
1917.03843	0.99427
1914.98152	0.99540
1912.92461	0.99615
1910.86770	0.99588
1908.81079	0.99479
1906.75389	0.99379
1904.69698	0.99290
1902.64007	0.99242
1900.58316	0.99309
1898.52625	0.99433
1896.46934	0.99481
1894.41244	0.99419
1892.35553	0.99360
1890.29862	0.99389
1888.24171	0.99481
1886.18480	0.99549
1884.12790	0.99550
1882.07099	0.99493
1880.01408	0.99445
1877.95717	0.99449
1875.90026	0.99494
1873.84335	0.99524
1871.78645	0.99482
1869.72954	0.99401
1867.67263	0.99346
1865.61572	0.99355
1863.55881	0.99433
1861.50191	0.99519
1859.44500	0.99544
1857.38809	0.99501
1855.33118	0.99413
1853.27427	0.99354
1851.21736	0.99370
1849.16046	0.99413
1847.10355	0.99426
1845.04664	0.99442
1842.98973	0.99484
1840.93282	0.99481
1838.87592	0.99445
1836.81901	0.99412
1834.76210	0.99397
1832.70519	0.99390
1830.64828	0.99356
1828.59137	0.99293
1826.53447	0.99294
1824.47756	0.99364
1822.42065	0.99381
1820.36374	0.99331
1818.30683	0.99300
1816.24993	0.99293
1814.19302	0.99275
1812.13611	0.99261
1810.07920	0.99240
1808.02229	0.99186
1805.96538	0.99121
1803.90848	0.99089
1801.85157	0.99068
1799.79466	0.99023
1797.73775	0.98977
1795.68084	0.98949
1793.62394	0.98944
1791.56703	0.98936
1789.51012	0.98881
1787.45321	0.98758
1785.39630	0.98606
1783.33939	0.98478
1781.28249	0.98368
1779.22558	0.98250
1777.16867	0.98097
1775.11176	0.97861
1773.05485	0.97513
1770.99795	0.97089
1768.94104	0.96598
1766.88413	0.95935
1764.82722	0.95136
1762.77031	0.94154
1760.71340	0.92950
1758.65650	0.91753
1756.59959	0.90539
1754.54268	0.89465
1752.48577	0.88565
1750.42886	0.87608
1748.37196	0.86729
1746.31505	0.86113
1744.25814	0.85678
1742.20123	0.85369
1740.14432	0.85163
1738.08741	0.85085
1736.03051	0.85128
1733.97360	0.85225
1731.91669	0.85420
1729.85978	0.85749
1727.80287	0.86189
1725.74597	0.86696
1723.68906	0.87305
1721.63215	0.87978
1719.57524	0.88696
1717.51833	0.89642
1715.46142	0.90727
1713.40452	0.91654
1711.34761	0.92451
1709.29070	0.93178
1707.23379	0.93898
1705.17688	0.94605
1703.11998	0.95158
1701.06307	0.95648
1699.00616	0.96121
1696.94925	0.96459
1694.89234	0.96776
1692.83543	0.97026
1690.77853	0.97179
1688.72162	0.97311
1686.66471	0.97437
1684.60780	0.97537
1682.55089	0.97611
1680.49399	0.97687
1678.43708	0.97776
1676.38017	0.97855
1674.32326	0.97878
1672.26635	0.97892
1670.20944	0.97952
1668.15254	0.98003
1666.09563	0.97989
1664.03872	0.97940
1661.98181	0.97921
1659.92490	0.97934
1657.86800	0.97914
1655.81109	0.97841
1653.75418	0.97731
1651.69727	0.97663
1649.64036	0.97642
1647.58345	0.97616
1645.52655	0.97644
1643.46964	0.97712
1641.41273	0.97761
1639.35582	0.97801
1637.29891	0.97823
1635.24201	0.97827
1633.18510	0.97844
1631.12819	0.97854
1629.07128	0.97870
1627.01437	0.97922
1624.95746	0.97976
1622.90056	0.98018
1620.84365	0.98076
1618.78674	0.98127
1616.72983	0.98157
1614.67292	0.98211
1612.61602	0.98273
1610.55911	0.98315
1608.50220	0.98352
1606.44529	0.98404
1604.38838	0.98451
1602.33147	0.98481
1600.27457	0.98522
1598.21766	0.98553
1596.16075	0.98544
1594.10384	0.98536
1592.04693	0.98570
1589.99003	0.98608
1587.93312	0.98622
1585.87621	0.98632
1583.81930	0.98633
1581.76239	0.98628
1579.70548	0.98644
1577.64858	0.98677
1575.59167	0.98686
1573.53476	0.98677
1571.47785	0.98681
1569.42094	0.98679
1567.36404	0.98688
1565.30713	0.98741
1563.25022	0.98793
1561.19331	0.98801
1559.13640	0.98777
1557.07949	0.98766
1555.02259	0.98770
1552.96568	0.98780
1550.90877	0.98809
1548.85186	0.98821
1546.79495	0.98784
1544.73805	0.98730
1542.68114	0.98707
1540.62423	0.98747
1538.56732	0.98827
1536.51041	0.98846
1534.45350	0.98824
1532.39660	0.98813
1530.33969	0.98813
1528.28278	0.98836
1526.22587	0.98877
1524.16896	0.98893
1522.11206	0.98904
1520.05515	0.98916
1517.99824	0.98893
1515.94133	0.98867
1513.88442	0.98860
1511.82751	0.98844
1509.77061	0.98838
1507.71370	0.98859
1505.65679	0.98831
1503.59988	0.98808
1501.54297	0.98831
1499.48607	0.98851
1497.42916	0.98824
1495.37225	0.98773
1493.31534	0.98735
1491.25843	0.98687
1489.20152	0.98630
1487.14462	0.98607
1485.08771	0.98600
1483.03080	0.98578
1480.97389	0.98549
1478.91698	0.98499
1476.86008	0.98405
1474.80317	0.98291
1472.74626	0.98155
1470.68935	0.98010
1468.63244	0.97892
1466.57553	0.97752
1464.51863	0.97563
1462.46172	0.97379
1460.40481	0.97233
1458.34790	0.97098
1456.29099	0.96955
1454.23409	0.96844
1452.17718	0.96755
1450.12027	0.96650
1448.06336	0.96501
1446.00645	0.96333
1443.94954	0.96186
1441.89264	0.96050
1439.83573	0.95921
1437.77882	0.95780
1435.72191	0.95618
1433.66500	0.95527
1431.60810	0.95524
1429.55119	0.95557
1427.49428	0.95589
1425.43737	0.95634
1423.38046	0.95694
1421.32355	0.95745
1419.26665	0.95792
1417.20974	0.95852
1415.15283	0.95917
1413.09592	0.95971
1411.03901	0.96007
1408.98211	0.96012
1406.92520	0.95978
1404.86829	0.95938
1402.81138	0.95926
1400.75447	0.95913
1398.69756	0.95832
1396.64066	0.95651
1394.58375	0.95380
1392.52684	0.95067
1390.46993	0.94708
1388.41302	0.94217
1386.35612	0.93595
1384.29921	0.92964
1382.24230	0.92320
1380.18539	0.91640
1378.12848	0.90999
1376.07157	0.90455
1374.01467	0.90019
1371.95776	0.89774
1369.90085	0.89780
1367.84394	0.90037
1365.78703	0.90532
1363.73013	0.91255
1361.67322	0.92158
1359.61631	0.93054
1357.55940	0.93840
1355.50249	0.94503
1353.44558	0.95017
1351.38868	0.95373
1349.33177	0.95621
1347.27486	0.95803
1345.21795	0.95917
1343.16104	0.95986
1341.10414	0.96036
1339.04723	0.96048
1336.99032	0.96024
1334.93341	0.95987
1332.87650	0.95936
1330.81959	0.95891
1328.76269	0.95867
1326.70578	0.95844
1324.64887	0.95798
1322.59196	0.95720
1320.53505	0.95645
1318.47815	0.95596
1316.42124	0.95558
1314.36433	0.95557
1312.30742	0.95596
1310.25051	0.95612
1308.19360	0.95590
1306.13670	0.95563
1304.07979	0.95532
1302.02288	0.95487
1299.96597	0.95432
1297.90906	0.95365
1295.85216	0.95259
1293.79525	0.95087
1291.73834	0.94857
1289.68143	0.94591
1287.62452	0.94332
1285.56761	0.94089
1283.51071	0.93798
1281.45380	0.93428
1279.39689	0.93004
1277.33998	0.92519
1275.28307	0.91962
1273.22617	0.91369
1271.16926	0.90760
1269.11235	0.90119
1267.05544	0.89437
1264.99853	0.88715
1262.94162	0.87954
1260.88472	0.87171
1258.82781	0.86356
1256.77090	0.85508
1254.71399	0.84648
1252.65708	0.83781
1250.60018	0.82929
1248.54327	0.82106
1246.48636	0.81295
1244.42945	0.80516
1242.37254	0.79794
1240.31563	0.79117
1238.25873	0.78488
1236.20182	0.77944
1234.14491	0.77513
1232.08800	0.77225
1230.03109	0.77133
1227.97419	0.77264
1225.91728	0.77609
1223.86037	0.78196
1221.80346	0.79067
1219.74655	0.80199
1217.68964	0.81518
1215.63274	0.82965
1213.57583	0.84499
1211.51892	0.86002
1209.46201	0.87350
1207.40510	0.88562
1205.34820	0.89692
1203.29129	0.90717
1201.23438	0.91616
1199.17747	0.92397
1197.12056	0.93066
1195.06365	0.93615
1193.00675	0.94026
1190.94984	0.94310
1188.89293	0.94504
1186.83602	0.94581
1184.77911	0.94508
1182.72221	0.94323
1180.66530	0.94063
1178.60839	0.93745
1176.55148	0.93399
1174.49457	0.93035
1172.43766	0.92643
1170.38076	0.92231
1168.32385	0.91825
1166.26694	0.91457
1164.21003	0.91185
1162.15312	0.91025
1160.09622	0.90949
1158.03931	0.90981
1155.98240	0.91135
1153.92549	0.91359
1151.86858	0.91613
1149.81167	0.91843
1147.75477	0.92006
1145.69786	0.92102
1143.64095	0.92121
1141.58404	0.92047
1139.52713	0.91885
1137.47023	0.91656
1135.41332	0.91361
1133.35641	0.91003
1131.29950	0.90611
1129.24259	0.90231
1127.18568	0.89895
1125.12878	0.89607
1123.07187	0.89338
1121.01496	0.89082
1118.95805	0.88860
1116.90114	0.88655
1114.84424	0.88456
1112.78733	0.88282
1110.73042	0.88115
1108.67351	0.87911
1106.61660	0.87699
1104.55969	0.87509
1102.50279	0.87278
1100.44588	0.86949
1098.38897	0.86565
1096.33206	0.86161
1094.27515	0.85708
1092.21825	0.85182
1090.16134	0.84584
1088.10443	0.83935
1086.04752	0.83255
1083.99061	0.82551
1081.93370	0.81820
1079.87680	0.81098
1077.81989	0.80416
1075.76298	0.79760
1073.70607	0.79158
1071.64916	0.78642
1069.59226	0.78171
1067.53535	0.77700
1065.47844	0.77255
1063.42153	0.76869
1061.36462	0.76511
1059.30771	0.76150
1057.25081	0.75781
1055.19390	0.75383
1053.13699	0.74947
1051.08008	0.74523
1049.02317	0.74165
1046.96627	0.73845
1044.90936	0.73543
1042.85245	0.73287
1040.79554	0.73046
1038.73863	0.72803
1036.68172	0.72639
1034.62482	0.72626
1032.56791	0.72794
1030.51100	0.73173
1028.45409	0.73765
1026.39718	0.74530
1024.34028	0.75427
1022.28337	0.76429
1020.22646	0.77497
1018.16955	0.78580
1016.11264	0.79639
1014.05573	0.80626
1011.99883	0.81541
1009.94192	0.82415
1007.88501	0.83244
1005.82810	0.83995
1003.77119	0.84668
1001.71429	0.85298
999.65738	0.85913
997.60047	0.86531
995.54356	0.87119
993.48665	0.87619
991.42974	0.88053
989.37284	0.88481
987.31593	0.88922
985.25902	0.89349
983.20211	0.89738
981.14520	0.90102
979.08830	0.90454
977.03139	0.90827
974.97448	0.91276
972.91757	0.91764
970.86066	0.92229
968.80375	0.92639
966.74685	0.92976
964.68994	0.93271
962.63303	0.93559
960.57612	0.93840
958.51921	0.94077
956.46231	0.94255
954.40540	0.94396
952.34849	0.94529
950.29158	0.94663
948.23467	0.94773
946.17776	0.94829
944.12086	0.94831
942.06395	0.94834
940.00704	0.94878
937.95013	0.94933
935.89322	0.94953
933.83632	0.94955
931.77941	0.94965
929.72250	0.94939
927.66559	0.94859
925.60868	0.94755
923.55177	0.94664
921.49487	0.94617
919.43796	0.94547
917.38105	0.94409
915.32414	0.94261
913.26723	0.94128
911.21033	0.93978
909.15342	0.93815
907.09651	0.93709
905.03960	0.93664
902.98269	0.93640
900.92578	0.93635
898.86888	0.93668
896.81197	0.93761
894.75506	0.93901
892.69815	0.94071
890.64124	0.94293
888.58434	0.94552
886.52743	0.94783
884.47052	0.94993
882.41361	0.95219
880.35670	0.95475
878.29979	0.95764
876.24289	0.96040
874.18598	0.96284
872.12907	0.96504
870.07216	0.96665
868.01525	0.96781
865.95835	0.96900
863.90144	0.96990
861.84453	0.97071
859.78762	0.97173
857.73071	0.97246
855.67380	0.97293
853.61690	0.97297
851.55999	0.97226
849.50308	0.97119
847.44617	0.97051
845.38926	0.97031
843.33236	0.97016
841.27545	0.96989
839.21854	0.96960
837.16163	0.96951
835.10472	0.97014
833.04781	0.97137
830.99091	0.97222
828.93400	0.97263
826.87709	0.97312
824.82018	0.97364
822.76327	0.97434
820.70637	0.97503
818.64946	0.97528
816.59255	0.97556
814.53564	0.97589
812.47873	0.97632
810.42182	0.97692
808.36492	0.97669
806.30801	0.97592
804.25110	0.97543
802.19419	0.97532
800.13728	0.97596
798.08038	0.97671
796.02347	0.97648
793.96656	0.97598
791.90965	0.97624
789.85274	0.97632
787.79583	0.97552
785.73893	0.97491
783.68202	0.97493
781.62511	0.97502
779.56820	0.97506
777.51129	0.97506
775.45439	0.97488
773.39748	0.97477
771.34057	0.97490
769.28366	0.97499
767.22675	0.97517
765.16984	0.97550
763.11294	0.97555
761.05603	0.97501
758.99912	0.97413
756.94221	0.97358
754.88530	0.97338
752.82839	0.97311
750.77149	0.97268
748.71458	0.97251
746.65767	0.97274
744.60076	0.97269
742.54385	0.97217
740.48695	0.97177
738.43004	0.97157
736.37313	0.97094
734.31622	0.96991
732.25931	0.96930
730.20240	0.96905
728.14550	0.96843
726.08859	0.96754
724.03168	0.96666
721.97477	0.96577
719.91786	0.96505
717.86096	0.96450
715.80405	0.96401
713.74714	0.96360
711.69023	0.96314
709.63332	0.96268
707.57641	0.96214
705.51951	0.96116
703.46260	0.95963
701.40569	0.95811
699.34878	0.95721
697.29187	0.95666
695.23497	0.95585
693.17806	0.95474
691.12115	0.95338
689.06424	0.95188
687.00733	0.95077
684.95042	0.95016
682.89352	0.95001
680.83661	0.95016
678.77970	0.94991
676.72279	0.94908
674.66588	0.94823
672.60898	0.94812
670.55207	0.94849
668.49516	0.94795
666.43825	0.94646
664.38134	0.94561
662.32443	0.94520
660.26753	0.94455
658.21062	0.94352
656.15371	0.94224
654.09680	0.94068
652.03989	0.93895
649.98299	0.93719
647.92608	0.93642
645.86917	0.93655
643.81226	0.93550
641.75535	0.93295
639.69844	0.93068
637.64154	0.92900
635.58463	0.92690
633.52772	0.92506
631.47081	0.92455
629.41390	0.92451
627.35700	0.92410
625.30009	0.92329
623.24318	0.92150
621.18627	0.91867
619.12936	0.91560
617.07245	0.91306
615.01555	0.91108
612.95864	0.90859
610.90173	0.90502
608.84482	0.90108
606.78791	0.89853
604.73101	0.89767
602.67410	0.89753
600.61719	0.89866
598.56028	0.90156
596.50337	0.90582
594.44646	0.91065
592.38956	0.91355
590.33265	0.91401
588.27574	0.91508
586.21883	0.91726
584.16192	0.91861
582.10502	0.91895
580.04811	0.91927
577.99120	0.91898
575.93429	0.91762
573.87738	0.91627
571.82047	0.91503
569.76357	0.91364
567.70666	0.91336
565.64975	0.91408
563.59284	0.91353
561.53593	0.91191
559.47903	0.91102
557.42212	0.91118
555.36521	0.91237
553.30830	0.91421
551.25139	0.91505
549.19448	0.91444
547.13758	0.91462
545.08067	0.91600
543.02376	0.91644
540.96685	0.91628
538.90994	0.91632
536.85304	0.91576
534.79613	0.91532
532.73922	0.91442
530.68231	0.91244
528.62540	0.91188
526.56849	0.91293
524.51159	0.91304
522.45468	0.91229
520.39777	0.91203
518.34086	0.91193
516.28395	0.91222
514.22705	0.91297
512.17014	0.91243
510.11323	0.91090
508.05632	0.91079
505.99941	0.91218
503.94250	0.91203
501.88560	0.90888
499.82869	0.90525
497.77178	0.90328
495.71487	0.90291
493.65796	0.90323
491.60106	0.90233
489.54415	0.90071
487.48724	0.90021
485.43033	0.90167
483.37342	0.90464
481.31651	0.90693
479.25961	0.90853
477.20270	0.90847
475.14579	0.90525
473.08888	0.90194
471.03197	0.90147
468.97507	0.90263
466.91816	0.90307
464.86125	0.90247
462.80434	0.90212
460.74743	0.90208
458.69052	0.90157
456.63362	0.90082
454.57671	0.90036
452.51980	0.89944
450.46289	0.89737
448.40598	0.89644
446.34908	0.89796
444.29217	0.89890
442.23526	0.89695
440.17835	0.89433
438.12144	0.89468
436.06453	0.89743
434.00763	0.89953
431.95072	0.90155
429.89381	0.90429
427.83690	0.90553
425.77999	0.90535
423.72309	0.90616
421.66618	0.90530
419.60927	0.89856
417.55236	0.89487
415.49545	0.89931
413.43854	0.90407
411.38164	0.90738
409.32473	0.90798
407.26782	0.90571
405.21091	0.90398
403.15400	0.90367
401.09710	0.90369
399.04019	0.90446
