3996.57260	0.97421
3994.51569	0.97399
3992.45878	0.97338
3990.40188	0.97343
3988.34497	0.97436
3986.28806	0.97533
3984.23115	0.97527
3982.17424	0.97442
3980.11733	0.97389
3978.06043	0.97378
3976.00352	0.97367
3973.94661	0.97359
3971.88970	0.97364
3969.83279	0.97384
3967.77589	0.97414
3965.71898	0.97381
3963.66207	0.97277
3961.60516	0.97224
3959.54825	0.97296
3957.49134	0.97406
3955.43444	0.97452
3953.37753	0.97434
3951.32062	0.97434
3949.26371	0.97472
3947.20680	0.97486
3945.14990	0.97510
3943.09299	0.97553
3941.03608	0.97539
3938.97917	0.97492
3936.92226	0.97470
3934.86535	0.97484
3932.80845	0.97491
3930.75154	0.97440
3928.69463	0.97397
3926.63772	0.97436
3924.58081	0.97482
3922.52391	0.97503
3920.46700	0.97517
3918.41009	0.97461
3916.35318	0.97387
3914.29627	0.97406
3912.23936	0.97449
3910.18246	0.97448
3908.12555	0.97460
3906.06864	0.97505
3904.01173	0.97490
3901.95482	0.97382
3899.89792	0.97297
3897.84101	0.97365
3895.78410	0.97532
3893.72719	0.97603
3891.67028	0.97527
3889.61337	0.97460
3887.55647	0.97411
3885.49956	0.97327
3883.44265	0.97315
3881.38574	0.97334
3879.32883	0.97320
3877.27193	0.97333
3875.21502	0.97354
3873.15811	0.97397
3871.10120	0.97441
3869.04429	0.97445
3866.98738	0.97485
3864.93048	0.97530
3862.87357	0.97541
3860.81666	0.97570
3858.75975	0.97618
3856.70284	0.97676
3854.64594	0.97717
3852.58903	0.97582
3850.53212	0.97451
3848.47521	0.97491
3846.41830	0.97528
3844.36139	0.97522
3842.30449	0.97530
3840.24758	0.97459
3838.19067	0.97346
3836.13376	0.97359
3834.07685	0.97403
3832.01995	0.97423
3829.96304	0.97472
3827.90613	0.97531
3825.84922	0.97520
3823.79231	0.97448
3821.73540	0.97393
3819.67850	0.97427
3817.62159	0.97497
3815.56468	0.97480
3813.50777	0.97440
3811.45086	0.97462
3809.39396	0.97486
3807.33705	0.97457
3805.28014	0.97437
3803.22323	0.97460
3801.16632	0.97443
3799.10941	0.97440
3797.05251	0.97476
3794.99560	0.97488
3792.93869	0.97463
3790.88178	0.97480
3788.82487	0.97619
3786.76796	0.97702
3784.71106	0.97593
3782.65415	0.97493
3780.59724	0.97505
3778.54033	0.97527
3776.48342	0.97513
3774.42652	0.97516
3772.36961	0.97579
3770.31270	0.97624
3768.25579	0.97599
3766.19888	0.97572
3764.14197	0.97545
3762.08507	0.97498
3760.02816	0.97460
3757.97125	0.97478
3755.91434	0.97519
3753.85743	0.97521
3751.80053	0.97465
3749.74362	0.97500
3747.68671	0.97659
3745.62980	0.97693
3743.57289	0.97574
3741.51598	0.97502
3739.45908	0.97513
3737.40217	0.97545
3735.34526	0.97426
3733.28835	0.97204
3731.23144	0.97210
3729.17454	0.97361
3727.11763	0.97468
3725.06072	0.97497
3723.00381	0.97540
3720.94690	0.97613
3718.88999	0.97657
3716.83309	0.97672
3714.77618	0.97622
3712.71927	0.97498
3710.66236	0.97490
3708.60545	0.97666
3706.54855	0.97799
3704.49164	0.97847
3702.43473	0.97854
3700.37782	0.97861
3698.32091	0.97880
3696.26400	0.97830
3694.20710	0.97765
3692.15019	0.97748
3690.09328	0.97678
3688.03637	0.97637
3685.97946	0.97734
3683.92256	0.97799
3681.86565	0.97799
3679.80874	0.97766
3677.75183	0.97663
3675.69492	0.97529
3673.63801	0.97515
3671.58111	0.97510
3669.52420	0.97487
3667.46729	0.97617
3665.41038	0.97776
3663.35347	0.97824
3661.29657	0.97792
3659.23966	0.97769
3657.18275	0.97737
3655.12584	0.97688
3653.06893	0.97687
3651.01202	0.97664
3648.95512	0.97514
3646.89821	0.97394
3644.84130	0.97476
3642.78439	0.97624
3640.72748	0.97714
3638.67058	0.97770
3636.61367	0.97782
3634.55676	0.97693
3632.49985	0.97532
3630.44294	0.97374
3628.38603	0.97349
3626.32913	0.97515
3624.27222	0.97615
3622.21531	0.97538
3620.15840	0.97432
3618.10149	0.97498
3616.04459	0.97640
3613.98768	0.97686
3611.93077	0.97644
3609.87386	0.97554
3607.81695	0.97398
3605.76004	0.97293
3603.70314	0.97322
3601.64623	0.97341
3599.58932	0.97230
3597.53241	0.97068
3595.47550	0.96976
3593.41860	0.96951
3591.36169	0.96947
3589.30478	0.96951
3587.24787	0.96939
3585.19096	0.96948
3583.13405	0.96990
3581.07715	0.96969
3579.02024	0.96879
3576.96333	0.96803
3574.90642	0.96756
3572.84951	0.96758
3570.79261	0.96785
3568.73570	0.96701
3566.67879	0.96545
3564.62188	0.96489
3562.56497	0.96435
3560.50806	0.96329
3558.45116	0.96291
3556.39425	0.96345
3554.33734	0.96361
3552.28043	0.96293
3550.22352	0.96195
3548.16662	0.96091
3546.10971	0.96032
3544.05280	0.96043
3541.99589	0.96027
3539.93898	0.95935
3537.88207	0.95817
3535.82517	0.95717
3533.76826	0.95661
3531.71135	0.95635
3529.65444	0.95575
3527.59753	0.95488
3525.54063	0.95410
3523.48372	0.95290
3521.42681	0.95127
3519.36990	0.95013
3517.31299	0.94969
3515.25608	0.94950
3513.19918	0.94908
3511.14227	0.94810
3509.08536	0.94677
3507.02845	0.94588
3504.97154	0.94546
3502.91464	0.94444
3500.85773	0.94280
3498.80082	0.94184
3496.74391	0.94166
3494.68700	0.94118
3492.63009	0.94037
3490.57319	0.94021
3488.51628	0.94011
3486.45937	0.93896
3484.40246	0.93735
3482.34555	0.93620
3480.28865	0.93486
3478.23174	0.93276
3476.17483	0.93107
3474.11792	0.93026
3472.06101	0.92958
3470.00410	0.92891
3467.94720	0.92852
3465.89029	0.92835
3463.83338	0.92760
3461.77647	0.92588
3459.71956	0.92418
3457.66266	0.92283
3455.60575	0.92152
3453.54884	0.92061
3451.49193	0.92005
3449.43502	0.91921
3447.37811	0.91824
3445.32121	0.91740
3443.26430	0.91590
3441.20739	0.91408
3439.15048	0.91299
3437.09357	0.91196
3435.03667	0.91072
3432.97976	0.90990
3430.92285	0.90924
3428.86594	0.90841
3426.80903	0.90735
3424.75212	0.90601
3422.69522	0.90469
3420.63831	0.90362
3418.58140	0.90296
3416.52449	0.90259
3414.46758	0.90173
3412.41068	0.90034
3410.35377	0.89945
3408.29686	0.89909
3406.23995	0.89857
3404.18304	0.89759
3402.12613	0.89641
3400.06923	0.89556
3398.01232	0.89494
3395.95541	0.89429
3393.89850	0.89361
3391.84159	0.89310
3389.78469	0.89275
3387.72778	0.89209
3385.67087	0.89079
3383.61396	0.88925
3381.55705	0.88811
3379.50014	0.88722
3377.44324	0.88592
3375.38633	0.88467
3373.32942	0.88408
3371.27251	0.88360
3369.21560	0.88290
3367.15870	0.88162
3365.10179	0.87998
3363.04488	0.87904
3360.98797	0.87861
3358.93106	0.87755
3356.87415	0.87599
3354.81725	0.87488
3352.76034	0.87417
3350.70343	0.87324
3348.64652	0.87213
3346.58961	0.87113
3344.53271	0.87014
3342.47580	0.86937
3340.41889	0.86880
3338.36198	0.86784
3336.30507	0.86680
3334.24816	0.86615
3332.19126	0.86586
3330.13435	0.86581
3328.07744	0.86583
3326.02053	0.86589
3323.96362	0.86642
3321.90672	0.86779
3319.84981	0.86897
3317.79290	0.86902
3315.73599	0.86846
3313.67908	0.86788
3311.62217	0.86790
3309.56527	0.86858
3307.50836	0.86906
3305.45145	0.86917
3303.39454	0.86910
3301.33763	0.86879
3299.28073	0.86836
3297.22382	0.86785
3295.16691	0.86733
3293.11000	0.86720
3291.05309	0.86744
3288.99618	0.86769
3286.93928	0.86807
3284.88237	0.86875
3282.82546	0.86955
3280.76855	0.87019
3278.71164	0.87019
3276.65474	0.86972
3274.59783	0.86973
3272.54092	0.87048
3270.48401	0.87152
3268.42710	0.87234
3266.37019	0.87277
3264.31329	0.87323
3262.25638	0.87391
3260.19947	0.87472
3258.14256	0.87560
3256.08565	0.87647
3254.02875	0.87748
3251.97184	0.87860
3249.91493	0.87996
3247.85802	0.88169
3245.80111	0.88307
3243.74420	0.88394
3241.68730	0.88463
3239.63039	0.88508
3237.57348	0.88598
3235.51657	0.88742
3233.45966	0.88867
3231.40276	0.88986
3229.34585	0.89119
3227.28894	0.89262
3225.23203	0.89380
3223.17512	0.89446
3221.11821	0.89513
3219.06131	0.89584
3217.00440	0.89657
3214.94749	0.89779
3212.89058	0.89917
3210.83367	0.90000
3208.77677	0.90024
3206.71986	0.90043
3204.66295	0.90100
3202.60604	0.90175
3200.54913	0.90260
3198.49222	0.90388
3196.43532	0.90536
3194.37841	0.90660
3192.32150	0.90741
3190.26459	0.90792
3188.20768	0.90837
3186.15078	0.90865
3184.09387	0.90912
3182.03696	0.91018
3179.98005	0.91118
3177.92314	0.91189
3175.86623	0.91274
3173.80933	0.91336
3171.75242	0.91371
3169.69551	0.91412
3167.63860	0.91473
3165.58169	0.91563
3163.52479	0.91656
3161.46788	0.91720
3159.41097	0.91774
3157.35406	0.91859
3155.29715	0.91970
3153.24024	0.92060
3151.18334	0.92109
3149.12643	0.92145
3147.06952	0.92169
3145.01261	0.92202
3142.95570	0.92281
3140.89880	0.92360
3138.84189	0.92399
3136.78498	0.92427
3134.72807	0.92486
3132.67116	0.92571
3130.61425	0.92655
3128.55735	0.92738
3126.50044	0.92795
3124.44353	0.92794
3122.38662	0.92794
3120.32971	0.92858
3118.27281	0.92971
3116.21590	0.93080
3114.15899	0.93168
3112.10208	0.93237
3110.04517	0.93230
3107.98826	0.93190
3105.93136	0.93209
3103.87445	0.93289
3101.81754	0.93413
3099.76063	0.93527
3097.70372	0.93569
3095.64682	0.93558
3093.58991	0.93541
3091.53300	0.93555
3089.47609	0.93620
3087.41918	0.93699
3085.36227	0.93726
3083.30537	0.93695
3081.24846	0.93674
3079.19155	0.93724
3077.13464	0.93826
3075.07773	0.93908
3073.02083	0.93948
3070.96392	0.93980
3068.90701	0.94016
3066.85010	0.94054
3064.79319	0.94070
3062.73628	0.94081
3060.67938	0.94149
3058.62247	0.94217
3056.56556	0.94219
3054.50865	0.94204
3052.45174	0.94255
3050.39484	0.94341
3048.33793	0.94369
3046.28102	0.94387
3044.22411	0.94443
3042.16720	0.94458
3040.11029	0.94438
3038.05339	0.94463
3035.99648	0.94511
3033.93957	0.94546
3031.88266	0.94582
3029.82575	0.94599
3027.76885	0.94594
3025.71194	0.94632
3023.65503	0.94688
3021.59812	0.94732
3019.54121	0.94801
3017.48430	0.94865
3015.42740	0.94876
3013.37049	0.94871
3011.31358	0.94862
3009.25667	0.94818
3007.19976	0.94804
3005.14286	0.94847
3003.08595	0.94852
3001.02904	0.94840
2998.97213	0.94900
2996.91522	0.94959
2994.85831	0.94975
2992.80141	0.95005
2990.74450	0.95009
2988.68759	0.94971
2986.63068	0.94957
2984.57377	0.94980
2982.51687	0.94997
2980.45996	0.94954
2978.40305	0.94878
2976.34614	0.94834
2974.28923	0.94793
2972.23232	0.94706
2970.17542	0.94598
2968.11851	0.94508
2966.06160	0.94461
2964.00469	0.94442
2961.94778	0.94415
2959.89088	0.94401
2957.83397	0.94395
2955.77706	0.94362
2953.72015	0.94316
2951.66324	0.94238
2949.60633	0.94111
2947.54943	0.94012
2945.49252	0.93960
2943.43561	0.93925
2941.37870	0.93878
2939.32179	0.93821
2937.26489	0.93808
2935.20798	0.93825
2933.15107	0.93816
2931.09416	0.93762
2929.03725	0.93680
2926.98034	0.93592
2924.92344	0.93536
2922.86653	0.93510
2920.80962	0.93429
2918.75271	0.93271
2916.69580	0.93094
2914.63890	0.92929
2912.58199	0.92784
2910.52508	0.92645
2908.46817	0.92489
2906.41126	0.92344
2904.35435	0.92263
2902.29745	0.92225
2900.24054	0.92155
2898.18363	0.92054
2896.12672	0.91997
2894.06981	0.91983
2892.01291	0.91969
2889.95600	0.91980
2887.89909	0.92009
2885.84218	0.92020
2883.78527	0.92042
2881.72836	0.92098
2879.67146	0.92159
2877.61455	0.92206
2875.55764	0.92246
2873.50073	0.92282
2871.44382	0.92287
2869.38692	0.92270
2867.33001	0.92275
2865.27310	0.92309
2863.21619	0.92364
2861.15928	0.92444
2859.10237	0.92540
2857.04547	0.92623
2854.98856	0.92710
2852.93165	0.92825
2850.87474	0.92955
2848.81783	0.93076
2846.76093	0.93145
2844.70402	0.93167
2842.64711	0.93223
2840.59020	0.93318
2838.53329	0.93386
2836.47638	0.93442
2834.41948	0.93508
2832.36257	0.93589
2830.30566	0.93691
2828.24875	0.93783
2826.19184	0.93840
2824.13494	0.93874
2822.07803	0.93896
2820.02112	0.93901
2817.96421	0.93888
2815.90730	0.93889
2813.85039	0.93930
2811.79349	0.93978
2809.73658	0.94005
2807.67967	0.94047
2805.62276	0.94120
2803.56585	0.94190
2801.50895	0.94227
2799.45204	0.94221
2797.39513	0.94187
2795.33822	0.94189
2793.28131	0.94259
2791.22440	0.94333
2789.16750	0.94363
2787.11059	0.94359
2785.05368	0.94367
2782.99677	0.94405
2780.93986	0.94423
2778.88296	0.94415
2776.82605	0.94416
2774.76914	0.94425
2772.71223	0.94451
2770.65532	0.94504
2768.59841	0.94548
2766.54151	0.94540
2764.48460	0.94495
2762.42769	0.94467
2760.37078	0.94512
2758.31387	0.94608
2756.25697	0.94660
2754.20006	0.94666
2752.14315	0.94684
2750.08624	0.94696
2748.02933	0.94679
2745.97242	0.94644
2743.91552	0.94596
2741.85861	0.94588
2739.80170	0.94641
2737.74479	0.94692
2735.68788	0.94689
2733.63098	0.94644
2731.57407	0.94604
2729.51716	0.94628
2727.46025	0.94708
2725.40334	0.94755
2723.34643	0.94729
2721.28953	0.94663
2719.23262	0.94622
2717.17571	0.94646
2715.11880	0.94708
2713.06189	0.94744
2711.00499	0.94726
2708.94808	0.94722
2706.89117	0.94746
2704.83426	0.94754
2702.77735	0.94750
2700.72044	0.94759
2698.66354	0.94783
2696.60663	0.94808
2694.54972	0.94828
2692.49281	0.94848
2690.43590	0.94868
2688.37900	0.94885
2686.32209	0.94880
2684.26518	0.94890
2682.20827	0.94951
2680.15136	0.94997
2678.09445	0.94983
2676.03755	0.94981
2673.98064	0.95021
2671.92373	0.95045
2669.86682	0.95009
2667.80991	0.94947
2665.75301	0.94918
2663.69610	0.94925
2661.63919	0.94952
2659.58228	0.94979
2657.52537	0.94972
2655.46846	0.94934
2653.41156	0.94902
2651.35465	0.94898
2649.29774	0.94933
2647.24083	0.95006
2645.18392	0.95048
2643.12702	0.95027
2641.07011	0.95020
2639.01320	0.95054
2636.95629	0.95079
2634.89938	0.95075
2632.84247	0.95068
2630.78557	0.95086
2628.72866	0.95130
2626.67175	0.95167
2624.61484	0.95191
2622.55793	0.95238
2620.50103	0.95288
2618.44412	0.95295
2616.38721	0.95274
2614.33030	0.95240
2612.27339	0.95217
2610.21648	0.95241
2608.15958	0.95325
2606.10267	0.95393
2604.04576	0.95365
2601.98885	0.95287
2599.93194	0.95256
2597.87504	0.95289
2595.81813	0.95309
2593.76122	0.95322
2591.70431	0.95372
2589.64740	0.95411
2587.59049	0.95435
2585.53359	0.95467
2583.47668	0.95442
2581.41977	0.95383
2579.36286	0.95343
2577.30595	0.95301
2575.24905	0.95300
2573.19214	0.95350
2571.13523	0.95398
2569.07832	0.95398
2567.02141	0.95370
2564.96450	0.95388
2562.90760	0.95433
2560.85069	0.95441
2558.79378	0.95406
2556.73687	0.95358
2554.67996	0.95361
2552.62306	0.95413
2550.56615	0.95432
2548.50924	0.95416
2546.45233	0.95383
2544.39542	0.95357
2542.33851	0.95345
2540.28161	0.95333
2538.22470	0.95330
2536.16779	0.95346
2534.11088	0.95415
2532.05397	0.95499
2529.99707	0.95519
2527.94016	0.95492
2525.88325	0.95468
2523.82634	0.95468
2521.76943	0.95485
2519.71252	0.95498
2517.65562	0.95512
2515.59871	0.95507
2513.54180	0.95455
2511.48489	0.95397
2509.42798	0.95391
2507.37108	0.95422
2505.31417	0.95410
2503.25726	0.95369
2501.20035	0.95380
2499.14344	0.95438
2497.08653	0.95493
2495.02963	0.95518
2492.97272	0.95527
2490.91581	0.95574
2488.85890	0.95633
2486.80199	0.95635
2484.74509	0.95603
2482.68818	0.95571
2480.63127	0.95544
2478.57436	0.95539
2476.51745	0.95562
2474.46054	0.95554
2472.40364	0.95524
2470.34673	0.95542
2468.28982	0.95601
2466.23291	0.95635
2464.17600	0.95607
2462.11910	0.95581
2460.06219	0.95578
2458.00528	0.95589
2455.94837	0.95607
2453.89146	0.95637
2451.83455	0.95680
2449.77765	0.95696
2447.72074	0.95686
2445.66383	0.95656
2443.60692	0.95592
2441.55001	0.95539
2439.49311	0.95565
2437.43620	0.95636
2435.37929	0.95649
2433.32238	0.95616
2431.26547	0.95627
2429.20856	0.95646
2427.15166	0.95634
2425.09475	0.95628
2423.03784	0.95652
2420.98093	0.95704
2418.92402	0.95741
2416.86712	0.95740
2414.81021	0.95697
2412.75330	0.95639
2410.69639	0.95625
2408.63948	0.95676
2406.58257	0.95758
2404.52567	0.95780
2402.46876	0.95735
2400.41185	0.95719
2398.35494	0.95737
2396.29803	0.95744
2394.24113	0.95757
2392.18422	0.95773
2390.12731	0.95766
2388.07040	0.95753
2386.01349	0.95752
2383.95658	0.95751
2381.89968	0.95761
2379.84277	0.95820
2377.78586	0.95897
2375.72895	0.95912
2373.67204	0.95861
2371.61514	0.95776
2369.55823	0.95697
2367.50132	0.95683
2365.44441	0.95690
2363.38750	0.95705
2361.33059	0.95791
2359.27369	0.95908
2357.21678	0.95865
2355.15987	0.95663
2353.10296	0.95616
2351.04605	0.95748
2348.98915	0.95839
2346.93224	0.95838
2344.87533	0.95777
2342.81842	0.95697
2340.76151	0.95694
2338.70460	0.95769
2336.64770	0.95805
2334.59079	0.95778
2332.53388	0.95733
2330.47697	0.95748
2328.42006	0.95809
2326.36316	0.95799
2324.30625	0.95790
2322.24934	0.95876
2320.19243	0.95891
2318.13552	0.95781
2316.07861	0.95727
2314.02171	0.95744
2311.96480	0.95730
2309.90789	0.95703
2307.85098	0.95680
2305.79407	0.95667
2303.73717	0.95711
2301.68026	0.95744
2299.62335	0.95720
2297.56644	0.95757
2295.50953	0.95844
2293.45262	0.95857
2291.39572	0.95818
2289.33881	0.95799
2287.28190	0.95763
2285.22499	0.95715
2283.16808	0.95717
2281.11117	0.95745
2279.05427	0.95780
2276.99736	0.95813
2274.94045	0.95846
2272.88354	0.95899
2270.82663	0.95968
2268.76973	0.96074
2266.71282	0.96095
2264.65591	0.95954
2262.59900	0.95900
2260.54209	0.95997
2258.48518	0.96035
2256.42828	0.95937
2254.37137	0.95854
2252.31446	0.95914
2250.25755	0.96048
2248.20064	0.96128
2246.14374	0.96076
2244.08683	0.96065
2242.02992	0.96230
2239.97301	0.96373
2237.91610	0.96324
2235.85919	0.96154
2233.80229	0.95986
2231.74538	0.95899
2229.68847	0.95954
2227.63156	0.96028
2225.57465	0.96049
2223.51775	0.96157
2221.46084	0.96276
2219.40393	0.96203
2217.34702	0.96034
2215.29011	0.95927
2213.23320	0.95880
2211.17630	0.95930
2209.11939	0.96031
2207.06248	0.96074
2205.00557	0.96080
2202.94866	0.96105
2200.89176	0.96172
2198.83485	0.96143
2196.77794	0.96066
2194.72103	0.96246
2192.66412	0.96467
2190.60721	0.96355
2188.55031	0.96206
2186.49340	0.96204
2184.43649	0.96152
2182.37958	0.96165
2180.32267	0.96204
2178.26577	0.96033
2176.20886	0.95855
2174.15195	0.95919
2172.09504	0.96134
2170.03813	0.96278
2167.98122	0.96197
2165.92432	0.95935
2163.86741	0.95780
2161.81050	0.95980
2159.75359	0.96314
2157.69668	0.96446
2155.63978	0.96450
2153.58287	0.96476
2151.52596	0.96523
2149.46905	0.96454
2147.41214	0.96315
2145.35523	0.96297
2143.29833	0.96327
2141.24142	0.96284
2139.18451	0.96278
2137.12760	0.96349
2135.07069	0.96313
2133.01379	0.96222
2130.95688	0.96247
2128.89997	0.96265
2126.84306	0.96221
2124.78615	0.96216
2122.72924	0.96205
2120.67234	0.96153
2118.61543	0.96073
2116.55852	0.95939
2114.50161	0.95847
2112.44470	0.95900
2110.38780	0.96078
2108.33089	0.96270
2106.27398	0.96356
2104.21707	0.96322
2102.16016	0.96167
2100.10325	0.95969
2098.04635	0.95935
2095.98944	0.96057
2093.93253	0.96193
2091.87562	0.96301
2089.81871	0.96343
2087.76181	0.96369
2085.70490	0.96420
2083.64799	0.96427
2081.59108	0.96357
2079.53417	0.96231
2077.47726	0.96134
2075.42036	0.96075
2073.36345	0.95989
2071.30654	0.95920
2069.24963	0.95954
2067.19272	0.96118
2065.13582	0.96335
2063.07891	0.96396
2061.02200	0.96169
2058.96509	0.95889
2056.90818	0.95893
2054.85127	0.96086
2052.79437	0.96152
2050.73746	0.96126
2048.68055	0.96137
2046.62364	0.96124
2044.56673	0.96140
2042.50983	0.96092
2040.45292	0.95881
2038.39601	0.95816
2036.33910	0.95961
2034.28219	0.96042
2032.22528	0.96097
2030.16838	0.96267
2028.11147	0.96430
2026.05456	0.96552
2023.99765	0.96697
2021.94074	0.96713
2019.88384	0.96560
2017.82693	0.96490
2015.77002	0.96524
2013.71311	0.96416
2011.65620	0.96267
2009.59929	0.96295
2007.54239	0.96466
2005.48548	0.96581
2003.42857	0.96456
2001.37166	0.96265
1999.31475	0.96238
1997.25785	0.96297
1995.20094	0.96311
1993.14403	0.96299
1991.08712	0.96339
1989.03021	0.96425
1986.97330	0.96436
1984.91640	0.96327
1982.85949	0.96197
1980.80258	0.96189
1978.74567	0.96350
1976.68876	0.96552
1974.63186	0.96675
1972.57495	0.96692
1970.51804	0.96727
1968.46113	0.96813
1966.40422	0.96795
1964.34731	0.96622
1962.29041	0.96387
1960.23350	0.96420
1958.17659	0.96752
1956.11968	0.96887
1954.06277	0.96732
1952.00587	0.96591
1949.94896	0.96602
1947.89205	0.96699
1945.83514	0.96679
1943.77823	0.96544
1941.72132	0.96412
1939.66442	0.96312
1937.60751	0.96283
1935.55060	0.96347
1933.49369	0.96455
1931.43678	0.96460
1929.37988	0.96381
1927.32297	0.96381
1925.26606	0.96501
1923.20915	0.96601
1921.15224	0.96530
1919.09533	0.96428
1917.03843	0.96432
1914.98152	0.96507
1912.92461	0.96599
1910.86770	0.96600
1908.81079	0.96480
1906.75389	0.96376
1904.69698	0.96362
1902.64007	0.96375
1900.58316	0.96378
1898.52625	0.96397
1896.46934	0.96443
1894.41244	0.96479
1892.35553	0.96460
1890.29862	0.96406
1888.24171	0.96371
1886.18480	0.96369
1884.12790	0.96393
1882.07099	0.96423
1880.01408	0.96435
1877.95717	0.96421
1875.90026	0.96376
1873.84335	0.96340
1871.78645	0.96337
1869.72954	0.96347
1867.67263	0.96364
1865.61572	0.96392
1863.55881	0.96419
1861.50191	0.96430
1859.44500	0.96452
1857.38809	0.96495
1855.33118	0.96499
1853.27427	0.96458
1851.21736	0.96446
1849.16046	0.96440
1847.10355	0.96403
1845.04664	0.96399
1842.98973	0.96434
1840.93282	0.96418
1838.87592	0.96356
1836.81901	0.96325
1834.76210	0.96358
1832.70519	0.96400
1830.64828	0.96384
1828.59137	0.96357
1826.53447	0.96385
1824.47756	0.96399
1822.42065	0.96383
1820.36374	0.96378
1818.30683	0.96397
1816.24993	0.96444
1814.19302	0.96475
1812.13611	0.96462
1810.07920	0.96443
1808.02229	0.96441
1805.96538	0.96429
1803.90848	0.96416
1801.85157	0.96386
1799.79466	0.96320
1797.73775	0.96302
1795.68084	0.96339
1793.62394	0.96335
1791.56703	0.96290
1789.51012	0.96301
1787.45321	0.96347
1785.39630	0.96362
1783.33939	0.96362
1781.28249	0.96363
1779.22558	0.96344
1777.16867	0.96305
1775.11176	0.96271
1773.05485	0.96249
1770.99795	0.96258
1768.94104	0.96276
1766.88413	0.96264
1764.82722	0.96241
1762.77031	0.96213
1760.71340	0.96209
1758.65650	0.96266
1756.59959	0.96327
1754.54268	0.96325
1752.48577	0.96259
1750.42886	0.96178
1748.37196	0.96172
1746.31505	0.96222
1744.25814	0.96247
1742.20123	0.96229
1740.14432	0.96206
1738.08741	0.96234
1736.03051	0.96278
1733.97360	0.96254
1731.91669	0.96245
1729.85978	0.96303
1727.80287	0.96331
1725.74597	0.96309
1723.68906	0.96305
1721.63215	0.96347
1719.57524	0.96363
1717.51833	0.96288
1715.46142	0.96216
1713.40452	0.96227
1711.34761	0.96241
1709.29070	0.96244
1707.23379	0.96240
1705.17688	0.96206
1703.11998	0.96163
1701.06307	0.96101
1699.00616	0.96058
1696.94925	0.96090
1694.89234	0.96127
1692.83543	0.96147
1690.77853	0.96138
1688.72162	0.96108
1686.66471	0.96074
1684.60780	0.95989
1682.55089	0.95926
1680.49399	0.95963
1678.43708	0.95996
1676.38017	0.95970
1674.32326	0.95904
1672.26635	0.95845
1670.20944	0.95803
1668.15254	0.95815
1666.09563	0.95841
1664.03872	0.95797
1661.98181	0.95714
1659.92490	0.95686
1657.86800	0.95677
1655.81109	0.95644
1653.75418	0.95580
1651.69727	0.95519
1649.64036	0.95498
1647.58345	0.95473
1645.52655	0.95471
1643.46964	0.95520
1641.41273	0.95559
1639.35582	0.95548
1637.29891	0.95489
1635.24201	0.95444
1633.18510	0.95483
1631.12819	0.95550
1629.07128	0.95581
1627.01437	0.95563
1624.95746	0.95543
1622.90056	0.95562
1620.84365	0.95626
1618.78674	0.95674
1616.72983	0.95694
1614.67292	0.95745
1612.61602	0.95794
1610.55911	0.95828
1608.50220	0.95894
1606.44529	0.95953
1604.38838	0.95956
1602.33147	0.95965
1600.27457	0.96011
1598.21766	0.96056
1596.16075	0.96082
1594.10384	0.96103
1592.04693	0.96128
1589.99003	0.96145
1587.93312	0.96154
1585.87621	0.96172
1583.81930	0.96208
1581.76239	0.96244
1579.70548	0.96253
1577.64858	0.96213
1575.59167	0.96169
1573.53476	0.96217
1571.47785	0.96274
1569.42094	0.96261
1567.36404	0.96254
1565.30713	0.96294
1563.25022	0.96338
1561.19331	0.96336
1559.13640	0.96218
1557.07949	0.96166
1555.02259	0.96262
1552.96568	0.96346
1550.90877	0.96396
1548.85186	0.96440
1546.79495	0.96458
1544.73805	0.96410
1542.68114	0.96325
1540.62423	0.96283
1538.56732	0.96360
1536.51041	0.96447
1534.45350	0.96464
1532.39660	0.96464
1530.33969	0.96495
1528.28278	0.96497
1526.22587	0.96472
1524.16896	0.96445
1522.11206	0.96380
1520.05515	0.96328
1517.99824	0.96346
1515.94133	0.96404
1513.88442	0.96472
1511.82751	0.96488
1509.77061	0.96428
1507.71370	0.96333
1505.65679	0.96339
1503.59988	0.96424
1501.54297	0.96473
1499.48607	0.96474
1497.42916	0.96439
1495.37225	0.96428
1493.31534	0.96446
1491.25843	0.96394
1489.20152	0.96236
1487.14462	0.96092
1485.08771	0.96002
1483.03080	0.95900
1480.97389	0.95773
1478.91698	0.95668
1476.86008	0.95575
1474.80317	0.95439
1472.74626	0.95241
1470.68935	0.95085
1468.63244	0.95001
1466.57553	0.94870
1464.51863	0.94661
1462.46172	0.94492
1460.40481	0.94363
1458.34790	0.94118
1456.29099	0.93773
1454.23409	0.93657
1452.17718	0.93655
1450.12027	0.93624
1448.06336	0.93571
1446.00645	0.93519
1443.94954	0.93463
1441.89264	0.93386
1439.83573	0.93282
1437.77882	0.93110
1435.72191	0.92834
1433.66500	0.92606
1431.60810	0.92440
1429.55119	0.92298
1427.49428	0.92254
1425.43737	0.92304
1423.38046	0.92396
1421.32355	0.92530
1419.26665	0.92724
1417.20974	0.92990
1415.15283	0.93243
1413.09592	0.93409
1411.03901	0.93491
1408.98211	0.93551
1406.92520	0.93605
1404.86829	0.93652
1402.81138	0.93715
1400.75447	0.93768
1398.69756	0.93763
1396.64066	0.93724
1394.58375	0.93716
1392.52684	0.93730
1390.46993	0.93695
1388.41302	0.93561
1386.35612	0.93336
1384.29921	0.93091
1382.24230	0.92827
1380.18539	0.92505
1378.12848	0.92157
1376.07157	0.91809
1374.01467	0.91450
1371.95776	0.91173
1369.90085	0.91031
1367.84394	0.90982
1365.78703	0.90967
1363.73013	0.90925
1361.67322	0.90899
1359.61631	0.90954
1357.55940	0.91047
1355.50249	0.91155
1353.44558	0.91302
1351.38868	0.91457
1349.33177	0.91542
1347.27486	0.91503
1345.21795	0.91354
1343.16104	0.91129
1341.10414	0.90843
1339.04723	0.90547
1336.99032	0.90345
1334.93341	0.90274
1332.87650	0.90298
1330.81959	0.90371
1328.76269	0.90429
1326.70578	0.90405
1324.64887	0.90283
1322.59196	0.90077
1320.53505	0.89777
1318.47815	0.89448
1316.42124	0.89211
1314.36433	0.89126
1312.30742	0.89232
1310.25051	0.89506
1308.19360	0.89875
1306.13670	0.90294
1304.07979	0.90726
1302.02288	0.91127
1299.96597	0.91480
1297.90906	0.91775
1295.85216	0.92006
1293.79525	0.92173
1291.73834	0.92287
1289.68143	0.92366
1287.62452	0.92408
1285.56761	0.92388
1283.51071	0.92317
1281.45380	0.92259
1279.39689	0.92256
1277.33998	0.92307
1275.28307	0.92394
1273.22617	0.92505
1271.16926	0.92617
1269.11235	0.92695
1267.05544	0.92739
1264.99853	0.92779
1262.94162	0.92836
1260.88472	0.92878
1258.82781	0.92891
1256.77090	0.92923
1254.71399	0.92971
1252.65708	0.92999
1250.60018	0.93006
1248.54327	0.93003
1246.48636	0.93012
1244.42945	0.93054
1242.37254	0.93121
1240.31563	0.93207
1238.25873	0.93290
1236.20182	0.93336
1234.14491	0.93383
1232.08800	0.93496
1230.03109	0.93662
1227.97419	0.93841
1225.91728	0.94040
1223.86037	0.94263
1221.80346	0.94478
1219.74655	0.94651
1217.68964	0.94773
1215.63274	0.94833
1213.57583	0.94792
1211.51892	0.94600
1209.46201	0.94278
1207.40510	0.93922
1205.34820	0.93624
1203.29129	0.93444
1201.23438	0.93405
1199.17747	0.93493
1197.12056	0.93661
1195.06365	0.93888
1193.00675	0.94167
1190.94984	0.94411
1188.89293	0.94554
1186.83602	0.94611
1184.77911	0.94568
1182.72221	0.94392
1180.66530	0.94093
1178.60839	0.93677
1176.55148	0.93105
1174.49457	0.92355
1172.43766	0.91421
1170.38076	0.90328
1168.32385	0.89142
1166.26694	0.87997
1164.21003	0.87076
1162.15312	0.86521
1160.09622	0.86358
1158.03931	0.86496
1155.98240	0.86822
1153.92549	0.87257
1151.86858	0.87737
1149.81167	0.88221
1147.75477	0.88709
1145.69786	0.89207
1143.64095	0.89668
1141.58404	0.90010
1139.52713	0.90188
1137.47023	0.90185
1135.41332	0.89968
1133.35641	0.89573
1131.29950	0.89067
1129.24259	0.88432
1127.18568	0.87684
1125.12878	0.86933
1123.07187	0.86232
1121.01496	0.85533
1118.95805	0.84751
1116.90114	0.83809
1114.84424	0.82761
1112.78733	0.81789
1110.73042	0.81046
1108.67351	0.80556
1106.61660	0.80280
1104.55969	0.80177
1102.50279	0.80243
1100.44588	0.80463
1098.38897	0.80753
1096.33206	0.81056
1094.27515	0.81368
1092.21825	0.81635
1090.16134	0.81808
1088.10443	0.81887
1086.04752	0.81900
1083.99061	0.81844
1081.93370	0.81583
1079.87680	0.81009
1077.81989	0.80277
1075.76298	0.79585
1073.70607	0.78917
1071.64916	0.78190
1069.59226	0.77378
1067.53535	0.76400
1065.47844	0.75184
1063.42153	0.73834
1061.36462	0.72553
1059.30771	0.71484
1057.25081	0.70696
1055.19390	0.70228
1053.13699	0.70057
1051.08008	0.70122
1049.02317	0.70393
1046.96627	0.70790
1044.90936	0.71124
1042.85245	0.71259
1040.79554	0.71106
1038.73863	0.70598
1036.68172	0.69813
1034.62482	0.68989
1032.56791	0.68353
1030.51100	0.67973
1028.45409	0.67827
1026.39718	0.67871
1024.34028	0.68027
1022.28337	0.68200
1020.22646	0.68351
1018.16955	0.68500
1016.11264	0.68645
1014.05573	0.68797
1011.99883	0.69005
1009.94192	0.69247
1007.88501	0.69437
1005.82810	0.69534
1003.77119	0.69563
1001.71429	0.69582
999.65738	0.69635
997.60047	0.69744
995.54356	0.69912
993.48665	0.70104
991.42974	0.70240
989.37284	0.70268
987.31593	0.70219
985.25902	0.70216
983.20211	0.70444
981.14520	0.70995
979.08830	0.71804
977.03139	0.72730
974.97448	0.73658
972.91757	0.74543
970.86066	0.75354
968.80375	0.76057
966.74685	0.76691
964.68994	0.77304
962.63303	0.77895
960.57612	0.78492
958.51921	0.79141
956.46231	0.79827
954.40540	0.80482
952.34849	0.81079
950.29158	0.81617
948.23467	0.82081
946.17776	0.82509
944.12086	0.82930
942.06395	0.83306
940.00704	0.83639
937.95013	0.83942
935.89322	0.84233
933.83632	0.84534
931.77941	0.84820
929.72250	0.85083
927.66559	0.85349
925.60868	0.85637
923.55177	0.85943
921.49487	0.86245
919.43796	0.86494
917.38105	0.86634
915.32414	0.86682
913.26723	0.86686
911.21033	0.86643
909.15342	0.86548
907.09651	0.86401
905.03960	0.86183
902.98269	0.85934
900.92578	0.85738
898.86888	0.85619
896.81197	0.85565
894.75506	0.85614
892.69815	0.85792
890.64124	0.86029
888.58434	0.86278
886.52743	0.86573
884.47052	0.86941
882.41361	0.87321
880.35670	0.87610
878.29979	0.87793
876.24289	0.87987
874.18598	0.88229
872.12907	0.88421
870.07216	0.88570
868.01525	0.88755
865.95835	0.88983
863.90144	0.89202
861.84453	0.89346
859.78762	0.89439
857.73071	0.89609
855.67380	0.89861
853.61690	0.90054
851.55999	0.90125
849.50308	0.90174
847.44617	0.90284
845.38926	0.90392
843.33236	0.90444
841.27545	0.90465
839.21854	0.90495
837.16163	0.90548
835.10472	0.90591
833.04781	0.90612
830.99091	0.90658
828.93400	0.90736
826.87709	0.90774
824.82018	0.90725
822.76327	0.90656
820.70637	0.90621
818.64946	0.90554
816.59255	0.90482
814.53564	0.90498
812.47873	0.90558
810.42182	0.90583
808.36492	0.90585
806.30801	0.90602
804.25110	0.90628
802.19419	0.90631
800.13728	0.90629
798.08038	0.90638
796.02347	0.90670
793.96656	0.90738
791.90965	0.90789
789.85274	0.90768
787.79583	0.90689
785.73893	0.90622
783.68202	0.90650
781.62511	0.90714
779.56820	0.90711
777.51129	0.90695
775.45439	0.90696
773.39748	0.90684
771.34057	0.90656
769.28366	0.90576
767.22675	0.90498
765.16984	0.90465
763.11294	0.90402
761.05603	0.90297
758.99912	0.90198
756.94221	0.90114
754.88530	0.90056
752.82839	0.90010
750.77149	0.89951
748.71458	0.89885
746.65767	0.89778
744.60076	0.89618
742.54385	0.89466
740.48695	0.89370
738.43004	0.89262
736.37313	0.89096
734.31622	0.88942
732.25931	0.88821
730.20240	0.88654
728.14550	0.88391
726.08859	0.88056
724.03168	0.87706
721.97477	0.87384
719.91786	0.87095
717.86096	0.86790
715.80405	0.86514
713.74714	0.86323
711.69023	0.86145
709.63332	0.85915
707.57641	0.85671
705.51951	0.85475
703.46260	0.85364
701.40569	0.85329
699.34878	0.85274
697.29187	0.85159
695.23497	0.85078
693.17806	0.85070
691.12115	0.85069
689.06424	0.85023
687.00733	0.84930
684.95042	0.84800
682.89352	0.84527
680.83661	0.84062
678.77970	0.83568
676.72279	0.83057
674.66588	0.82477
672.60898	0.81932
670.55207	0.81410
668.49516	0.80710
666.43825	0.80180
664.38134	0.80096
662.32443	0.80116
660.26753	0.80189
658.21062	0.80387
656.15371	0.80658
654.09680	0.80908
652.03989	0.81127
649.98299	0.81288
647.92608	0.81319
645.86917	0.81286
643.81226	0.81302
641.75535	0.81279
639.69844	0.81107
637.64154	0.80884
635.58463	0.80672
633.52772	0.80408
631.47081	0.80062
629.41390	0.79710
627.35700	0.79444
625.30009	0.79181
623.24318	0.78822
621.18627	0.78350
619.12936	0.77808
617.07245	0.77376
615.01555	0.77153
612.95864	0.77023
610.90173	0.76901
608.84482	0.76792
606.78791	0.76778
604.73101	0.76858
602.67410	0.76844
600.61719	0.76689
598.56028	0.76557
596.50337	0.76475
594.44646	0.76333
592.38956	0.76162
590.33265	0.76078
588.27574	0.76040
586.21883	0.76027
584.16192	0.76161
582.10502	0.76314
580.04811	0.76273
577.99120	0.76137
575.93429	0.76085
573.87738	0.76081
571.82047	0.75972
569.76357	0.75745
567.70666	0.75434
565.64975	0.75011
563.59284	0.74351
561.53593	0.73484
559.47903	0.72863
557.42212	0.72806
555.36521	0.73053
553.30830	0.73275
551.25139	0.73506
549.19448	0.73835
547.13758	0.74089
545.08067	0.74222
543.02376	0.74416
540.96685	0.74688
538.90994	0.74997
536.85304	0.75258
534.79613	0.75322
532.73922	0.75145
530.68231	0.74919
528.62540	0.74843
526.56849	0.74812
524.51159	0.74669
522.45468	0.74452
520.39777	0.74300
518.34086	0.74206
516.28395	0.74180
514.22705	0.74405
512.17014	0.74783
510.11323	0.75002
508.05632	0.75071
505.99941	0.75203
503.94250	0.75305
501.88560	0.75256
499.82869	0.75302
497.77178	0.75571
495.71487	0.75890
493.65796	0.76039
491.60106	0.76054
489.54415	0.76207
487.48724	0.76335
485.43033	0.76277
483.37342	0.76281
481.31651	0.76345
479.25961	0.76486
477.20270	0.76838
475.14579	0.77162
473.08888	0.77382
471.03197	0.77671
468.97507	0.77701
466.91816	0.77372
464.86125	0.77161
462.80434	0.77218
460.74743	0.77188
458.69052	0.76978
456.63362	0.77021
454.57671	0.77258
452.51980	0.77288
450.46289	0.77158
448.40598	0.77011
446.34908	0.76791
444.29217	0.76547
442.23526	0.76318
440.17835	0.75990
438.12144	0.75654
436.06453	0.75489
434.00763	0.75564
431.95072	0.75694
429.89381	0.75719
427.83690	0.75822
425.77999	0.75958
423.72309	0.75907
421.66618	0.76040
419.60927	0.76782
417.55236	0.77564
415.49545	0.77819
413.43854	0.77774
411.38164	0.77605
409.32473	0.77563
407.26782	0.77581
405.21091	0.77472
403.15400	0.77426
401.09710	0.77534
399.04019	0.77695
