3996.57260	0.99200
3994.51569	0.99131
3992.45878	0.99127
3990.40188	0.99181
3988.34497	0.99229
3986.28806	0.99271
3984.23115	0.99256
3982.17424	0.99141
3980.11733	0.99018
3978.06043	0.98995
3976.00352	0.99028
3973.94661	0.99084
3971.88970	0.99137
3969.83279	0.99107
3967.77589	0.99052
3965.71898	0.99061
3963.66207	0.99051
3961.60516	0.98994
3959.54825	0.98971
3957.49134	0.98981
3955.43444	0.99039
3953.37753	0.99127
3951.32062	0.99132
3949.26371	0.99054
3947.20680	0.98994
3945.14990	0.99013
3943.09299	0.99088
3941.03608	0.99130
3938.97917	0.99121
3936.92226	0.99111
3934.86535	0.99099
3932.80845	0.99071
3930.75154	0.99023
3928.69463	0.99001
3926.63772	0.99018
3924.58081	0.99016
3922.52391	0.99011
3920.46700	0.99032
3918.41009	0.99029
3916.35318	0.99014
3914.29627	0.99029
3912.23936	0.99057
3910.18246	0.99090
3908.12555	0.99133
3906.06864	0.99210
3904.01173	0.99273
3901.95482	0.99196
3899.89792	0.99102
3897.84101	0.99122
3895.78410	0.99114
3893.72719	0.99077
3891.67028	0.99110
3889.61337	0.99146
3887.55647	0.99136
3885.49956	0.99121
3883.44265	0.99137
3881.38574	0.99169
3879.32883	0.99167
3877.27193	0.99119
3875.21502	0.99075
3873.15811	0.99087
3871.10120	0.99134
3869.04429	0.99168
3866.98738	0.99167
3864.93048	0.99168
3862.87357	0.99185
3860.81666	0.99172
3858.75975	0.99156
3856.70284	0.99181
3854.64594	0.99199
3852.58903	0.99107
3850.53212	0.99042
3848.47521	0.99075
3846.41830	0.99122
3844.36139	0.99164
3842.30449	0.99174
3840.24758	0.99148
3838.19067	0.99154
3836.13376	0.99127
3834.07685	0.99120
3832.01995	0.99188
3829.96304	0.99202
3827.90613	0.99149
3825.84922	0.99120
3823.79231	0.99148
3821.73540	0.99136
3819.67850	0.99037
3817.62159	0.99020
3815.56468	0.99092
3813.50777	0.99125
3811.45086	0.99099
3809.39396	0.99058
3807.33705	0.99039
3805.28014	0.99024
3803.22323	0.99019
3801.16632	0.99119
3799.10941	0.99254
3797.05251	0.99283
3794.99560	0.99229
3792.93869	0.99191
3790.88178	0.99189
3788.82487	0.99177
3786.76796	0.99168
3784.71106	0.99195
3782.65415	0.99247
3780.59724	0.99257
3778.54033	0.99182
3776.48342	0.99093
3774.42652	0.99062
3772.36961	0.99081
3770.31270	0.99101
3768.25579	0.99106
3766.19888	0.99139
3764.14197	0.99187
3762.08507	0.99175
3760.02816	0.99111
3757.97125	0.99077
3755.91434	0.99052
3753.85743	0.99004
3751.80053	0.99024
3749.74362	0.99153
3747.68671	0.99288
3745.62980	0.99291
3743.57289	0.99088
3741.51598	0.99002
3739.45908	0.99104
3737.40217	0.99231
3735.34526	0.99298
3733.28835	0.99259
3731.23144	0.99193
3729.17454	0.99127
3727.11763	0.99057
3725.06072	0.99097
3723.00381	0.99214
3720.94690	0.99233
3718.88999	0.99156
3716.83309	0.99116
3714.77618	0.99202
3712.71927	0.99355
3710.66236	0.99341
3708.60545	0.99152
3706.54855	0.99073
3704.49164	0.99089
3702.43473	0.99067
3700.37782	0.99050
3698.32091	0.99117
3696.26400	0.99222
3694.20710	0.99281
3692.15019	0.99294
3690.09328	0.99280
3688.03637	0.99216
3685.97946	0.99180
3683.92256	0.99196
3681.86565	0.99194
3679.80874	0.99177
3677.75183	0.99123
3675.69492	0.98979
3673.63801	0.98939
3671.58111	0.99058
3669.52420	0.99116
3667.46729	0.99069
3665.41038	0.99041
3663.35347	0.99037
3661.29657	0.99045
3659.23966	0.99020
3657.18275	0.98921
3655.12584	0.98909
3653.06893	0.98994
3651.01202	0.99003
3648.95512	0.98907
3646.89821	0.98793
3644.84130	0.98739
3642.78439	0.98761
3640.72748	0.98812
3638.67058	0.98843
3636.61367	0.98865
3634.55676	0.98855
3632.49985	0.98800
3630.44294	0.98770
3628.38603	0.98795
3626.32913	0.98817
3624.27222	0.98782
3622.21531	0.98713
3620.15840	0.98688
3618.10149	0.98688
3616.04459	0.98641
3613.98768	0.98570
3611.93077	0.98516
3609.87386	0.98490
3607.81695	0.98459
3605.76004	0.98455
3603.70314	0.98459
3601.64623	0.98405
3599.58932	0.98328
3597.53241	0.98284
3595.47550	0.98273
3593.41860	0.98269
3591.36169	0.98225
3589.30478	0.98134
3587.24787	0.98072
3585.19096	0.98100
3583.13405	0.98112
3581.07715	0.98028
3579.02024	0.97904
3576.96333	0.97843
3574.90642	0.97848
3572.84951	0.97829
3570.79261	0.97788
3568.73570	0.97780
3566.67879	0.97733
3564.62188	0.97611
3562.56497	0.97482
3560.50806	0.97414
3558.45116	0.97399
3556.39425	0.97370
3554.33734	0.97346
3552.28043	0.97316
3550.22352	0.97230
3548.16662	0.97142
3546.10971	0.97065
3544.05280	0.96963
3541.99589	0.96886
3539.93898	0.96873
3537.88207	0.96869
3535.82517	0.96822
3533.76826	0.96769
3531.71135	0.96749
3529.65444	0.96715
3527.59753	0.96654
3525.54063	0.96619
3523.48372	0.96591
3521.42681	0.96488
3519.36990	0.96352
3517.31299	0.96276
3515.25608	0.96220
3513.19918	0.96171
3511.14227	0.96208
3509.08536	0.96241
3507.02845	0.96155
3504.97154	0.96017
3502.91464	0.95931
3500.85773	0.95937
3498.80082	0.95985
3496.74391	0.96000
3494.68700	0.95928
3492.63009	0.95835
3490.57319	0.95819
3488.51628	0.95863
3486.45937	0.95901
3484.40246	0.95900
3482.34555	0.95836
3480.28865	0.95802
3478.23174	0.95881
3476.17483	0.95923
3474.11792	0.95850
3472.06101	0.95781
3470.00410	0.95775
3467.94720	0.95773
3465.89029	0.95736
3463.83338	0.95699
3461.77647	0.95707
3459.71956	0.95748
3457.66266	0.95735
3455.60575	0.95679
3453.54884	0.95685
3451.49193	0.95749
3449.43502	0.95797
3447.37811	0.95765
3445.32121	0.95696
3443.26430	0.95733
3441.20739	0.95841
3439.15048	0.95880
3437.09357	0.95895
3435.03667	0.95972
3432.97976	0.96045
3430.92285	0.96031
3428.86594	0.95968
3426.80903	0.95908
3424.75212	0.95864
3422.69522	0.95872
3420.63831	0.95949
3418.58140	0.96045
3416.52449	0.96094
3414.46758	0.96099
3412.41068	0.96123
3410.35377	0.96162
3408.29686	0.96204
3406.23995	0.96250
3404.18304	0.96267
3402.12613	0.96279
3400.06923	0.96291
3398.01232	0.96307
3395.95541	0.96349
3393.89850	0.96374
3391.84159	0.96364
3389.78469	0.96387
3387.72778	0.96426
3385.67087	0.96404
3383.61396	0.96381
3381.55705	0.96413
3379.50014	0.96472
3377.44324	0.96550
3375.38633	0.96626
3373.32942	0.96649
3371.27251	0.96622
3369.21560	0.96599
3367.15870	0.96603
3365.10179	0.96622
3363.04488	0.96662
3360.98797	0.96735
3358.93106	0.96773
3356.87415	0.96734
3354.81725	0.96721
3352.76034	0.96798
3350.70343	0.96888
3348.64652	0.96923
3346.58961	0.96919
3344.53271	0.96911
3342.47580	0.96887
3340.41889	0.96866
3338.36198	0.96912
3336.30507	0.96977
3334.24816	0.97004
3332.19126	0.97018
3330.13435	0.97030
3328.07744	0.97054
3326.02053	0.97083
3323.96362	0.97106
3321.90672	0.97157
3319.84981	0.97209
3317.79290	0.97224
3315.73599	0.97288
3313.67908	0.97424
3311.62217	0.97521
3309.56527	0.97486
3307.50836	0.97375
3305.45145	0.97344
3303.39454	0.97413
3301.33763	0.97485
3299.28073	0.97522
3297.22382	0.97537
3295.16691	0.97527
3293.11000	0.97491
3291.05309	0.97493
3288.99618	0.97554
3286.93928	0.97583
3284.88237	0.97571
3282.82546	0.97590
3280.76855	0.97633
3278.71164	0.97663
3276.65474	0.97669
3274.59783	0.97675
3272.54092	0.97701
3270.48401	0.97709
3268.42710	0.97669
3266.37019	0.97652
3264.31329	0.97717
3262.25638	0.97804
3260.19947	0.97843
3258.14256	0.97836
3256.08565	0.97836
3254.02875	0.97873
3251.97184	0.97921
3249.91493	0.97977
3247.85802	0.98027
3245.80111	0.98001
3243.74420	0.97947
3241.68730	0.97953
3239.63039	0.97991
3237.57348	0.98023
3235.51657	0.98044
3233.45966	0.98050
3231.40276	0.98047
3229.34585	0.98051
3227.28894	0.98087
3225.23203	0.98142
3223.17512	0.98182
3221.11821	0.98173
3219.06131	0.98095
3217.00440	0.98051
3214.94749	0.98098
3212.89058	0.98168
3210.83367	0.98220
3208.77677	0.98239
3206.71986	0.98245
3204.66295	0.98261
3202.60604	0.98267
3200.54913	0.98245
3198.49222	0.98239
3196.43532	0.98311
3194.37841	0.98376
3192.32150	0.98349
3190.26459	0.98306
3188.20768	0.98318
3186.15078	0.98364
3184.09387	0.98374
3182.03696	0.98330
3179.98005	0.98304
3177.92314	0.98339
3175.86623	0.98414
3173.80933	0.98467
3171.75242	0.98463
3169.69551	0.98451
3167.63860	0.98449
3165.58169	0.98445
3163.52479	0.98456
3161.46788	0.98472
3159.41097	0.98488
3157.35406	0.98525
3155.29715	0.98548
3153.24024	0.98531
3151.18334	0.98502
3149.12643	0.98500
3147.06952	0.98515
3145.01261	0.98518
3142.95570	0.98535
3140.89880	0.98609
3138.84189	0.98679
3136.78498	0.98660
3134.72807	0.98611
3132.67116	0.98608
3130.61425	0.98631
3128.55735	0.98665
3126.50044	0.98701
3124.44353	0.98710
3122.38662	0.98692
3120.32971	0.98684
3118.27281	0.98701
3116.21590	0.98723
3114.15899	0.98733
3112.10208	0.98728
3110.04517	0.98706
3107.98826	0.98670
3105.93136	0.98652
3103.87445	0.98668
3101.81754	0.98675
3099.76063	0.98658
3097.70372	0.98652
3095.64682	0.98686
3093.58991	0.98730
3091.53300	0.98764
3089.47609	0.98812
3087.41918	0.98827
3085.36227	0.98756
3083.30537	0.98663
3081.24846	0.98625
3079.19155	0.98654
3077.13464	0.98728
3075.07773	0.98790
3073.02083	0.98791
3070.96392	0.98763
3068.90701	0.98746
3066.85010	0.98746
3064.79319	0.98780
3062.73628	0.98823
3060.67938	0.98800
3058.62247	0.98740
3056.56556	0.98724
3054.50865	0.98736
3052.45174	0.98733
3050.39484	0.98745
3048.33793	0.98779
3046.28102	0.98780
3044.22411	0.98749
3042.16720	0.98757
3040.11029	0.98796
3038.05339	0.98793
3035.99648	0.98720
3033.93957	0.98648
3031.88266	0.98652
3029.82575	0.98678
3027.76885	0.98679
3025.71194	0.98665
3023.65503	0.98653
3021.59812	0.98671
3019.54121	0.98705
3017.48430	0.98732
3015.42740	0.98757
3013.37049	0.98782
3011.31358	0.98793
3009.25667	0.98774
3007.19976	0.98728
3005.14286	0.98666
3003.08595	0.98607
3001.02904	0.98581
2998.97213	0.98590
2996.91522	0.98601
2994.85831	0.98597
2992.80141	0.98590
2990.74450	0.98597
2988.68759	0.98621
2986.63068	0.98631
2984.57377	0.98592
2982.51687	0.98509
2980.45996	0.98413
2978.40305	0.98342
2976.34614	0.98323
2974.28923	0.98328
2972.23232	0.98296
2970.17542	0.98215
2968.11851	0.98142
2966.06160	0.98139
2964.00469	0.98172
2961.94778	0.98162
2959.89088	0.98093
2957.83397	0.98015
2955.77706	0.97970
2953.72015	0.97941
2951.66324	0.97886
2949.60633	0.97820
2947.54943	0.97774
2945.49252	0.97774
2943.43561	0.97810
2941.37870	0.97812
2939.32179	0.97762
2937.26489	0.97742
2935.20798	0.97742
2933.15107	0.97714
2931.09416	0.97711
2929.03725	0.97740
2926.98034	0.97754
2924.92344	0.97766
2922.86653	0.97760
2920.80962	0.97732
2918.75271	0.97740
2916.69580	0.97752
2914.63890	0.97730
2912.58199	0.97708
2910.52508	0.97687
2908.46817	0.97667
2906.41126	0.97671
2904.35435	0.97671
2902.29745	0.97627
2900.24054	0.97600
2898.18363	0.97621
2896.12672	0.97644
2894.06981	0.97663
2892.01291	0.97666
2889.95600	0.97651
2887.89909	0.97648
2885.84218	0.97666
2883.78527	0.97680
2881.72836	0.97658
2879.67146	0.97641
2877.61455	0.97704
2875.55764	0.97793
2873.50073	0.97829
2871.44382	0.97823
2869.38692	0.97832
2867.33001	0.97882
2865.27310	0.97943
2863.21619	0.98010
2861.15928	0.98083
2859.10237	0.98147
2857.04547	0.98185
2854.98856	0.98202
2852.93165	0.98242
2850.87474	0.98330
2848.81783	0.98425
2846.76093	0.98460
2844.70402	0.98451
2842.64711	0.98471
2840.59020	0.98532
2838.53329	0.98594
2836.47638	0.98633
2834.41948	0.98642
2832.36257	0.98618
2830.30566	0.98601
2828.24875	0.98626
2826.19184	0.98643
2824.13494	0.98632
2822.07803	0.98620
2820.02112	0.98623
2817.96421	0.98657
2815.90730	0.98701
2813.85039	0.98723
2811.79349	0.98718
2809.73658	0.98703
2807.67967	0.98695
2805.62276	0.98692
2803.56585	0.98699
2801.50895	0.98735
2799.45204	0.98778
2797.39513	0.98806
2795.33822	0.98822
2793.28131	0.98801
2791.22440	0.98763
2789.16750	0.98769
2787.11059	0.98808
2785.05368	0.98816
2782.99677	0.98789
2780.93986	0.98770
2778.88296	0.98787
2776.82605	0.98812
2774.76914	0.98816
2772.71223	0.98827
2770.65532	0.98853
2768.59841	0.98857
2766.54151	0.98854
2764.48460	0.98871
2762.42769	0.98873
2760.37078	0.98848
2758.31387	0.98852
2756.25697	0.98895
2754.20006	0.98911
2752.14315	0.98879
2750.08624	0.98843
2748.02933	0.98831
2745.97242	0.98835
2743.91552	0.98829
2741.85861	0.98808
2739.80170	0.98805
2737.74479	0.98816
2735.68788	0.98815
2733.63098	0.98816
2731.57407	0.98809
2729.51716	0.98795
2727.46025	0.98792
2725.40334	0.98812
2723.34643	0.98842
2721.28953	0.98846
2719.23262	0.98847
2717.17571	0.98876
2715.11880	0.98887
2713.06189	0.98878
2711.00499	0.98895
2708.94808	0.98921
2706.89117	0.98917
2704.83426	0.98881
2702.77735	0.98840
2700.72044	0.98825
2698.66354	0.98836
2696.60663	0.98857
2694.54972	0.98885
2692.49281	0.98908
2690.43590	0.98924
2688.37900	0.98949
2686.32209	0.98962
2684.26518	0.98947
2682.20827	0.98921
2680.15136	0.98893
2678.09445	0.98880
2676.03755	0.98900
2673.98064	0.98922
2671.92373	0.98922
2669.86682	0.98907
2667.80991	0.98899
2665.75301	0.98913
2663.69610	0.98914
2661.63919	0.98883
2659.58228	0.98875
2657.52537	0.98907
2655.46846	0.98910
2653.41156	0.98878
2651.35465	0.98867
2649.29774	0.98883
2647.24083	0.98897
2645.18392	0.98892
2643.12702	0.98866
2641.07011	0.98848
2639.01320	0.98881
2636.95629	0.98960
2634.89938	0.99025
2632.84247	0.99008
2630.78557	0.98957
2628.72866	0.98947
2626.67175	0.98939
2624.61484	0.98918
2622.55793	0.98949
2620.50103	0.98994
2618.44412	0.98963
2616.38721	0.98895
2614.33030	0.98852
2612.27339	0.98856
2610.21648	0.98907
2608.15958	0.98960
2606.10267	0.99012
2604.04576	0.99042
2601.98885	0.99031
2599.93194	0.99020
2597.87504	0.99024
2595.81813	0.99005
2593.76122	0.98958
2591.70431	0.98918
2589.64740	0.98922
2587.59049	0.98969
2585.53359	0.99028
2583.47668	0.99076
2581.41977	0.99104
2579.36286	0.99134
2577.30595	0.99183
2575.24905	0.99190
2573.19214	0.99108
2571.13523	0.99035
2569.07832	0.99031
2567.02141	0.99037
2564.96450	0.99021
2562.90760	0.99027
2560.85069	0.99086
2558.79378	0.99161
2556.73687	0.99214
2554.67996	0.99223
2552.62306	0.99175
2550.56615	0.99105
2548.50924	0.99073
2546.45233	0.99087
2544.39542	0.99125
2542.33851	0.99161
2540.28161	0.99169
2538.22470	0.99180
2536.16779	0.99177
2534.11088	0.99126
2532.05397	0.99095
2529.99707	0.99072
2527.94016	0.99007
2525.88325	0.98957
2523.82634	0.98968
2521.76943	0.98998
2519.71252	0.99034
2517.65562	0.99084
2515.59871	0.99108
2513.54180	0.99115
2511.48489	0.99124
2509.42798	0.99117
2507.37108	0.99136
2505.31417	0.99173
2503.25726	0.99129
2501.20035	0.99039
2499.14344	0.99027
2497.08653	0.99094
2495.02963	0.99152
2492.97272	0.99146
2490.91581	0.99104
2488.85890	0.99081
2486.80199	0.99083
2484.74509	0.99083
2482.68818	0.99089
2480.63127	0.99080
2478.57436	0.99061
2476.51745	0.99114
2474.46054	0.99192
2472.40364	0.99203
2470.34673	0.99173
2468.28982	0.99146
2466.23291	0.99142
2464.17600	0.99126
2462.11910	0.99077
2460.06219	0.99060
2458.00528	0.99099
2455.94837	0.99154
2453.89146	0.99186
2451.83455	0.99205
2449.77765	0.99214
2447.72074	0.99180
2445.66383	0.99117
2443.60692	0.99066
2441.55001	0.99084
2439.49311	0.99149
2437.43620	0.99170
2435.37929	0.99162
2433.32238	0.99160
2431.26547	0.99171
2429.20856	0.99203
2427.15166	0.99198
2425.09475	0.99163
2423.03784	0.99167
2420.98093	0.99192
2418.92402	0.99215
2416.86712	0.99204
2414.81021	0.99173
2412.75330	0.99216
2410.69639	0.99273
2408.63948	0.99271
2406.58257	0.99269
2404.52567	0.99231
2402.46876	0.99122
2400.41185	0.99026
2398.35494	0.99003
2396.29803	0.99067
2394.24113	0.99174
2392.18422	0.99242
2390.12731	0.99263
2388.07040	0.99242
2386.01349	0.99173
2383.95658	0.99122
2381.89968	0.99137
2379.84277	0.99183
2377.78586	0.99196
2375.72895	0.99154
2373.67204	0.99121
2371.61514	0.99144
2369.55823	0.99141
2367.50132	0.99096
2365.44441	0.99180
2363.38750	0.99348
2361.33059	0.99373
2359.27369	0.99258
2357.21678	0.99124
2355.15987	0.99031
2353.10296	0.99027
2351.04605	0.99091
2348.98915	0.99129
2346.93224	0.99125
2344.87533	0.99103
2342.81842	0.99056
2340.76151	0.99047
2338.70460	0.99112
2336.64770	0.99169
2334.59079	0.99197
2332.53388	0.99250
2330.47697	0.99303
2328.42006	0.99297
2326.36316	0.99215
2324.30625	0.99110
2322.24934	0.99038
2320.19243	0.98986
2318.13552	0.99011
2316.07861	0.99100
2314.02171	0.99116
2311.96480	0.99076
2309.90789	0.99078
2307.85098	0.99139
2305.79407	0.99176
2303.73717	0.99152
2301.68026	0.99145
2299.62335	0.99136
2297.56644	0.99066
2295.50953	0.99009
2293.45262	0.99013
2291.39572	0.99051
2289.33881	0.99096
2287.28190	0.99106
2285.22499	0.99111
2283.16808	0.99138
2281.11117	0.99155
2279.05427	0.99153
2276.99736	0.99107
2274.94045	0.99067
2272.88354	0.99139
2270.82663	0.99222
2268.76973	0.99184
2266.71282	0.99102
2264.65591	0.99114
2262.59900	0.99182
2260.54209	0.99150
2258.48518	0.99117
2256.42828	0.99232
2254.37137	0.99354
2252.31446	0.99352
2250.25755	0.99333
2248.20064	0.99368
2246.14374	0.99291
2244.08683	0.99068
2242.02992	0.98946
2239.97301	0.98963
2237.91610	0.99019
2235.85919	0.99153
2233.80229	0.99302
2231.74538	0.99327
2229.68847	0.99306
2227.63156	0.99346
2225.57465	0.99368
2223.51775	0.99326
2221.46084	0.99232
2219.40393	0.99142
2217.34702	0.99176
2215.29011	0.99351
2213.23320	0.99450
2211.17630	0.99299
2209.11939	0.99137
2207.06248	0.99205
2205.00557	0.99328
2202.94866	0.99383
2200.89176	0.99499
2198.83485	0.99529
2196.77794	0.99337
2194.72103	0.99176
2192.66412	0.99136
2190.60721	0.99097
2188.55031	0.99065
2186.49340	0.99164
2184.43649	0.99330
2182.37958	0.99344
2180.32267	0.99128
2178.26577	0.98909
2176.20886	0.98921
2174.15195	0.99003
2172.09504	0.99064
2170.03813	0.99194
2167.98122	0.99248
2165.92432	0.99163
2163.86741	0.99157
2161.81050	0.99256
2159.75359	0.99262
2157.69668	0.99268
2155.63978	0.99443
2153.58287	0.99571
2151.52596	0.99505
2149.46905	0.99390
2147.41214	0.99311
2145.35523	0.99249
2143.29833	0.99244
2141.24142	0.99344
2139.18451	0.99483
2137.12760	0.99567
2135.07069	0.99562
2133.01379	0.99428
2130.95688	0.99276
2128.89997	0.99250
2126.84306	0.99248
2124.78615	0.99164
2122.72924	0.99063
2120.67234	0.99064
2118.61543	0.99169
2116.55852	0.99206
2114.50161	0.99139
2112.44470	0.99107
2110.38780	0.99113
2108.33089	0.99131
2106.27398	0.99204
2104.21707	0.99249
2102.16016	0.99189
2100.10325	0.99094
2098.04635	0.99130
2095.98944	0.99281
2093.93253	0.99333
2091.87562	0.99254
2089.81871	0.99166
2087.76181	0.99209
2085.70490	0.99309
2083.64799	0.99300
2081.59108	0.99256
2079.53417	0.99231
2077.47726	0.99199
2075.42036	0.99251
2073.36345	0.99357
2071.30654	0.99352
2069.24963	0.99229
2067.19272	0.99156
2065.13582	0.99175
2063.07891	0.99219
2061.02200	0.99275
2058.96509	0.99219
2056.90818	0.99108
2054.85127	0.99075
2052.79437	0.99064
2050.73746	0.99148
2048.68055	0.99234
2046.62364	0.99155
2044.56673	0.99120
2042.50983	0.99181
2040.45292	0.99212
2038.39601	0.99224
2036.33910	0.99255
2034.28219	0.99428
2032.22528	0.99653
2030.16838	0.99701
2028.11147	0.99479
2026.05456	0.99168
2023.99765	0.99163
2021.94074	0.99392
2019.88384	0.99604
2017.82693	0.99696
2015.77002	0.99522
2013.71311	0.99241
2011.65620	0.99124
2009.59929	0.99153
2007.54239	0.99250
2005.48548	0.99324
2003.42857	0.99248
2001.37166	0.99128
1999.31475	0.99052
1997.25785	0.99065
1995.20094	0.99221
1993.14403	0.99375
1991.08712	0.99377
1989.03021	0.99315
1986.97330	0.99391
1984.91640	0.99533
1982.85949	0.99489
1980.80258	0.99310
1978.74567	0.99224
1976.68876	0.99232
1974.63186	0.99284
1972.57495	0.99324
1970.51804	0.99325
1968.46113	0.99461
1966.40422	0.99680
1964.34731	0.99731
1962.29041	0.99569
1960.23350	0.99381
1958.17659	0.99270
1956.11968	0.99186
1954.06277	0.99218
1952.00587	0.99345
1949.94896	0.99371
1947.89205	0.99341
1945.83514	0.99419
1943.77823	0.99539
1941.72132	0.99546
1939.66442	0.99569
1937.60751	0.99692
1935.55060	0.99708
1933.49369	0.99590
1931.43678	0.99449
1929.37988	0.99337
1927.32297	0.99348
1925.26606	0.99449
1923.20915	0.99460
1921.15224	0.99311
1919.09533	0.99181
1917.03843	0.99251
1914.98152	0.99417
1912.92461	0.99502
1910.86770	0.99510
1908.81079	0.99493
1906.75389	0.99432
1904.69698	0.99310
1902.64007	0.99214
1900.58316	0.99204
1898.52625	0.99274
1896.46934	0.99341
1894.41244	0.99313
1892.35553	0.99253
1890.29862	0.99241
1888.24171	0.99307
1886.18480	0.99381
1884.12790	0.99368
1882.07099	0.99317
1880.01408	0.99305
1877.95717	0.99338
1875.90026	0.99383
1873.84335	0.99400
1871.78645	0.99393
1869.72954	0.99360
1867.67263	0.99280
1865.61572	0.99246
1863.55881	0.99280
1861.50191	0.99320
1859.44500	0.99354
1857.38809	0.99348
1855.33118	0.99302
1853.27427	0.99300
1851.21736	0.99342
1849.16046	0.99352
1847.10355	0.99330
1845.04664	0.99320
1842.98973	0.99299
1840.93282	0.99290
1838.87592	0.99316
1836.81901	0.99326
1834.76210	0.99324
1832.70519	0.99306
1830.64828	0.99244
1828.59137	0.99202
1826.53447	0.99220
1824.47756	0.99247
1822.42065	0.99246
1820.36374	0.99215
1818.30683	0.99156
1816.24993	0.99109
1814.19302	0.99118
1812.13611	0.99145
1810.07920	0.99127
1808.02229	0.99085
1805.96538	0.99045
1803.90848	0.99017
1801.85157	0.98967
1799.79466	0.98898
1797.73775	0.98861
1795.68084	0.98832
1793.62394	0.98791
1791.56703	0.98744
1789.51012	0.98681
1787.45321	0.98566
1785.39630	0.98433
1783.33939	0.98344
1781.28249	0.98260
1779.22558	0.98099
1777.16867	0.97881
1775.11176	0.97629
1773.05485	0.97277
1770.99795	0.96789
1768.94104	0.96198
1766.88413	0.95453
1764.82722	0.94577
1762.77031	0.93460
1760.71340	0.92074
1758.65650	0.90752
1756.59959	0.89460
1754.54268	0.88303
1752.48577	0.87293
1750.42886	0.86185
1748.37196	0.85162
1746.31505	0.84471
1744.25814	0.84012
1742.20123	0.83692
1740.14432	0.83476
1738.08741	0.83415
1736.03051	0.83516
1733.97360	0.83658
1731.91669	0.83865
1729.85978	0.84240
1727.80287	0.84762
1725.74597	0.85380
1723.68906	0.86139
1721.63215	0.86971
1719.57524	0.87834
1717.51833	0.88916
1715.46142	0.90099
1713.40452	0.91100
1711.34761	0.91993
1709.29070	0.92828
1707.23379	0.93633
1705.17688	0.94387
1703.11998	0.94960
1701.06307	0.95433
1699.00616	0.95858
1696.94925	0.96189
1694.89234	0.96535
1692.83543	0.96809
1690.77853	0.96981
1688.72162	0.97129
1686.66471	0.97268
1684.60780	0.97401
1682.55089	0.97479
1680.49399	0.97522
1678.43708	0.97593
1676.38017	0.97660
1674.32326	0.97671
1672.26635	0.97666
1670.20944	0.97698
1668.15254	0.97749
1666.09563	0.97761
1664.03872	0.97722
1661.98181	0.97694
1659.92490	0.97699
1657.86800	0.97682
1655.81109	0.97644
1653.75418	0.97597
1651.69727	0.97520
1649.64036	0.97432
1647.58345	0.97368
1645.52655	0.97424
1643.46964	0.97517
1641.41273	0.97561
1639.35582	0.97606
1637.29891	0.97633
1635.24201	0.97622
1633.18510	0.97646
1631.12819	0.97666
1629.07128	0.97661
1627.01437	0.97677
1624.95746	0.97721
1622.90056	0.97764
1620.84365	0.97819
1618.78674	0.97879
1616.72983	0.97934
1614.67292	0.98007
1612.61602	0.98089
1610.55911	0.98159
1608.50220	0.98203
1606.44529	0.98232
1604.38838	0.98268
1602.33147	0.98319
1600.27457	0.98385
1598.21766	0.98426
1596.16075	0.98420
1594.10384	0.98411
1592.04693	0.98437
1589.99003	0.98478
1587.93312	0.98497
1585.87621	0.98487
1583.81930	0.98466
1581.76239	0.98467
1579.70548	0.98497
1577.64858	0.98534
1575.59167	0.98553
1573.53476	0.98553
1571.47785	0.98560
1569.42094	0.98551
1567.36404	0.98532
1565.30713	0.98549
1563.25022	0.98580
1561.19331	0.98601
1559.13640	0.98590
1557.07949	0.98571
1555.02259	0.98583
1552.96568	0.98587
1550.90877	0.98596
1548.85186	0.98615
1546.79495	0.98608
1544.73805	0.98569
1542.68114	0.98516
1540.62423	0.98511
1538.56732	0.98618
1536.51041	0.98700
1534.45350	0.98724
1532.39660	0.98714
1530.33969	0.98689
1528.28278	0.98685
1526.22587	0.98701
1524.16896	0.98691
1522.11206	0.98661
1520.05515	0.98649
1517.99824	0.98655
1515.94133	0.98681
1513.88442	0.98714
1511.82751	0.98713
1509.77061	0.98690
1507.71370	0.98660
1505.65679	0.98600
1503.59988	0.98594
1501.54297	0.98634
1499.48607	0.98658
1497.42916	0.98627
1495.37225	0.98591
1493.31534	0.98595
1491.25843	0.98588
1489.20152	0.98532
1487.14462	0.98477
1485.08771	0.98453
1483.03080	0.98428
1480.97389	0.98377
1478.91698	0.98292
1476.86008	0.98185
1474.80317	0.98072
1472.74626	0.97943
1470.68935	0.97810
1468.63244	0.97689
1466.57553	0.97537
1464.51863	0.97328
1462.46172	0.97128
1460.40481	0.96981
1458.34790	0.96825
1456.29099	0.96625
1454.23409	0.96495
1452.17718	0.96421
1450.12027	0.96333
1448.06336	0.96198
1446.00645	0.96026
1443.94954	0.95856
1441.89264	0.95694
1439.83573	0.95546
1437.77882	0.95390
1435.72191	0.95210
1433.66500	0.95096
1431.60810	0.95065
1429.55119	0.95090
1427.49428	0.95153
1425.43737	0.95232
1423.38046	0.95303
1421.32355	0.95366
1419.26665	0.95419
1417.20974	0.95450
1415.15283	0.95489
1413.09592	0.95536
1411.03901	0.95575
1408.98211	0.95598
1406.92520	0.95586
1404.86829	0.95546
1402.81138	0.95518
1400.75447	0.95499
1398.69756	0.95415
1396.64066	0.95225
1394.58375	0.94937
1392.52684	0.94594
1390.46993	0.94199
1388.41302	0.93649
1386.35612	0.92930
1384.29921	0.92192
1382.24230	0.91459
1380.18539	0.90702
1378.12848	0.90006
1376.07157	0.89433
1374.01467	0.88959
1371.95776	0.88688
1369.90085	0.88725
1367.84394	0.89049
1365.78703	0.89625
1363.73013	0.90444
1361.67322	0.91445
1359.61631	0.92436
1357.55940	0.93309
1355.50249	0.94030
1353.44558	0.94581
1351.38868	0.94978
1349.33177	0.95274
1347.27486	0.95483
1345.21795	0.95584
1343.16104	0.95617
1341.10414	0.95631
1339.04723	0.95626
1336.99032	0.95625
1334.93341	0.95625
1332.87650	0.95591
1330.81959	0.95525
1328.76269	0.95449
1326.70578	0.95391
1324.64887	0.95346
1322.59196	0.95289
1320.53505	0.95222
1318.47815	0.95154
1316.42124	0.95104
1314.36433	0.95094
1312.30742	0.95104
1310.25051	0.95120
1308.19360	0.95131
1306.13670	0.95126
1304.07979	0.95106
1302.02288	0.95078
1299.96597	0.95041
1297.90906	0.94971
1295.85216	0.94832
1293.79525	0.94629
1291.73834	0.94398
1289.68143	0.94128
1287.62452	0.93818
1285.56761	0.93498
1283.51071	0.93153
1281.45380	0.92738
1279.39689	0.92248
1277.33998	0.91690
1275.28307	0.91077
1273.22617	0.90419
1271.16926	0.89719
1269.11235	0.88976
1267.05544	0.88186
1264.99853	0.87339
1262.94162	0.86442
1260.88472	0.85527
1258.82781	0.84611
1256.77090	0.83662
1254.71399	0.82669
1252.65708	0.81662
1250.60018	0.80683
1248.54327	0.79759
1246.48636	0.78854
1244.42945	0.77943
1242.37254	0.77088
1240.31563	0.76328
1238.25873	0.75646
1236.20182	0.75050
1234.14491	0.74580
1232.08800	0.74281
1230.03109	0.74214
1227.97419	0.74428
1225.91728	0.74915
1223.86037	0.75672
1221.80346	0.76723
1219.74655	0.78047
1217.68964	0.79592
1215.63274	0.81311
1213.57583	0.83099
1211.51892	0.84809
1209.46201	0.86363
1207.40510	0.87758
1205.34820	0.88992
1203.29129	0.90081
1201.23438	0.91056
1199.17747	0.91910
1197.12056	0.92626
1195.06365	0.93215
1193.00675	0.93666
1190.94984	0.93965
1188.89293	0.94143
1186.83602	0.94197
1184.77911	0.94102
1182.72221	0.93899
1180.66530	0.93610
1178.60839	0.93244
1176.55148	0.92841
1174.49457	0.92409
1172.43766	0.91944
1170.38076	0.91472
1168.32385	0.91022
1166.26694	0.90619
1164.21003	0.90301
1162.15312	0.90097
1160.09622	0.90007
1158.03931	0.90061
1155.98240	0.90264
1153.92549	0.90510
1151.86858	0.90748
1149.81167	0.90996
1147.75477	0.91215
1145.69786	0.91352
1143.64095	0.91382
1141.58404	0.91293
1139.52713	0.91111
1137.47023	0.90851
1135.41332	0.90502
1133.35641	0.90097
1131.29950	0.89670
1129.24259	0.89243
1127.18568	0.88856
1125.12878	0.88512
1123.07187	0.88187
1121.01496	0.87892
1118.95805	0.87636
1116.90114	0.87399
1114.84424	0.87191
1112.78733	0.87037
1110.73042	0.86889
1108.67351	0.86666
1106.61660	0.86386
1104.55969	0.86120
1102.50279	0.85823
1100.44588	0.85430
1098.38897	0.84989
1096.33206	0.84532
1094.27515	0.84044
1092.21825	0.83481
1090.16134	0.82796
1088.10443	0.82032
1086.04752	0.81245
1083.99061	0.80432
1081.93370	0.79578
1079.87680	0.78724
1077.81989	0.77920
1075.76298	0.77166
1073.70607	0.76455
1071.64916	0.75825
1069.59226	0.75283
1067.53535	0.74773
1065.47844	0.74276
1063.42153	0.73814
1061.36462	0.73375
1059.30771	0.72958
1057.25081	0.72555
1055.19390	0.72139
1053.13699	0.71702
1051.08008	0.71265
1049.02317	0.70864
1046.96627	0.70513
1044.90936	0.70189
1042.85245	0.69879
1040.79554	0.69607
1038.73863	0.69403
1036.68172	0.69283
1034.62482	0.69299
1032.56791	0.69518
1030.51100	0.69971
1028.45409	0.70689
1026.39718	0.71644
1024.34028	0.72747
1022.28337	0.73968
1020.22646	0.75277
1018.16955	0.76575
1016.11264	0.77810
1014.05573	0.78970
1011.99883	0.80045
1009.94192	0.81036
1007.88501	0.81985
1005.82810	0.82910
1003.77119	0.83721
1001.71429	0.84397
999.65738	0.85043
997.60047	0.85724
995.54356	0.86398
993.48665	0.86998
991.42974	0.87527
989.37284	0.88020
987.31593	0.88493
985.25902	0.88948
983.20211	0.89372
981.14520	0.89790
979.08830	0.90226
977.03139	0.90686
974.97448	0.91170
972.91757	0.91648
970.86066	0.92106
968.80375	0.92568
966.74685	0.92969
964.68994	0.93262
962.63303	0.93518
960.57612	0.93781
958.51921	0.94028
956.46231	0.94222
954.40540	0.94369
952.34849	0.94495
950.29158	0.94593
948.23467	0.94654
946.17776	0.94692
944.12086	0.94734
942.06395	0.94794
940.00704	0.94849
937.95013	0.94884
935.89322	0.94897
933.83632	0.94898
931.77941	0.94878
929.72250	0.94804
927.66559	0.94711
925.60868	0.94647
923.55177	0.94576
921.49487	0.94463
919.43796	0.94319
917.38105	0.94158
915.32414	0.94008
913.26723	0.93873
911.21033	0.93724
909.15342	0.93571
907.09651	0.93458
905.03960	0.93398
902.98269	0.93404
900.92578	0.93456
898.86888	0.93534
896.81197	0.93678
894.75506	0.93873
892.69815	0.94079
890.64124	0.94279
888.58434	0.94456
886.52743	0.94654
884.47052	0.94886
882.41361	0.95132
880.35670	0.95420
878.29979	0.95742
876.24289	0.96050
874.18598	0.96315
872.12907	0.96523
870.07216	0.96658
868.01525	0.96746
865.95835	0.96819
863.90144	0.96888
861.84453	0.96988
859.78762	0.97100
857.73071	0.97161
855.67380	0.97200
853.61690	0.97246
851.55999	0.97258
849.50308	0.97219
847.44617	0.97150
845.38926	0.97083
843.33236	0.97044
841.27545	0.97010
839.21854	0.96953
837.16163	0.96934
835.10472	0.97021
833.04781	0.97144
830.99091	0.97201
828.93400	0.97217
826.87709	0.97272
824.82018	0.97362
822.76327	0.97439
820.70637	0.97477
818.64946	0.97522
816.59255	0.97605
814.53564	0.97641
812.47873	0.97632
810.42182	0.97638
808.36492	0.97606
806.30801	0.97546
804.25110	0.97536
802.19419	0.97526
800.13728	0.97520
798.08038	0.97542
796.02347	0.97552
793.96656	0.97554
791.90965	0.97527
789.85274	0.97466
787.79583	0.97427
785.73893	0.97438
783.68202	0.97453
781.62511	0.97448
779.56820	0.97425
777.51129	0.97382
775.45439	0.97361
773.39748	0.97377
771.34057	0.97386
769.28366	0.97359
767.22675	0.97315
765.16984	0.97290
763.11294	0.97305
761.05603	0.97327
758.99912	0.97286
756.94221	0.97206
754.88530	0.97152
752.82839	0.97152
750.77149	0.97209
748.71458	0.97237
746.65767	0.97176
744.60076	0.97095
742.54385	0.97031
740.48695	0.96974
738.43004	0.96947
736.37313	0.96934
734.31622	0.96876
732.25931	0.96776
730.20240	0.96696
728.14550	0.96645
726.08859	0.96606
724.03168	0.96559
721.97477	0.96472
719.91786	0.96367
717.86096	0.96243
715.80405	0.96122
713.74714	0.96101
711.69023	0.96140
709.63332	0.96128
707.57641	0.96032
705.51951	0.95864
703.46260	0.95689
701.40569	0.95604
699.34878	0.95621
697.29187	0.95593
695.23497	0.95445
693.17806	0.95288
691.12115	0.95173
689.06424	0.95046
687.00733	0.94924
684.95042	0.94855
682.89352	0.94786
680.83661	0.94672
678.77970	0.94572
676.72279	0.94539
674.66588	0.94555
672.60898	0.94547
670.55207	0.94492
668.49516	0.94429
666.43825	0.94342
664.38134	0.94232
662.32443	0.94148
660.26753	0.94073
658.21062	0.94001
656.15371	0.93964
654.09680	0.93906
652.03989	0.93748
649.98299	0.93502
647.92608	0.93284
645.86917	0.93169
643.81226	0.93065
641.75535	0.92862
639.69844	0.92585
637.64154	0.92347
635.58463	0.92190
633.52772	0.92090
631.47081	0.92049
629.41390	0.91992
627.35700	0.91868
625.30009	0.91741
623.24318	0.91598
621.18627	0.91398
619.12936	0.91132
617.07245	0.90835
615.01555	0.90589
612.95864	0.90314
610.90173	0.89911
608.84482	0.89494
606.78791	0.89196
604.73101	0.89054
602.67410	0.89095
600.61719	0.89295
598.56028	0.89539
596.50337	0.89848
594.44646	0.90292
592.38956	0.90689
590.33265	0.90924
588.27574	0.91113
586.21883	0.91287
584.16192	0.91367
582.10502	0.91376
580.04811	0.91353
577.99120	0.91245
575.93429	0.91113
573.87738	0.91066
571.82047	0.91065
569.76357	0.90964
567.70666	0.90791
565.64975	0.90696
563.59284	0.90651
561.53593	0.90675
559.47903	0.90803
557.42212	0.90897
555.36521	0.90879
553.30830	0.90884
551.25139	0.90986
549.19448	0.91003
547.13758	0.90907
545.08067	0.90924
543.02376	0.91049
540.96685	0.91191
538.90994	0.91320
536.85304	0.91264
534.79613	0.91065
532.73922	0.90870
530.68231	0.90760
528.62540	0.90849
526.56849	0.90948
524.51159	0.90879
522.45468	0.90885
520.39777	0.90971
518.34086	0.90852
516.28395	0.90695
514.22705	0.90685
512.17014	0.90581
510.11323	0.90371
508.05632	0.90295
505.99941	0.90372
503.94250	0.90373
501.88560	0.90213
499.82869	0.89997
497.77178	0.89852
495.71487	0.89867
493.65796	0.89884
491.60106	0.89831
489.54415	0.89910
487.48724	0.89999
485.43033	0.90004
483.37342	0.90099
481.31651	0.90138
479.25961	0.90069
477.20270	0.89992
475.14579	0.89885
473.08888	0.89757
471.03197	0.89699
468.97507	0.89775
466.91816	0.89722
464.86125	0.89473
462.80434	0.89302
460.74743	0.89243
458.69052	0.89237
456.63362	0.89306
454.57671	0.89442
452.51980	0.89477
450.46289	0.89232
448.40598	0.89096
446.34908	0.89345
444.29217	0.89506
442.23526	0.89382
440.17835	0.89215
438.12144	0.89330
436.06453	0.89749
434.00763	0.89862
431.95072	0.89695
429.89381	0.89766
427.83690	0.89852
425.77999	0.89684
423.72309	0.89711
421.66618	0.90047
419.60927	0.90215
417.55236	0.90286
415.49545	0.90425
413.43854	0.90467
411.38164	0.90563
409.32473	0.90637
407.26782	0.90543
405.21091	0.90669
403.15400	0.90843
401.09710	0.90541
399.04019	0.89846
