3996.57260	0.98691
3994.51569	0.98767
3992.45878	0.98771
3990.40188	0.98687
3988.34497	0.98591
3986.28806	0.98590
3984.23115	0.98683
3982.17424	0.98743
3980.11733	0.98716
3978.06043	0.98656
3976.00352	0.98622
3973.94661	0.98602
3971.88970	0.98577
3969.83279	0.98585
3967.77589	0.98606
3965.71898	0.98612
3963.66207	0.98653
3961.60516	0.98684
3959.54825	0.98618
3957.49134	0.98543
3955.43444	0.98576
3953.37753	0.98703
3951.32062	0.98802
3949.26371	0.98796
3947.20680	0.98753
3945.14990	0.98746
3943.09299	0.98726
3941.03608	0.98671
3938.97917	0.98631
3936.92226	0.98599
3934.86535	0.98556
3932.80845	0.98480
3930.75154	0.98410
3928.69463	0.98459
3926.63772	0.98572
3924.58081	0.98653
3922.52391	0.98689
3920.46700	0.98664
3918.41009	0.98607
3916.35318	0.98633
3914.29627	0.98689
3912.23936	0.98705
3910.18246	0.98733
3908.12555	0.98723
3906.06864	0.98608
3904.01173	0.98460
3901.95482	0.98376
3899.89792	0.98364
3897.84101	0.98421
3895.78410	0.98507
3893.72719	0.98571
3891.67028	0.98601
3889.61337	0.98641
3887.55647	0.98691
3885.49956	0.98672
3883.44265	0.98602
3881.38574	0.98535
3879.32883	0.98476
3877.27193	0.98509
3875.21502	0.98604
3873.15811	0.98655
3871.10120	0.98631
3869.04429	0.98578
3866.98738	0.98562
3864.93048	0.98510
3862.87357	0.98410
3860.81666	0.98434
3858.75975	0.98536
3856.70284	0.98542
3854.64594	0.98338
3852.58903	0.98155
3850.53212	0.98326
3848.47521	0.98530
3846.41830	0.98653
3844.36139	0.98684
3842.30449	0.98632
3840.24758	0.98581
3838.19067	0.98470
3836.13376	0.98370
3834.07685	0.98443
3832.01995	0.98554
3829.96304	0.98615
3827.90613	0.98620
3825.84922	0.98583
3823.79231	0.98582
3821.73540	0.98588
3819.67850	0.98543
3817.62159	0.98497
3815.56468	0.98505
3813.50777	0.98593
3811.45086	0.98683
3809.39396	0.98711
3807.33705	0.98718
3805.28014	0.98778
3803.22323	0.98767
3801.16632	0.98639
3799.10941	0.98583
3797.05251	0.98592
3794.99560	0.98616
3792.93869	0.98693
3790.88178	0.98776
3788.82487	0.98803
3786.76796	0.98797
3784.71106	0.98787
3782.65415	0.98732
3780.59724	0.98642
3778.54033	0.98599
3776.48342	0.98630
3774.42652	0.98689
3772.36961	0.98712
3770.31270	0.98660
3768.25579	0.98599
3766.19888	0.98601
3764.14197	0.98641
3762.08507	0.98701
3760.02816	0.98717
3757.97125	0.98667
3755.91434	0.98664
3753.85743	0.98677
3751.80053	0.98605
3749.74362	0.98514
3747.68671	0.98513
3745.62980	0.98541
3743.57289	0.98515
3741.51598	0.98493
3739.45908	0.98524
3737.40217	0.98515
3735.34526	0.98369
3733.28835	0.98267
3731.23144	0.98379
3729.17454	0.98546
3727.11763	0.98619
3725.06072	0.98623
3723.00381	0.98628
3720.94690	0.98591
3718.88999	0.98566
3716.83309	0.98605
3714.77618	0.98595
3712.71927	0.98470
3710.66236	0.98433
3708.60545	0.98621
3706.54855	0.98739
3704.49164	0.98712
3702.43473	0.98688
3700.37782	0.98735
3698.32091	0.98786
3696.26400	0.98809
3694.20710	0.98818
3692.15019	0.98840
3690.09328	0.98845
3688.03637	0.98727
3685.97946	0.98582
3683.92256	0.98557
3681.86565	0.98648
3679.80874	0.98722
3677.75183	0.98571
3675.69492	0.98297
3673.63801	0.98395
3671.58111	0.98624
3669.52420	0.98690
3667.46729	0.98756
3665.41038	0.98838
3663.35347	0.98837
3661.29657	0.98805
3659.23966	0.98787
3657.18275	0.98746
3655.12584	0.98705
3653.06893	0.98691
3651.01202	0.98569
3648.95512	0.98294
3646.89821	0.98252
3644.84130	0.98453
3642.78439	0.98626
3640.72748	0.98721
3638.67058	0.98782
3636.61367	0.98768
3634.55676	0.98673
3632.49985	0.98614
3630.44294	0.98606
3628.38603	0.98523
3626.32913	0.98443
3624.27222	0.98477
3622.21531	0.98506
3620.15840	0.98399
3618.10149	0.98280
3616.04459	0.98292
3613.98768	0.98301
3611.93077	0.98315
3609.87386	0.98393
3607.81695	0.98447
3605.76004	0.98424
3603.70314	0.98366
3601.64623	0.98297
3599.58932	0.98187
3597.53241	0.98088
3595.47550	0.98086
3593.41860	0.98130
3591.36169	0.98144
3589.30478	0.98065
3587.24787	0.97881
3585.19096	0.97807
3583.13405	0.97870
3581.07715	0.97921
3579.02024	0.97921
3576.96333	0.97896
3574.90642	0.97851
3572.84951	0.97805
3570.79261	0.97749
3568.73570	0.97625
3566.67879	0.97492
3564.62188	0.97496
3562.56497	0.97562
3560.50806	0.97619
3558.45116	0.97653
3556.39425	0.97591
3554.33734	0.97453
3552.28043	0.97377
3550.22352	0.97374
3548.16662	0.97328
3546.10971	0.97232
3544.05280	0.97151
3541.99589	0.97108
3539.93898	0.97104
3537.88207	0.97055
3535.82517	0.96937
3533.76826	0.96847
3531.71135	0.96800
3529.65444	0.96716
3527.59753	0.96597
3525.54063	0.96525
3523.48372	0.96518
3521.42681	0.96543
3519.36990	0.96533
3517.31299	0.96505
3515.25608	0.96480
3513.19918	0.96411
3511.14227	0.96320
3509.08536	0.96231
3507.02845	0.96140
3504.97154	0.96038
3502.91464	0.95921
3500.85773	0.95876
3498.80082	0.95858
3496.74391	0.95768
3494.68700	0.95700
3492.63009	0.95657
3490.57319	0.95534
3488.51628	0.95403
3486.45937	0.95347
3484.40246	0.95328
3482.34555	0.95291
3480.28865	0.95222
3478.23174	0.95154
3476.17483	0.95065
3474.11792	0.94909
3472.06101	0.94758
3470.00410	0.94710
3467.94720	0.94726
3465.89029	0.94703
3463.83338	0.94626
3461.77647	0.94521
3459.71956	0.94405
3457.66266	0.94328
3455.60575	0.94262
3453.54884	0.94125
3451.49193	0.93908
3449.43502	0.93703
3447.37811	0.93621
3445.32121	0.93638
3443.26430	0.93646
3441.20739	0.93662
3439.15048	0.93650
3437.09357	0.93514
3435.03667	0.93369
3432.97976	0.93304
3430.92285	0.93270
3428.86594	0.93211
3426.80903	0.93066
3424.75212	0.92903
3422.69522	0.92775
3420.63831	0.92655
3418.58140	0.92570
3416.52449	0.92494
3414.46758	0.92407
3412.41068	0.92301
3410.35377	0.92176
3408.29686	0.92116
3406.23995	0.92112
3404.18304	0.92068
3402.12613	0.92021
3400.06923	0.91989
3398.01232	0.91935
3395.95541	0.91926
3393.89850	0.91928
3391.84159	0.91837
3389.78469	0.91707
3387.72778	0.91605
3385.67087	0.91524
3383.61396	0.91470
3381.55705	0.91459
3379.50014	0.91449
3377.44324	0.91379
3375.38633	0.91264
3373.32942	0.91173
3371.27251	0.91084
3369.21560	0.90968
3367.15870	0.90881
3365.10179	0.90810
3363.04488	0.90712
3360.98797	0.90632
3358.93106	0.90598
3356.87415	0.90538
3354.81725	0.90406
3352.76034	0.90292
3350.70343	0.90245
3348.64652	0.90178
3346.58961	0.90047
3344.53271	0.89916
3342.47580	0.89853
3340.41889	0.89829
3338.36198	0.89792
3336.30507	0.89745
3334.24816	0.89710
3332.19126	0.89677
3330.13435	0.89629
3328.07744	0.89615
3326.02053	0.89655
3323.96362	0.89726
3321.90672	0.89783
3319.84981	0.89776
3317.79290	0.89757
3315.73599	0.89773
3313.67908	0.89798
3311.62217	0.89816
3309.56527	0.89828
3307.50836	0.89822
3305.45145	0.89778
3303.39454	0.89716
3301.33763	0.89681
3299.28073	0.89698
3297.22382	0.89750
3295.16691	0.89799
3293.11000	0.89816
3291.05309	0.89801
3288.99618	0.89799
3286.93928	0.89833
3284.88237	0.89885
3282.82546	0.89917
3280.76855	0.89893
3278.71164	0.89863
3276.65474	0.89866
3274.59783	0.89854
3272.54092	0.89844
3270.48401	0.89891
3268.42710	0.89969
3266.37019	0.90049
3264.31329	0.90153
3262.25638	0.90294
3260.19947	0.90414
3258.14256	0.90479
3256.08565	0.90551
3254.02875	0.90658
3251.97184	0.90752
3249.91493	0.90829
3247.85802	0.90908
3245.80111	0.90997
3243.74420	0.91095
3241.68730	0.91174
3239.63039	0.91269
3237.57348	0.91398
3235.51657	0.91486
3233.45966	0.91520
3231.40276	0.91543
3229.34585	0.91602
3227.28894	0.91705
3225.23203	0.91781
3223.17512	0.91821
3221.11821	0.91901
3219.06131	0.92018
3217.00440	0.92084
3214.94749	0.92116
3212.89058	0.92188
3210.83367	0.92262
3208.77677	0.92288
3206.71986	0.92296
3204.66295	0.92372
3202.60604	0.92537
3200.54913	0.92691
3198.49222	0.92792
3196.43532	0.92901
3194.37841	0.92993
3192.32150	0.93027
3190.26459	0.93058
3188.20768	0.93098
3186.15078	0.93121
3184.09387	0.93140
3182.03696	0.93193
3179.98005	0.93273
3177.92314	0.93371
3175.86623	0.93472
3173.80933	0.93518
3171.75242	0.93546
3169.69551	0.93603
3167.63860	0.93652
3165.58169	0.93717
3163.52479	0.93831
3161.46788	0.93919
3159.41097	0.93961
3157.35406	0.94013
3155.29715	0.94052
3153.24024	0.94070
3151.18334	0.94117
3149.12643	0.94179
3147.06952	0.94247
3145.01261	0.94335
3142.95570	0.94400
3140.89880	0.94403
3138.84189	0.94387
3136.78498	0.94429
3134.72807	0.94527
3132.67116	0.94593
3130.61425	0.94619
3128.55735	0.94657
3126.50044	0.94682
3124.44353	0.94715
3122.38662	0.94784
3120.32971	0.94827
3118.27281	0.94871
3116.21590	0.94945
3114.15899	0.94972
3112.10208	0.94955
3110.04517	0.94953
3107.98826	0.94991
3105.93136	0.95082
3103.87445	0.95185
3101.81754	0.95244
3099.76063	0.95284
3097.70372	0.95305
3095.64682	0.95318
3093.58991	0.95385
3091.53300	0.95468
3089.47609	0.95488
3087.41918	0.95470
3085.36227	0.95470
3083.30537	0.95487
3081.24846	0.95515
3079.19155	0.95538
3077.13464	0.95565
3075.07773	0.95615
3073.02083	0.95655
3070.96392	0.95695
3068.90701	0.95741
3066.85010	0.95756
3064.79319	0.95773
3062.73628	0.95827
3060.67938	0.95885
3058.62247	0.95923
3056.56556	0.95943
3054.50865	0.95961
3052.45174	0.95988
3050.39484	0.95986
3048.33793	0.95960
3046.28102	0.95982
3044.22411	0.96045
3042.16720	0.96088
3040.11029	0.96092
3038.05339	0.96087
3035.99648	0.96109
3033.93957	0.96122
3031.88266	0.96093
3029.82575	0.96084
3027.76885	0.96139
3025.71194	0.96227
3023.65503	0.96305
3021.59812	0.96315
3019.54121	0.96293
3017.48430	0.96337
3015.42740	0.96396
3013.37049	0.96404
3011.31358	0.96421
3009.25667	0.96461
3007.19976	0.96481
3005.14286	0.96477
3003.08595	0.96447
3001.02904	0.96407
2998.97213	0.96391
2996.91522	0.96398
2994.85831	0.96418
2992.80141	0.96441
2990.74450	0.96466
2988.68759	0.96497
2986.63068	0.96500
2984.57377	0.96478
2982.51687	0.96457
2980.45996	0.96417
2978.40305	0.96376
2976.34614	0.96354
2974.28923	0.96327
2972.23232	0.96288
2970.17542	0.96227
2968.11851	0.96155
2966.06160	0.96113
2964.00469	0.96089
2961.94778	0.96067
2959.89088	0.96049
2957.83397	0.96017
2955.77706	0.95976
2953.72015	0.95921
2951.66324	0.95839
2949.60633	0.95777
2947.54943	0.95746
2945.49252	0.95700
2943.43561	0.95614
2941.37870	0.95517
2939.32179	0.95482
2937.26489	0.95488
2935.20798	0.95460
2933.15107	0.95398
2931.09416	0.95331
2929.03725	0.95284
2926.98034	0.95261
2924.92344	0.95249
2922.86653	0.95198
2920.80962	0.95064
2918.75271	0.94911
2916.69580	0.94781
2914.63890	0.94630
2912.58199	0.94484
2910.52508	0.94376
2908.46817	0.94268
2906.41126	0.94157
2904.35435	0.94089
2902.29745	0.94064
2900.24054	0.94065
2898.18363	0.94075
2896.12672	0.94045
2894.06981	0.93985
2892.01291	0.93968
2889.95600	0.93999
2887.89909	0.94064
2885.84218	0.94133
2883.78527	0.94140
2881.72836	0.94087
2879.67146	0.94069
2877.61455	0.94121
2875.55764	0.94173
2873.50073	0.94196
2871.44382	0.94233
2869.38692	0.94285
2867.33001	0.94330
2865.27310	0.94384
2863.21619	0.94441
2861.15928	0.94475
2859.10237	0.94506
2857.04547	0.94574
2854.98856	0.94675
2852.93165	0.94751
2850.87474	0.94779
2848.81783	0.94817
2846.76093	0.94903
2844.70402	0.94998
2842.64711	0.95060
2840.59020	0.95107
2838.53329	0.95171
2836.47638	0.95244
2834.41948	0.95297
2832.36257	0.95319
2830.30566	0.95317
2828.24875	0.95345
2826.19184	0.95445
2824.13494	0.95536
2822.07803	0.95566
2820.02112	0.95592
2817.96421	0.95634
2815.90730	0.95679
2813.85039	0.95681
2811.79349	0.95662
2809.73658	0.95692
2807.67967	0.95744
2805.62276	0.95782
2803.56585	0.95819
2801.50895	0.95849
2799.45204	0.95868
2797.39513	0.95880
2795.33822	0.95890
2793.28131	0.95913
2791.22440	0.95944
2789.16750	0.95963
2787.11059	0.95973
2785.05368	0.95998
2782.99677	0.96026
2780.93986	0.96031
2778.88296	0.96024
2776.82605	0.96020
2774.76914	0.96046
2772.71223	0.96095
2770.65532	0.96120
2768.59841	0.96124
2766.54151	0.96130
2764.48460	0.96130
2762.42769	0.96111
2760.37078	0.96061
2758.31387	0.96038
2756.25697	0.96084
2754.20006	0.96133
2752.14315	0.96153
2750.08624	0.96169
2748.02933	0.96163
2745.97242	0.96112
2743.91552	0.96067
2741.85861	0.96071
2739.80170	0.96111
2737.74479	0.96147
2735.68788	0.96167
2733.63098	0.96186
2731.57407	0.96192
2729.51716	0.96186
2727.46025	0.96196
2725.40334	0.96196
2723.34643	0.96178
2721.28953	0.96174
2719.23262	0.96183
2717.17571	0.96178
2715.11880	0.96176
2713.06189	0.96216
2711.00499	0.96244
2708.94808	0.96223
2706.89117	0.96224
2704.83426	0.96267
2702.77735	0.96290
2700.72044	0.96273
2698.66354	0.96258
2696.60663	0.96281
2694.54972	0.96334
2692.49281	0.96357
2690.43590	0.96341
2688.37900	0.96332
2686.32209	0.96329
2684.26518	0.96335
2682.20827	0.96357
2680.15136	0.96374
2678.09445	0.96371
2676.03755	0.96352
2673.98064	0.96346
2671.92373	0.96361
2669.86682	0.96347
2667.80991	0.96301
2665.75301	0.96291
2663.69610	0.96318
2661.63919	0.96330
2659.58228	0.96336
2657.52537	0.96385
2655.46846	0.96459
2653.41156	0.96491
2651.35465	0.96473
2649.29774	0.96462
2647.24083	0.96462
2645.18392	0.96455
2643.12702	0.96485
2641.07011	0.96520
2639.01320	0.96491
2636.95629	0.96464
2634.89938	0.96506
2632.84247	0.96561
2630.78557	0.96570
2628.72866	0.96556
2626.67175	0.96533
2624.61484	0.96503
2622.55793	0.96487
2620.50103	0.96488
2618.44412	0.96488
2616.38721	0.96497
2614.33030	0.96534
2612.27339	0.96588
2610.21648	0.96616
2608.15958	0.96601
2606.10267	0.96596
2604.04576	0.96638
2601.98885	0.96693
2599.93194	0.96706
2597.87504	0.96669
2595.81813	0.96635
2593.76122	0.96667
2591.70431	0.96727
2589.64740	0.96722
2587.59049	0.96676
2585.53359	0.96656
2583.47668	0.96681
2581.41977	0.96710
2579.36286	0.96710
2577.30595	0.96724
2575.24905	0.96751
2573.19214	0.96736
2571.13523	0.96688
2569.07832	0.96641
2567.02141	0.96621
2564.96450	0.96657
2562.90760	0.96702
2560.85069	0.96705
2558.79378	0.96687
2556.73687	0.96687
2554.67996	0.96757
2552.62306	0.96836
2550.56615	0.96811
2548.50924	0.96759
2546.45233	0.96763
2544.39542	0.96768
2542.33851	0.96776
2540.28161	0.96839
2538.22470	0.96880
2536.16779	0.96842
2534.11088	0.96826
2532.05397	0.96870
2529.99707	0.96895
2527.94016	0.96858
2525.88325	0.96762
2523.82634	0.96678
2521.76943	0.96661
2519.71252	0.96680
2517.65562	0.96731
2515.59871	0.96767
2513.54180	0.96759
2511.48489	0.96789
2509.42798	0.96888
2507.37108	0.96928
2505.31417	0.96824
2503.25726	0.96717
2501.20035	0.96725
2499.14344	0.96770
2497.08653	0.96812
2495.02963	0.96858
2492.97272	0.96843
2490.91581	0.96791
2488.85890	0.96799
2486.80199	0.96826
2484.74509	0.96824
2482.68818	0.96829
2480.63127	0.96830
2478.57436	0.96807
2476.51745	0.96807
2474.46054	0.96843
2472.40364	0.96885
2470.34673	0.96855
2468.28982	0.96786
2466.23291	0.96842
2464.17600	0.96942
2462.11910	0.96913
2460.06219	0.96845
2458.00528	0.96880
2455.94837	0.96954
2453.89146	0.96939
2451.83455	0.96849
2449.77765	0.96807
2447.72074	0.96842
2445.66383	0.96882
2443.60692	0.96919
2441.55001	0.96927
2439.49311	0.96876
2437.43620	0.96835
2435.37929	0.96829
2433.32238	0.96877
2431.26547	0.96967
2429.20856	0.97014
2427.15166	0.97063
2425.09475	0.97108
2423.03784	0.97042
2420.98093	0.96931
2418.92402	0.96874
2416.86712	0.96857
2414.81021	0.96834
2412.75330	0.96834
2410.69639	0.96891
2408.63948	0.96968
2406.58257	0.97044
2404.52567	0.97098
2402.46876	0.97094
2400.41185	0.97042
2398.35494	0.97032
2396.29803	0.97097
2394.24113	0.97123
2392.18422	0.97073
2390.12731	0.97025
2388.07040	0.96998
2386.01349	0.96982
2383.95658	0.96976
2381.89968	0.96995
2379.84277	0.97055
2377.78586	0.97130
2375.72895	0.97168
2373.67204	0.97148
2371.61514	0.97133
2369.55823	0.97172
2367.50132	0.97193
2365.44441	0.97098
2363.38750	0.96975
2361.33059	0.96950
2359.27369	0.96945
2357.21678	0.96917
2355.15987	0.96932
2353.10296	0.96958
2351.04605	0.96943
2348.98915	0.96942
2346.93224	0.96989
2344.87533	0.97020
2342.81842	0.97020
2340.76151	0.97023
2338.70460	0.96939
2336.64770	0.96823
2334.59079	0.96770
2332.53388	0.96747
2330.47697	0.96805
2328.42006	0.96917
2326.36316	0.96947
2324.30625	0.96892
2322.24934	0.96847
2320.19243	0.96849
2318.13552	0.96848
2316.07861	0.96855
2314.02171	0.96905
2311.96480	0.96980
2309.90789	0.97036
2307.85098	0.97049
2305.79407	0.97021
2303.73717	0.97018
2301.68026	0.97045
2299.62335	0.97022
2297.56644	0.97000
2295.50953	0.97033
2293.45262	0.97014
2291.39572	0.96904
2289.33881	0.96851
2287.28190	0.96883
2285.22499	0.96911
2283.16808	0.96975
2281.11117	0.97094
2279.05427	0.97155
2276.99736	0.97101
2274.94045	0.97039
2272.88354	0.97051
2270.82663	0.97073
2268.76973	0.97076
2266.71282	0.97078
2264.65591	0.97053
2262.59900	0.97037
2260.54209	0.97052
2258.48518	0.97059
2256.42828	0.97081
2254.37137	0.97128
2252.31446	0.97136
2250.25755	0.97088
2248.20064	0.97080
2246.14374	0.97104
2244.08683	0.97080
2242.02992	0.97062
2239.97301	0.97085
2237.91610	0.97126
2235.85919	0.97162
2233.80229	0.97169
2231.74538	0.97147
2229.68847	0.97146
2227.63156	0.97167
2225.57465	0.97196
2223.51775	0.97181
2221.46084	0.97072
2219.40393	0.96998
2217.34702	0.96988
2215.29011	0.97010
2213.23320	0.97138
2211.17630	0.97283
2209.11939	0.97338
2207.06248	0.97288
2205.00557	0.97148
2202.94866	0.97091
2200.89176	0.97190
2198.83485	0.97195
2196.77794	0.97020
2194.72103	0.96948
2192.66412	0.96993
2190.60721	0.96955
2188.55031	0.96929
2186.49340	0.96952
2184.43649	0.96895
2182.37958	0.96868
2180.32267	0.96999
2178.26577	0.97106
2176.20886	0.97060
2174.15195	0.97012
2172.09504	0.97134
2170.03813	0.97328
2167.98122	0.97296
2165.92432	0.97116
2163.86741	0.97088
2161.81050	0.97217
2159.75359	0.97437
2157.69668	0.97544
2155.63978	0.97449
2153.58287	0.97322
2151.52596	0.97235
2149.46905	0.97244
2147.41214	0.97325
2145.35523	0.97441
2143.29833	0.97591
2141.24142	0.97682
2139.18451	0.97644
2137.12760	0.97520
2135.07069	0.97344
2133.01379	0.97210
2130.95688	0.97197
2128.89997	0.97167
2126.84306	0.97087
2124.78615	0.97055
2122.72924	0.97076
2120.67234	0.97121
2118.61543	0.97144
2116.55852	0.97132
2114.50161	0.97128
2112.44470	0.97186
2110.38780	0.97247
2108.33089	0.97194
2106.27398	0.97061
2104.21707	0.96976
2102.16016	0.96978
2100.10325	0.97002
2098.04635	0.97056
2095.98944	0.97135
2093.93253	0.97159
2091.87562	0.97161
2089.81871	0.97130
2087.76181	0.97084
2085.70490	0.97144
2083.64799	0.97161
2081.59108	0.97063
2079.53417	0.97072
2077.47726	0.97203
2075.42036	0.97244
2073.36345	0.97105
2071.30654	0.97034
2069.24963	0.97210
2067.19272	0.97346
2065.13582	0.97204
2063.07891	0.97016
2061.02200	0.97059
2058.96509	0.97202
2056.90818	0.97263
2054.85127	0.97319
2052.79437	0.97406
2050.73746	0.97409
2048.68055	0.97358
2046.62364	0.97341
2044.56673	0.97369
2042.50983	0.97482
2040.45292	0.97552
2038.39601	0.97456
2036.33910	0.97335
2034.28219	0.97221
2032.22528	0.97100
2030.16838	0.97145
2028.11147	0.97235
2026.05456	0.97310
2023.99765	0.97579
2021.94074	0.97762
2019.88384	0.97645
2017.82693	0.97520
2015.77002	0.97544
2013.71311	0.97599
2011.65620	0.97557
2009.59929	0.97533
2007.54239	0.97583
2005.48548	0.97504
2003.42857	0.97428
2001.37166	0.97481
1999.31475	0.97417
1997.25785	0.97231
1995.20094	0.97210
1993.14403	0.97323
1991.08712	0.97355
1989.03021	0.97450
1986.97330	0.97652
1984.91640	0.97678
1982.85949	0.97539
1980.80258	0.97559
1978.74567	0.97783
1976.68876	0.97839
1974.63186	0.97608
1972.57495	0.97448
1970.51804	0.97479
1968.46113	0.97565
1966.40422	0.97733
1964.34731	0.97826
1962.29041	0.97714
1960.23350	0.97577
1958.17659	0.97510
1956.11968	0.97519
1954.06277	0.97559
1952.00587	0.97582
1949.94896	0.97630
1947.89205	0.97662
1945.83514	0.97552
1943.77823	0.97361
1941.72132	0.97326
1939.66442	0.97489
1937.60751	0.97565
1935.55060	0.97451
1933.49369	0.97405
1931.43678	0.97508
1929.37988	0.97585
1927.32297	0.97600
1925.26606	0.97513
1923.20915	0.97323
1921.15224	0.97281
1919.09533	0.97396
1917.03843	0.97403
1914.98152	0.97339
1912.92461	0.97331
1910.86770	0.97353
1908.81079	0.97427
1906.75389	0.97513
1904.69698	0.97513
1902.64007	0.97490
1900.58316	0.97535
1898.52625	0.97573
1896.46934	0.97482
1894.41244	0.97378
1892.35553	0.97417
1890.29862	0.97458
1888.24171	0.97424
1886.18480	0.97410
1884.12790	0.97386
1882.07099	0.97349
1880.01408	0.97350
1877.95717	0.97404
1875.90026	0.97489
1873.84335	0.97512
1871.78645	0.97450
1869.72954	0.97372
1867.67263	0.97396
1865.61572	0.97483
1863.55881	0.97472
1861.50191	0.97387
1859.44500	0.97334
1857.38809	0.97314
1855.33118	0.97338
1853.27427	0.97418
1851.21736	0.97457
1849.16046	0.97430
1847.10355	0.97389
1845.04664	0.97337
1842.98973	0.97308
1840.93282	0.97308
1838.87592	0.97316
1836.81901	0.97345
1834.76210	0.97371
1832.70519	0.97360
1830.64828	0.97294
1828.59137	0.97243
1826.53447	0.97271
1824.47756	0.97282
1822.42065	0.97259
1820.36374	0.97283
1818.30683	0.97324
1816.24993	0.97342
1814.19302	0.97368
1812.13611	0.97351
1810.07920	0.97294
1808.02229	0.97324
1805.96538	0.97395
1803.90848	0.97389
1801.85157	0.97333
1799.79466	0.97285
1797.73775	0.97259
1795.68084	0.97248
1793.62394	0.97194
1791.56703	0.97135
1789.51012	0.97193
1787.45321	0.97279
1785.39630	0.97298
1783.33939	0.97288
1781.28249	0.97271
1779.22558	0.97256
1777.16867	0.97253
1775.11176	0.97229
1773.05485	0.97183
1770.99795	0.97165
1768.94104	0.97193
1766.88413	0.97243
1764.82722	0.97278
1762.77031	0.97265
1760.71340	0.97241
1758.65650	0.97251
1756.59959	0.97262
1754.54268	0.97261
1752.48577	0.97226
1750.42886	0.97147
1748.37196	0.97112
1746.31505	0.97134
1744.25814	0.97147
1742.20123	0.97153
1740.14432	0.97163
1738.08741	0.97158
1736.03051	0.97091
1733.97360	0.96977
1731.91669	0.96997
1729.85978	0.97092
1727.80287	0.97153
1725.74597	0.97178
1723.68906	0.97176
1721.63215	0.97168
1719.57524	0.97117
1717.51833	0.97001
1715.46142	0.96973
1713.40452	0.97063
1711.34761	0.97155
1709.29070	0.97186
1707.23379	0.97129
1705.17688	0.97049
1703.11998	0.97013
1701.06307	0.96956
1699.00616	0.96900
1696.94925	0.96907
1694.89234	0.96957
1692.83543	0.97055
1690.77853	0.97103
1688.72162	0.97059
1686.66471	0.96967
1684.60780	0.96799
1682.55089	0.96704
1680.49399	0.96765
1678.43708	0.96818
1676.38017	0.96814
1674.32326	0.96804
1672.26635	0.96788
1670.20944	0.96707
1668.15254	0.96672
1666.09563	0.96714
1664.03872	0.96707
1661.98181	0.96672
1659.92490	0.96690
1657.86800	0.96701
1655.81109	0.96630
1653.75418	0.96422
1651.69727	0.96308
1649.64036	0.96361
1647.58345	0.96338
1645.52655	0.96337
1643.46964	0.96422
1641.41273	0.96463
1639.35582	0.96441
1637.29891	0.96365
1635.24201	0.96324
1633.18510	0.96417
1631.12819	0.96504
1629.07128	0.96524
1627.01437	0.96508
1624.95746	0.96485
1622.90056	0.96491
1620.84365	0.96569
1618.78674	0.96627
1616.72983	0.96619
1614.67292	0.96665
1612.61602	0.96757
1610.55911	0.96793
1608.50220	0.96782
1606.44529	0.96801
1604.38838	0.96843
1602.33147	0.96878
1600.27457	0.96933
1598.21766	0.96993
1596.16075	0.97017
1594.10384	0.97023
1592.04693	0.97029
1589.99003	0.97041
1587.93312	0.97071
1585.87621	0.97084
1583.81930	0.97080
1581.76239	0.97093
1579.70548	0.97083
1577.64858	0.97030
1575.59167	0.97020
1573.53476	0.97077
1571.47785	0.97083
1569.42094	0.97047
1567.36404	0.97053
1565.30713	0.97077
1563.25022	0.97091
1561.19331	0.97043
1559.13640	0.96888
1557.07949	0.96895
1555.02259	0.97027
1552.96568	0.97109
1550.90877	0.97136
1548.85186	0.97159
1546.79495	0.97189
1544.73805	0.97162
1542.68114	0.97054
1540.62423	0.96931
1538.56732	0.96979
1536.51041	0.97078
1534.45350	0.97093
1532.39660	0.97117
1530.33969	0.97186
1528.28278	0.97196
1526.22587	0.97145
1524.16896	0.97088
1522.11206	0.97029
1520.05515	0.97029
1517.99824	0.97092
1515.94133	0.97176
1513.88442	0.97257
1511.82751	0.97288
1509.77061	0.97223
1507.71370	0.97031
1505.65679	0.97010
1503.59988	0.97197
1501.54297	0.97273
1499.48607	0.97222
1497.42916	0.97149
1495.37225	0.97176
1493.31534	0.97218
1491.25843	0.97133
1489.20152	0.96961
1487.14462	0.96869
1485.08771	0.96825
1483.03080	0.96749
1480.97389	0.96657
1478.91698	0.96563
1476.86008	0.96437
1474.80317	0.96283
1472.74626	0.96128
1470.68935	0.96036
1468.63244	0.95995
1466.57553	0.95889
1464.51863	0.95706
1462.46172	0.95562
1460.40481	0.95423
1458.34790	0.95182
1456.29099	0.94962
1454.23409	0.94933
1452.17718	0.94942
1450.12027	0.94910
1448.06336	0.94856
1446.00645	0.94828
1443.94954	0.94799
1441.89264	0.94744
1439.83573	0.94651
1437.77882	0.94454
1435.72191	0.94198
1433.66500	0.94055
1431.60810	0.93955
1429.55119	0.93876
1427.49428	0.93871
1425.43737	0.93881
1423.38046	0.93898
1421.32355	0.93967
1419.26665	0.94099
1417.20974	0.94317
1415.15283	0.94556
1413.09592	0.94736
1411.03901	0.94840
1408.98211	0.94883
1406.92520	0.94901
1404.86829	0.94936
1402.81138	0.94977
1400.75447	0.94960
1398.69756	0.94904
1396.64066	0.94896
1394.58375	0.94951
1392.52684	0.95006
1390.46993	0.94985
1388.41302	0.94872
1386.35612	0.94709
1384.29921	0.94532
1382.24230	0.94304
1380.18539	0.94006
1378.12848	0.93697
1376.07157	0.93412
1374.01467	0.93121
1371.95776	0.92885
1369.90085	0.92767
1367.84394	0.92733
1365.78703	0.92730
1363.73013	0.92702
1361.67322	0.92698
1359.61631	0.92779
1357.55940	0.92876
1355.50249	0.92945
1353.44558	0.93040
1351.38868	0.93159
1349.33177	0.93213
1347.27486	0.93176
1345.21795	0.93068
1343.16104	0.92902
1341.10414	0.92690
1339.04723	0.92482
1336.99032	0.92330
1334.93341	0.92249
1332.87650	0.92258
1330.81959	0.92327
1328.76269	0.92388
1326.70578	0.92394
1324.64887	0.92298
1322.59196	0.92082
1320.53505	0.91781
1318.47815	0.91482
1316.42124	0.91289
1314.36433	0.91255
1312.30742	0.91367
1310.25051	0.91589
1308.19360	0.91894
1306.13670	0.92243
1304.07979	0.92586
1302.02288	0.92911
1299.96597	0.93211
1297.90906	0.93456
1295.85216	0.93633
1293.79525	0.93770
1291.73834	0.93886
1289.68143	0.93958
1287.62452	0.93974
1285.56761	0.93943
1283.51071	0.93873
1281.45380	0.93809
1279.39689	0.93825
1277.33998	0.93891
1275.28307	0.93922
1273.22617	0.93949
1271.16926	0.94016
1269.11235	0.94097
1267.05544	0.94175
1264.99853	0.94233
1262.94162	0.94267
1260.88472	0.94298
1258.82781	0.94343
1256.77090	0.94388
1254.71399	0.94411
1252.65708	0.94424
1250.60018	0.94410
1248.54327	0.94374
1246.48636	0.94380
1244.42945	0.94440
1242.37254	0.94532
1240.31563	0.94624
1238.25873	0.94672
1236.20182	0.94677
1234.14491	0.94699
1232.08800	0.94780
1230.03109	0.94904
1227.97419	0.95060
1225.91728	0.95264
1223.86037	0.95477
1221.80346	0.95639
1219.74655	0.95755
1217.68964	0.95841
1215.63274	0.95865
1213.57583	0.95804
1211.51892	0.95648
1209.46201	0.95400
1207.40510	0.95127
1205.34820	0.94912
1203.29129	0.94786
1201.23438	0.94749
1199.17747	0.94798
1197.12056	0.94930
1195.06365	0.95119
1193.00675	0.95321
1190.94984	0.95502
1188.89293	0.95651
1186.83602	0.95730
1184.77911	0.95698
1182.72221	0.95555
1180.66530	0.95326
1178.60839	0.94999
1176.55148	0.94524
1174.49457	0.93900
1172.43766	0.93150
1170.38076	0.92266
1168.32385	0.91304
1166.26694	0.90388
1164.21003	0.89633
1162.15312	0.89162
1160.09622	0.89027
1158.03931	0.89137
1155.98240	0.89367
1153.92549	0.89672
1151.86858	0.90056
1149.81167	0.90493
1147.75477	0.90912
1145.69786	0.91292
1143.64095	0.91670
1141.58404	0.92003
1139.52713	0.92196
1137.47023	0.92212
1135.41332	0.92054
1133.35641	0.91733
1131.29950	0.91270
1129.24259	0.90711
1127.18568	0.90097
1125.12878	0.89464
1123.07187	0.88875
1121.01496	0.88333
1118.95805	0.87736
1116.90114	0.86994
1114.84424	0.86138
1112.78733	0.85342
1110.73042	0.84779
1108.67351	0.84447
1106.61660	0.84262
1104.55969	0.84199
1102.50279	0.84251
1100.44588	0.84404
1098.38897	0.84621
1096.33206	0.84864
1094.27515	0.85112
1092.21825	0.85319
1090.16134	0.85453
1088.10443	0.85517
1086.04752	0.85510
1083.99061	0.85412
1081.93370	0.85171
1079.87680	0.84767
1077.81989	0.84260
1075.76298	0.83720
1073.70607	0.83158
1071.64916	0.82550
1069.59226	0.81867
1067.53535	0.81072
1065.47844	0.80144
1063.42153	0.79126
1061.36462	0.78091
1059.30771	0.77166
1057.25081	0.76496
1055.19390	0.76134
1053.13699	0.76055
1051.08008	0.76180
1049.02317	0.76420
1046.96627	0.76707
1044.90936	0.76957
1042.85245	0.77043
1040.79554	0.76877
1038.73863	0.76460
1036.68172	0.75852
1034.62482	0.75208
1032.56791	0.74723
1030.51100	0.74466
1028.45409	0.74390
1026.39718	0.74441
1024.34028	0.74559
1022.28337	0.74674
1020.22646	0.74768
1018.16955	0.74864
1016.11264	0.74959
1014.05573	0.75053
1011.99883	0.75196
1009.94192	0.75394
1007.88501	0.75572
1005.82810	0.75665
1003.77119	0.75688
1001.71429	0.75695
999.65738	0.75722
997.60047	0.75771
995.54356	0.75851
993.48665	0.75980
991.42974	0.76114
989.37284	0.76188
987.31593	0.76217
985.25902	0.76256
983.20211	0.76394
981.14520	0.76777
979.08830	0.77424
977.03139	0.78178
974.97448	0.78927
972.91757	0.79630
970.86066	0.80276
968.80375	0.80867
966.74685	0.81378
964.68994	0.81849
962.63303	0.82322
960.57612	0.82800
958.51921	0.83297
956.46231	0.83783
954.40540	0.84238
952.34849	0.84695
950.29158	0.85167
948.23467	0.85628
946.17776	0.86043
944.12086	0.86393
942.06395	0.86695
940.00704	0.86963
937.95013	0.87210
935.89322	0.87451
933.83632	0.87695
931.77941	0.87929
929.72250	0.88138
927.66559	0.88359
925.60868	0.88581
923.55177	0.88768
921.49487	0.88955
919.43796	0.89115
917.38105	0.89189
915.32414	0.89236
913.26723	0.89284
911.21033	0.89262
909.15342	0.89136
907.09651	0.88980
905.03960	0.88863
902.98269	0.88760
900.92578	0.88668
898.86888	0.88567
896.81197	0.88468
894.75506	0.88466
892.69815	0.88601
890.64124	0.88808
888.58434	0.89022
886.52743	0.89280
884.47052	0.89572
882.41361	0.89829
880.35670	0.90032
878.29979	0.90193
876.24289	0.90370
874.18598	0.90576
872.12907	0.90764
870.07216	0.90905
868.01525	0.91009
865.95835	0.91119
863.90144	0.91242
861.84453	0.91397
859.78762	0.91583
857.73071	0.91736
855.67380	0.91869
853.61690	0.92000
851.55999	0.92086
849.50308	0.92143
847.44617	0.92166
845.38926	0.92155
843.33236	0.92184
841.27545	0.92258
839.21854	0.92298
837.16163	0.92322
835.10472	0.92392
833.04781	0.92471
830.99091	0.92507
828.93400	0.92506
826.87709	0.92472
824.82018	0.92433
822.76327	0.92407
820.70637	0.92350
818.64946	0.92277
816.59255	0.92226
814.53564	0.92188
812.47873	0.92173
810.42182	0.92208
808.36492	0.92286
806.30801	0.92337
804.25110	0.92309
802.19419	0.92302
800.13728	0.92431
798.08038	0.92541
796.02347	0.92492
793.96656	0.92431
791.90965	0.92474
789.85274	0.92549
787.79583	0.92554
785.73893	0.92462
783.68202	0.92376
781.62511	0.92356
779.56820	0.92346
777.51129	0.92378
775.45439	0.92444
773.39748	0.92459
771.34057	0.92435
769.28366	0.92383
767.22675	0.92282
765.16984	0.92162
763.11294	0.92090
761.05603	0.92079
758.99912	0.92093
756.94221	0.92073
754.88530	0.91995
752.82839	0.91899
750.77149	0.91777
748.71458	0.91627
746.65767	0.91506
744.60076	0.91458
742.54385	0.91481
740.48695	0.91482
738.43004	0.91367
736.37313	0.91164
734.31622	0.90938
732.25931	0.90722
730.20240	0.90550
728.14550	0.90413
726.08859	0.90224
724.03168	0.89990
721.97477	0.89784
719.91786	0.89540
717.86096	0.89281
715.80405	0.89090
713.74714	0.88873
711.69023	0.88612
709.63332	0.88438
707.57641	0.88335
705.51951	0.88210
703.46260	0.88106
701.40569	0.88075
699.34878	0.88073
697.29187	0.88022
695.23497	0.87938
693.17806	0.87888
691.12115	0.87817
689.06424	0.87715
687.00733	0.87646
684.95042	0.87576
682.89352	0.87433
680.83661	0.87187
678.77970	0.86804
676.72279	0.86306
674.66588	0.85769
672.60898	0.85265
670.55207	0.84787
668.49516	0.84252
666.43825	0.83968
664.38134	0.83978
662.32443	0.83958
660.26753	0.83928
658.21062	0.84048
656.15371	0.84295
654.09680	0.84518
652.03989	0.84678
649.98299	0.84862
647.92608	0.85015
645.86917	0.85016
643.81226	0.84909
641.75535	0.84714
639.69844	0.84464
637.64154	0.84297
635.58463	0.84202
633.52772	0.84095
631.47081	0.83930
629.41390	0.83658
627.35700	0.83338
625.30009	0.83045
623.24318	0.82752
621.18627	0.82434
619.12936	0.82081
617.07245	0.81749
615.01555	0.81537
612.95864	0.81464
610.90173	0.81472
608.84482	0.81463
606.78791	0.81424
604.73101	0.81413
602.67410	0.81386
600.61719	0.81279
598.56028	0.81186
596.50337	0.81168
594.44646	0.81065
592.38956	0.80820
590.33265	0.80615
588.27574	0.80557
586.21883	0.80572
584.16192	0.80576
582.10502	0.80596
580.04811	0.80700
577.99120	0.80805
575.93429	0.80813
573.87738	0.80765
571.82047	0.80685
569.76357	0.80494
567.70666	0.80184
565.64975	0.79870
563.59284	0.79520
561.53593	0.79041
559.47903	0.78548
557.42212	0.78240
555.36521	0.78246
553.30830	0.78480
551.25139	0.78686
549.19448	0.78825
547.13758	0.79020
545.08067	0.79300
543.02376	0.79573
540.96685	0.79748
538.90994	0.79871
536.85304	0.79917
534.79613	0.79872
532.73922	0.79862
530.68231	0.79911
528.62540	0.79935
526.56849	0.79914
524.51159	0.79856
522.45468	0.79589
520.39777	0.79190
518.34086	0.79059
516.28395	0.79192
514.22705	0.79356
512.17014	0.79478
510.11323	0.79584
508.05632	0.79778
505.99941	0.79988
503.94250	0.80056
501.88560	0.80082
499.82869	0.80250
497.77178	0.80373
495.71487	0.80265
493.65796	0.80170
491.60106	0.80251
489.54415	0.80378
487.48724	0.80466
485.43033	0.80613
483.37342	0.80861
481.31651	0.81062
479.25961	0.81225
477.20270	0.81411
475.14579	0.81487
473.08888	0.81477
471.03197	0.81499
468.97507	0.81488
466.91816	0.81525
464.86125	0.81629
462.80434	0.81612
460.74743	0.81351
458.69052	0.80999
456.63362	0.81112
454.57671	0.81569
452.51980	0.81692
450.46289	0.81395
448.40598	0.81068
446.34908	0.80905
444.29217	0.80678
442.23526	0.80390
440.17835	0.80255
438.12144	0.80248
436.06453	0.80334
434.00763	0.80300
431.95072	0.80223
429.89381	0.80380
427.83690	0.80501
425.77999	0.80488
423.72309	0.80609
421.66618	0.80985
419.60927	0.81446
417.55236	0.81813
415.49545	0.82137
413.43854	0.82156
411.38164	0.81906
409.32473	0.81923
407.26782	0.82358
405.21091	0.82691
403.15400	0.82508
401.09710	0.82182
399.04019	0.81993
