3996.57260	0.99135
3994.51569	0.99137
3992.45878	0.99105
3990.40188	0.99076
3988.34497	0.99069
3986.28806	0.99075
3984.23115	0.99083
3982.17424	0.99101
3980.11733	0.99103
3978.06043	0.99070
3976.00352	0.99020
3973.94661	0.98972
3971.88970	0.98998
3969.83279	0.99084
3967.77589	0.99132
3965.71898	0.99122
3963.66207	0.99066
3961.60516	0.99045
3959.54825	0.99093
3957.49134	0.99128
3955.43444	0.99130
3953.37753	0.99099
3951.32062	0.99032
3949.26371	0.98996
3947.20680	0.99034
3945.14990	0.99078
3943.09299	0.99060
3941.03608	0.99011
3938.97917	0.99016
3936.92226	0.99065
3934.86535	0.99075
3932.80845	0.99068
3930.75154	0.99106
3928.69463	0.99147
3926.63772	0.99171
3924.58081	0.99176
3922.52391	0.99122
3920.46700	0.99069
3918.41009	0.99087
3916.35318	0.99078
3914.29627	0.99007
3912.23936	0.98990
3910.18246	0.99026
3908.12555	0.99073
3906.06864	0.99091
3904.01173	0.99035
3901.95482	0.99006
3899.89792	0.99029
3897.84101	0.99047
3895.78410	0.99051
3893.72719	0.99045
3891.67028	0.99074
3889.61337	0.99088
3887.55647	0.99047
3885.49956	0.99075
3883.44265	0.99151
3881.38574	0.99143
3879.32883	0.99115
3877.27193	0.99127
3875.21502	0.99099
3873.15811	0.99037
3871.10120	0.99024
3869.04429	0.99040
3866.98738	0.99050
3864.93048	0.99074
3862.87357	0.99091
3860.81666	0.99079
3858.75975	0.99062
3856.70284	0.99092
3854.64594	0.99197
3852.58903	0.99195
3850.53212	0.99038
3848.47521	0.98991
3846.41830	0.99026
3844.36139	0.99049
3842.30449	0.99061
3840.24758	0.99031
3838.19067	0.98984
3836.13376	0.98999
3834.07685	0.99042
3832.01995	0.99064
3829.96304	0.99034
3827.90613	0.99001
3825.84922	0.99022
3823.79231	0.99029
3821.73540	0.99009
3819.67850	0.99063
3817.62159	0.99141
3815.56468	0.99138
3813.50777	0.99092
3811.45086	0.99105
3809.39396	0.99136
3807.33705	0.99115
3805.28014	0.99089
3803.22323	0.99070
3801.16632	0.99007
3799.10941	0.98957
3797.05251	0.98960
3794.99560	0.98983
3792.93869	0.99048
3790.88178	0.99118
3788.82487	0.99116
3786.76796	0.99054
3784.71106	0.98981
3782.65415	0.98955
3780.59724	0.98990
3778.54033	0.99053
3776.48342	0.99142
3774.42652	0.99209
3772.36961	0.99198
3770.31270	0.99211
3768.25579	0.99270
3766.19888	0.99261
3764.14197	0.99227
3762.08507	0.99181
3760.02816	0.99095
3757.97125	0.99066
3755.91434	0.99092
3753.85743	0.99057
3751.80053	0.99017
3749.74362	0.99059
3747.68671	0.99096
3745.62980	0.99125
3743.57289	0.99141
3741.51598	0.99095
3739.45908	0.99037
3737.40217	0.99004
3735.34526	0.99015
3733.28835	0.99053
3731.23144	0.99054
3729.17454	0.99037
3727.11763	0.99063
3725.06072	0.99139
3723.00381	0.99213
3720.94690	0.99216
3718.88999	0.99176
3716.83309	0.99184
3714.77618	0.99219
3712.71927	0.99184
3710.66236	0.99139
3708.60545	0.99158
3706.54855	0.99152
3704.49164	0.99149
3702.43473	0.99170
3700.37782	0.99133
3698.32091	0.99083
3696.26400	0.99093
3694.20710	0.99131
3692.15019	0.99145
3690.09328	0.99152
3688.03637	0.99182
3685.97946	0.99167
3683.92256	0.99142
3681.86565	0.99141
3679.80874	0.99106
3677.75183	0.99016
3675.69492	0.98906
3673.63801	0.98905
3671.58111	0.99020
3669.52420	0.99124
3667.46729	0.99206
3665.41038	0.99228
3663.35347	0.99115
3661.29657	0.98969
3659.23966	0.98876
3657.18275	0.98844
3655.12584	0.98905
3653.06893	0.98983
3651.01202	0.99043
3648.95512	0.99043
3646.89821	0.98985
3644.84130	0.99016
3642.78439	0.99055
3640.72748	0.99004
3638.67058	0.98923
3636.61367	0.98839
3634.55676	0.98758
3632.49985	0.98715
3630.44294	0.98683
3628.38603	0.98728
3626.32913	0.98807
3624.27222	0.98781
3622.21531	0.98697
3620.15840	0.98630
3618.10149	0.98619
3616.04459	0.98646
3613.98768	0.98680
3611.93077	0.98671
3609.87386	0.98606
3607.81695	0.98560
3605.76004	0.98566
3603.70314	0.98560
3601.64623	0.98509
3599.58932	0.98436
3597.53241	0.98379
3595.47550	0.98385
3593.41860	0.98410
3591.36169	0.98368
3589.30478	0.98309
3587.24787	0.98311
3585.19096	0.98302
3583.13405	0.98233
3581.07715	0.98157
3579.02024	0.98122
3576.96333	0.98134
3574.90642	0.98102
3572.84951	0.98002
3570.79261	0.97935
3568.73570	0.97956
3566.67879	0.98035
3564.62188	0.98065
3562.56497	0.97998
3560.50806	0.97895
3558.45116	0.97802
3556.39425	0.97719
3554.33734	0.97663
3552.28043	0.97656
3550.22352	0.97640
3548.16662	0.97611
3546.10971	0.97596
3544.05280	0.97544
3541.99589	0.97465
3539.93898	0.97416
3537.88207	0.97406
3535.82517	0.97401
3533.76826	0.97336
3531.71135	0.97237
3529.65444	0.97161
3527.59753	0.97097
3525.54063	0.97027
3523.48372	0.96937
3521.42681	0.96857
3519.36990	0.96832
3517.31299	0.96854
3515.25608	0.96853
3513.19918	0.96770
3511.14227	0.96692
3509.08536	0.96702
3507.02845	0.96721
3504.97154	0.96676
3502.91464	0.96582
3500.85773	0.96524
3498.80082	0.96567
3496.74391	0.96624
3494.68700	0.96589
3492.63009	0.96495
3490.57319	0.96418
3488.51628	0.96387
3486.45937	0.96389
3484.40246	0.96379
3482.34555	0.96332
3480.28865	0.96278
3478.23174	0.96246
3476.17483	0.96242
3474.11792	0.96255
3472.06101	0.96254
3470.00410	0.96250
3467.94720	0.96254
3465.89029	0.96225
3463.83338	0.96182
3461.77647	0.96210
3459.71956	0.96260
3457.66266	0.96211
3455.60575	0.96131
3453.54884	0.96131
3451.49193	0.96184
3449.43502	0.96232
3447.37811	0.96210
3445.32121	0.96135
3443.26430	0.96133
3441.20739	0.96203
3439.15048	0.96214
3437.09357	0.96170
3435.03667	0.96184
3432.97976	0.96262
3430.92285	0.96352
3428.86594	0.96405
3426.80903	0.96380
3424.75212	0.96283
3422.69522	0.96185
3420.63831	0.96159
3418.58140	0.96215
3416.52449	0.96316
3414.46758	0.96401
3412.41068	0.96436
3410.35377	0.96441
3408.29686	0.96448
3406.23995	0.96463
3404.18304	0.96501
3402.12613	0.96538
3400.06923	0.96520
3398.01232	0.96492
3395.95541	0.96516
3393.89850	0.96544
3391.84159	0.96524
3389.78469	0.96510
3387.72778	0.96575
3385.67087	0.96655
3383.61396	0.96653
3381.55705	0.96619
3379.50014	0.96617
3377.44324	0.96660
3375.38633	0.96727
3373.32942	0.96729
3371.27251	0.96673
3369.21560	0.96667
3367.15870	0.96720
3365.10179	0.96754
3363.04488	0.96769
3360.98797	0.96802
3358.93106	0.96839
3356.87415	0.96860
3354.81725	0.96902
3352.76034	0.96939
3350.70343	0.96927
3348.64652	0.96917
3346.58961	0.96928
3344.53271	0.96941
3342.47580	0.96943
3340.41889	0.96951
3338.36198	0.97003
3336.30507	0.97076
3334.24816	0.97132
3332.19126	0.97190
3330.13435	0.97207
3328.07744	0.97160
3326.02053	0.97136
3323.96362	0.97152
3321.90672	0.97174
3319.84981	0.97219
3317.79290	0.97258
3315.73599	0.97248
3313.67908	0.97239
3311.62217	0.97266
3309.56527	0.97292
3307.50836	0.97326
3305.45145	0.97402
3303.39454	0.97468
3301.33763	0.97464
3299.28073	0.97426
3297.22382	0.97417
3295.16691	0.97467
3293.11000	0.97538
3291.05309	0.97588
3288.99618	0.97619
3286.93928	0.97633
3284.88237	0.97613
3282.82546	0.97584
3280.76855	0.97607
3278.71164	0.97651
3276.65474	0.97652
3274.59783	0.97626
3272.54092	0.97636
3270.48401	0.97697
3268.42710	0.97764
3266.37019	0.97790
3264.31329	0.97796
3262.25638	0.97791
3260.19947	0.97739
3258.14256	0.97706
3256.08565	0.97754
3254.02875	0.97814
3251.97184	0.97834
3249.91493	0.97818
3247.85802	0.97803
3245.80111	0.97825
3243.74420	0.97884
3241.68730	0.97918
3239.63039	0.97879
3237.57348	0.97843
3235.51657	0.97895
3233.45966	0.97976
3231.40276	0.97998
3229.34585	0.97976
3227.28894	0.97989
3225.23203	0.98046
3223.17512	0.98093
3221.11821	0.98107
3219.06131	0.98113
3217.00440	0.98137
3214.94749	0.98130
3212.89058	0.98073
3210.83367	0.98075
3208.77677	0.98146
3206.71986	0.98183
3204.66295	0.98190
3202.60604	0.98197
3200.54913	0.98204
3198.49222	0.98212
3196.43532	0.98206
3194.37841	0.98198
3192.32150	0.98218
3190.26459	0.98256
3188.20768	0.98285
3186.15078	0.98290
3184.09387	0.98263
3182.03696	0.98237
3179.98005	0.98259
3177.92314	0.98308
3175.86623	0.98349
3173.80933	0.98408
3171.75242	0.98441
3169.69551	0.98395
3167.63860	0.98342
3165.58169	0.98332
3163.52479	0.98362
3161.46788	0.98391
3159.41097	0.98395
3157.35406	0.98398
3155.29715	0.98416
3153.24024	0.98480
3151.18334	0.98533
3149.12643	0.98503
3147.06952	0.98472
3145.01261	0.98508
3142.95570	0.98554
3140.89880	0.98544
3138.84189	0.98520
3136.78498	0.98539
3134.72807	0.98554
3132.67116	0.98543
3130.61425	0.98551
3128.55735	0.98555
3126.50044	0.98538
3124.44353	0.98534
3122.38662	0.98517
3120.32971	0.98507
3118.27281	0.98539
3116.21590	0.98537
3114.15899	0.98509
3112.10208	0.98537
3110.04517	0.98606
3107.98826	0.98651
3105.93136	0.98637
3103.87445	0.98580
3101.81754	0.98540
3099.76063	0.98545
3097.70372	0.98579
3095.64682	0.98640
3093.58991	0.98674
3091.53300	0.98628
3089.47609	0.98601
3087.41918	0.98672
3085.36227	0.98729
3083.30537	0.98717
3081.24846	0.98711
3079.19155	0.98716
3077.13464	0.98722
3075.07773	0.98746
3073.02083	0.98740
3070.96392	0.98698
3068.90701	0.98662
3066.85010	0.98667
3064.79319	0.98712
3062.73628	0.98730
3060.67938	0.98698
3058.62247	0.98651
3056.56556	0.98605
3054.50865	0.98594
3052.45174	0.98607
3050.39484	0.98611
3048.33793	0.98672
3046.28102	0.98768
3044.22411	0.98791
3042.16720	0.98798
3040.11029	0.98820
3038.05339	0.98791
3035.99648	0.98751
3033.93957	0.98746
3031.88266	0.98715
3029.82575	0.98654
3027.76885	0.98638
3025.71194	0.98671
3023.65503	0.98718
3021.59812	0.98740
3019.54121	0.98729
3017.48430	0.98711
3015.42740	0.98689
3013.37049	0.98673
3011.31358	0.98660
3009.25667	0.98632
3007.19976	0.98629
3005.14286	0.98678
3003.08595	0.98709
3001.02904	0.98691
2998.97213	0.98677
2996.91522	0.98679
2994.85831	0.98636
2992.80141	0.98564
2990.74450	0.98537
2988.68759	0.98547
2986.63068	0.98543
2984.57377	0.98540
2982.51687	0.98545
2980.45996	0.98509
2978.40305	0.98462
2976.34614	0.98472
2974.28923	0.98468
2972.23232	0.98400
2970.17542	0.98316
2968.11851	0.98256
2966.06160	0.98238
2964.00469	0.98238
2961.94778	0.98212
2959.89088	0.98175
2957.83397	0.98149
2955.77706	0.98117
2953.72015	0.98084
2951.66324	0.98045
2949.60633	0.97992
2947.54943	0.97943
2945.49252	0.97921
2943.43561	0.97917
2941.37870	0.97919
2939.32179	0.97904
2937.26489	0.97885
2935.20798	0.97877
2933.15107	0.97860
2931.09416	0.97840
2929.03725	0.97849
2926.98034	0.97886
2924.92344	0.97912
2922.86653	0.97905
2920.80962	0.97873
2918.75271	0.97829
2916.69580	0.97833
2914.63890	0.97889
2912.58199	0.97899
2910.52508	0.97857
2908.46817	0.97836
2906.41126	0.97833
2904.35435	0.97810
2902.29745	0.97786
2900.24054	0.97771
2898.18363	0.97757
2896.12672	0.97761
2894.06981	0.97788
2892.01291	0.97801
2889.95600	0.97791
2887.89909	0.97787
2885.84218	0.97785
2883.78527	0.97756
2881.72836	0.97728
2879.67146	0.97746
2877.61455	0.97784
2875.55764	0.97814
2873.50073	0.97832
2871.44382	0.97853
2869.38692	0.97902
2867.33001	0.97954
2865.27310	0.97993
2863.21619	0.98050
2861.15928	0.98132
2859.10237	0.98205
2857.04547	0.98218
2854.98856	0.98189
2852.93165	0.98201
2850.87474	0.98275
2848.81783	0.98351
2846.76093	0.98397
2844.70402	0.98418
2842.64711	0.98434
2840.59020	0.98464
2838.53329	0.98501
2836.47638	0.98531
2834.41948	0.98552
2832.36257	0.98569
2830.30566	0.98566
2828.24875	0.98579
2826.19184	0.98618
2824.13494	0.98619
2822.07803	0.98604
2820.02112	0.98609
2817.96421	0.98614
2815.90730	0.98632
2813.85039	0.98656
2811.79349	0.98664
2809.73658	0.98653
2807.67967	0.98646
2805.62276	0.98658
2803.56585	0.98659
2801.50895	0.98653
2799.45204	0.98664
2797.39513	0.98700
2795.33822	0.98740
2793.28131	0.98756
2791.22440	0.98762
2789.16750	0.98771
2787.11059	0.98779
2785.05368	0.98787
2782.99677	0.98790
2780.93986	0.98783
2778.88296	0.98763
2776.82605	0.98747
2774.76914	0.98737
2772.71223	0.98738
2770.65532	0.98764
2768.59841	0.98801
2766.54151	0.98816
2764.48460	0.98793
2762.42769	0.98773
2760.37078	0.98769
2758.31387	0.98753
2756.25697	0.98751
2754.20006	0.98772
2752.14315	0.98779
2750.08624	0.98780
2748.02933	0.98798
2745.97242	0.98817
2743.91552	0.98833
2741.85861	0.98833
2739.80170	0.98797
2737.74479	0.98761
2735.68788	0.98757
2733.63098	0.98779
2731.57407	0.98814
2729.51716	0.98832
2727.46025	0.98819
2725.40334	0.98789
2723.34643	0.98759
2721.28953	0.98773
2719.23262	0.98810
2717.17571	0.98808
2715.11880	0.98799
2713.06189	0.98820
2711.00499	0.98849
2708.94808	0.98844
2706.89117	0.98816
2704.83426	0.98839
2702.77735	0.98885
2700.72044	0.98907
2698.66354	0.98913
2696.60663	0.98885
2694.54972	0.98839
2692.49281	0.98829
2690.43590	0.98820
2688.37900	0.98766
2686.32209	0.98734
2684.26518	0.98772
2682.20827	0.98829
2680.15136	0.98845
2678.09445	0.98832
2676.03755	0.98821
2673.98064	0.98813
2671.92373	0.98821
2669.86682	0.98862
2667.80991	0.98912
2665.75301	0.98926
2663.69610	0.98905
2661.63919	0.98893
2659.58228	0.98883
2657.52537	0.98838
2655.46846	0.98814
2653.41156	0.98860
2651.35465	0.98903
2649.29774	0.98875
2647.24083	0.98838
2645.18392	0.98837
2643.12702	0.98838
2641.07011	0.98840
2639.01320	0.98857
2636.95629	0.98887
2634.89938	0.98920
2632.84247	0.98937
2630.78557	0.98949
2628.72866	0.98951
2626.67175	0.98933
2624.61484	0.98932
2622.55793	0.98935
2620.50103	0.98911
2618.44412	0.98903
2616.38721	0.98905
2614.33030	0.98901
2612.27339	0.98901
2610.21648	0.98888
2608.15958	0.98865
2606.10267	0.98876
2604.04576	0.98933
2601.98885	0.98968
2599.93194	0.98963
2597.87504	0.98979
2595.81813	0.99010
2593.76122	0.99025
2591.70431	0.99061
2589.64740	0.99091
2587.59049	0.99057
2585.53359	0.99016
2583.47668	0.99008
2581.41977	0.99007
2579.36286	0.99012
2577.30595	0.99012
2575.24905	0.99019
2573.19214	0.99062
2571.13523	0.99094
2569.07832	0.99069
2567.02141	0.99026
2564.96450	0.98998
2562.90760	0.98982
2560.85069	0.99011
2558.79378	0.99085
2556.73687	0.99121
2554.67996	0.99126
2552.62306	0.99145
2550.56615	0.99133
2548.50924	0.99096
2546.45233	0.99114
2544.39542	0.99164
2542.33851	0.99157
2540.28161	0.99111
2538.22470	0.99068
2536.16779	0.99049
2534.11088	0.99069
2532.05397	0.99056
2529.99707	0.98991
2527.94016	0.98984
2525.88325	0.99046
2523.82634	0.99079
2521.76943	0.99086
2519.71252	0.99125
2517.65562	0.99165
2515.59871	0.99139
2513.54180	0.99092
2511.48489	0.99073
2509.42798	0.99074
2507.37108	0.99108
2505.31417	0.99140
2503.25726	0.99148
2501.20035	0.99120
2499.14344	0.99050
2497.08653	0.98987
2495.02963	0.98933
2492.97272	0.98918
2490.91581	0.99006
2488.85890	0.99092
2486.80199	0.99094
2484.74509	0.99076
2482.68818	0.99044
2480.63127	0.99026
2478.57436	0.99075
2476.51745	0.99103
2474.46054	0.99066
2472.40364	0.99064
2470.34673	0.99040
2468.28982	0.98959
2466.23291	0.98970
2464.17600	0.99056
2462.11910	0.99110
2460.06219	0.99151
2458.00528	0.99182
2455.94837	0.99140
2453.89146	0.99095
2451.83455	0.99123
2449.77765	0.99138
2447.72074	0.99130
2445.66383	0.99175
2443.60692	0.99238
2441.55001	0.99253
2439.49311	0.99217
2437.43620	0.99176
2435.37929	0.99171
2433.32238	0.99175
2431.26547	0.99189
2429.20856	0.99191
2427.15166	0.99128
2425.09475	0.99040
2423.03784	0.98987
2420.98093	0.98972
2418.92402	0.98988
2416.86712	0.99038
2414.81021	0.99073
2412.75330	0.99046
2410.69639	0.99033
2408.63948	0.99098
2406.58257	0.99163
2404.52567	0.99175
2402.46876	0.99158
2400.41185	0.99132
2398.35494	0.99129
2396.29803	0.99149
2394.24113	0.99195
2392.18422	0.99218
2390.12731	0.99163
2388.07040	0.99102
2386.01349	0.99102
2383.95658	0.99139
2381.89968	0.99172
2379.84277	0.99173
2377.78586	0.99139
2375.72895	0.99137
2373.67204	0.99194
2371.61514	0.99220
2369.55823	0.99198
2367.50132	0.99177
2365.44441	0.99192
2363.38750	0.99280
2361.33059	0.99380
2359.27369	0.99394
2357.21678	0.99310
2355.15987	0.99184
2353.10296	0.99062
2351.04605	0.98997
2348.98915	0.98995
2346.93224	0.99006
2344.87533	0.99048
2342.81842	0.99180
2340.76151	0.99310
2338.70460	0.99260
2336.64770	0.99080
2334.59079	0.98999
2332.53388	0.99079
2330.47697	0.99171
2328.42006	0.99110
2326.36316	0.98937
2324.30625	0.98813
2322.24934	0.98830
2320.19243	0.98966
2318.13552	0.99114
2316.07861	0.99155
2314.02171	0.99123
2311.96480	0.99117
2309.90789	0.99083
2307.85098	0.99010
2305.79407	0.98969
2303.73717	0.98977
2301.68026	0.99017
2299.62335	0.99035
2297.56644	0.98998
2295.50953	0.99012
2293.45262	0.99090
2291.39572	0.99100
2289.33881	0.99052
2287.28190	0.99036
2285.22499	0.99038
2283.16808	0.98988
2281.11117	0.98956
2279.05427	0.99011
2276.99736	0.99045
2274.94045	0.99051
2272.88354	0.99117
2270.82663	0.99185
2268.76973	0.99187
2266.71282	0.99170
2264.65591	0.99156
2262.59900	0.99131
2260.54209	0.99148
2258.48518	0.99243
2256.42828	0.99280
2254.37137	0.99191
2252.31446	0.99105
2250.25755	0.99103
2248.20064	0.99195
2246.14374	0.99232
2244.08683	0.99104
2242.02992	0.99015
2239.97301	0.99125
2237.91610	0.99290
2235.85919	0.99341
2233.80229	0.99294
2231.74538	0.99249
2229.68847	0.99255
2227.63156	0.99232
2225.57465	0.99127
2223.51775	0.99121
2221.46084	0.99295
2219.40393	0.99410
2217.34702	0.99395
2215.29011	0.99290
2213.23320	0.99149
2211.17630	0.99155
2209.11939	0.99202
2207.06248	0.99166
2205.00557	0.99205
2202.94866	0.99285
2200.89176	0.99224
2198.83485	0.99099
2196.77794	0.99166
2194.72103	0.99418
2192.66412	0.99501
2190.60721	0.99354
2188.55031	0.99206
2186.49340	0.99092
2184.43649	0.99060
2182.37958	0.99105
2180.32267	0.99088
2178.26577	0.99141
2176.20886	0.99370
2174.15195	0.99481
2172.09504	0.99398
2170.03813	0.99359
2167.98122	0.99277
2165.92432	0.99082
2163.86741	0.99060
2161.81050	0.99309
2159.75359	0.99601
2157.69668	0.99700
2155.63978	0.99550
2153.58287	0.99287
2151.52596	0.99122
2149.46905	0.99170
2147.41214	0.99247
2145.35523	0.99226
2143.29833	0.99329
2141.24142	0.99514
2139.18451	0.99518
2137.12760	0.99464
2135.07069	0.99471
2133.01379	0.99427
2130.95688	0.99342
2128.89997	0.99276
2126.84306	0.99221
2124.78615	0.99191
2122.72924	0.99251
2120.67234	0.99288
2118.61543	0.99193
2116.55852	0.99156
2114.50161	0.99221
2112.44470	0.99196
2110.38780	0.99075
2108.33089	0.99032
2106.27398	0.99119
2104.21707	0.99180
2102.16016	0.99147
2100.10325	0.99088
2098.04635	0.99072
2095.98944	0.99144
2093.93253	0.99224
2091.87562	0.99239
2089.81871	0.99292
2087.76181	0.99381
2085.70490	0.99371
2083.64799	0.99319
2081.59108	0.99261
2079.53417	0.99197
2077.47726	0.99203
2075.42036	0.99221
2073.36345	0.99198
2071.30654	0.99149
2069.24963	0.99086
2067.19272	0.99049
2065.13582	0.99067
2063.07891	0.99143
2061.02200	0.99216
2058.96509	0.99220
2056.90818	0.99200
2054.85127	0.99196
2052.79437	0.99183
2050.73746	0.99226
2048.68055	0.99304
2046.62364	0.99250
2044.56673	0.99134
2042.50983	0.99084
2040.45292	0.99045
2038.39601	0.99112
2036.33910	0.99235
2034.28219	0.99177
2032.22528	0.99130
2030.16838	0.99211
2028.11147	0.99261
2026.05456	0.99327
2023.99765	0.99267
2021.94074	0.99087
2019.88384	0.99161
2017.82693	0.99355
2015.77002	0.99361
2013.71311	0.99334
2011.65620	0.99412
2009.59929	0.99487
2007.54239	0.99513
2005.48548	0.99553
2003.42857	0.99621
2001.37166	0.99650
1999.31475	0.99564
1997.25785	0.99362
1995.20094	0.99190
1993.14403	0.99308
1991.08712	0.99565
1989.03021	0.99557
1986.97330	0.99320
1984.91640	0.99119
1982.85949	0.99095
1980.80258	0.99140
1978.74567	0.99222
1976.68876	0.99422
1974.63186	0.99565
1972.57495	0.99583
1970.51804	0.99633
1968.46113	0.99646
1966.40422	0.99569
1964.34731	0.99554
1962.29041	0.99583
1960.23350	0.99577
1958.17659	0.99422
1956.11968	0.99234
1954.06277	0.99257
1952.00587	0.99419
1949.94896	0.99525
1947.89205	0.99439
1945.83514	0.99274
1943.77823	0.99307
1941.72132	0.99475
1939.66442	0.99486
1937.60751	0.99398
1935.55060	0.99372
1933.49369	0.99354
1931.43678	0.99326
1929.37988	0.99358
1927.32297	0.99373
1925.26606	0.99316
1923.20915	0.99241
1921.15224	0.99210
1919.09533	0.99291
1917.03843	0.99386
1914.98152	0.99407
1912.92461	0.99427
1910.86770	0.99439
1908.81079	0.99373
1906.75389	0.99233
1904.69698	0.99121
1902.64007	0.99118
1900.58316	0.99197
1898.52625	0.99309
1896.46934	0.99368
1894.41244	0.99336
1892.35553	0.99308
1890.29862	0.99308
1888.24171	0.99295
1886.18480	0.99324
1884.12790	0.99411
1882.07099	0.99453
1880.01408	0.99403
1877.95717	0.99358
1875.90026	0.99390
1873.84335	0.99428
1871.78645	0.99416
1869.72954	0.99370
1867.67263	0.99306
1865.61572	0.99266
1863.55881	0.99279
1861.50191	0.99328
1859.44500	0.99368
1857.38809	0.99396
1855.33118	0.99445
1853.27427	0.99514
1851.21736	0.99521
1849.16046	0.99467
1847.10355	0.99414
1845.04664	0.99359
1842.98973	0.99303
1840.93282	0.99243
1838.87592	0.99227
1836.81901	0.99255
1834.76210	0.99241
1832.70519	0.99205
1830.64828	0.99223
1828.59137	0.99268
1826.53447	0.99268
1824.47756	0.99239
1822.42065	0.99227
1820.36374	0.99233
1818.30683	0.99252
1816.24993	0.99278
1814.19302	0.99275
1812.13611	0.99248
1810.07920	0.99204
1808.02229	0.99154
1805.96538	0.99132
1803.90848	0.99114
1801.85157	0.99060
1799.79466	0.99027
1797.73775	0.99052
1795.68084	0.99067
1793.62394	0.99036
1791.56703	0.98990
1789.51012	0.98950
1787.45321	0.98899
1785.39630	0.98850
1783.33939	0.98780
1781.28249	0.98677
1779.22558	0.98567
1777.16867	0.98456
1775.11176	0.98303
1773.05485	0.98060
1770.99795	0.97722
1768.94104	0.97297
1766.88413	0.96792
1764.82722	0.96245
1762.77031	0.95550
1760.71340	0.94629
1758.65650	0.93679
1756.59959	0.92725
1754.54268	0.91858
1752.48577	0.91101
1750.42886	0.90337
1748.37196	0.89638
1746.31505	0.89060
1744.25814	0.88586
1742.20123	0.88214
1740.14432	0.87925
1738.08741	0.87751
1736.03051	0.87735
1733.97360	0.87879
1731.91669	0.88057
1729.85978	0.88202
1727.80287	0.88423
1725.74597	0.88768
1723.68906	0.89244
1721.63215	0.89748
1719.57524	0.90278
1717.51833	0.91025
1715.46142	0.91915
1713.40452	0.92670
1711.34761	0.93321
1709.29070	0.93927
1707.23379	0.94498
1705.17688	0.95050
1703.11998	0.95520
1701.06307	0.95975
1699.00616	0.96418
1696.94925	0.96693
1694.89234	0.96933
1692.83543	0.97146
1690.77853	0.97312
1688.72162	0.97449
1686.66471	0.97540
1684.60780	0.97602
1682.55089	0.97649
1680.49399	0.97713
1678.43708	0.97806
1676.38017	0.97884
1674.32326	0.97908
1672.26635	0.97910
1670.20944	0.97907
1668.15254	0.97905
1666.09563	0.97922
1664.03872	0.97930
1661.98181	0.97903
1659.92490	0.97873
1657.86800	0.97854
1655.81109	0.97797
1653.75418	0.97653
1651.69727	0.97533
1649.64036	0.97513
1647.58345	0.97480
1645.52655	0.97455
1643.46964	0.97497
1641.41273	0.97569
1639.35582	0.97632
1637.29891	0.97671
1635.24201	0.97726
1633.18510	0.97810
1631.12819	0.97872
1629.07128	0.97921
1627.01437	0.97969
1624.95746	0.98009
1622.90056	0.98050
1620.84365	0.98090
1618.78674	0.98127
1616.72983	0.98174
1614.67292	0.98198
1612.61602	0.98198
1610.55911	0.98209
1608.50220	0.98236
1606.44529	0.98276
1604.38838	0.98307
1602.33147	0.98312
1600.27457	0.98338
1598.21766	0.98390
1596.16075	0.98428
1594.10384	0.98440
1592.04693	0.98449
1589.99003	0.98459
1587.93312	0.98455
1585.87621	0.98451
1583.81930	0.98447
1581.76239	0.98414
1579.70548	0.98379
1577.64858	0.98394
1575.59167	0.98441
1573.53476	0.98469
1571.47785	0.98500
1569.42094	0.98539
1567.36404	0.98538
1565.30713	0.98490
1563.25022	0.98465
1561.19331	0.98483
1559.13640	0.98515
1557.07949	0.98534
1555.02259	0.98543
1552.96568	0.98569
1550.90877	0.98609
1548.85186	0.98628
1546.79495	0.98630
1544.73805	0.98653
1542.68114	0.98678
1540.62423	0.98639
1538.56732	0.98612
1536.51041	0.98634
1534.45350	0.98643
1532.39660	0.98672
1530.33969	0.98694
1528.28278	0.98693
1526.22587	0.98719
1524.16896	0.98753
1522.11206	0.98748
1520.05515	0.98731
1517.99824	0.98734
1515.94133	0.98715
1513.88442	0.98690
1511.82751	0.98702
1509.77061	0.98708
1507.71370	0.98669
1505.65679	0.98657
1503.59988	0.98673
1501.54297	0.98670
1499.48607	0.98667
1497.42916	0.98689
1495.37225	0.98701
1493.31534	0.98665
1491.25843	0.98602
1489.20152	0.98529
1487.14462	0.98490
1485.08771	0.98493
1483.03080	0.98498
1480.97389	0.98467
1478.91698	0.98397
1476.86008	0.98311
1474.80317	0.98223
1472.74626	0.98107
1470.68935	0.97968
1468.63244	0.97857
1466.57553	0.97736
1464.51863	0.97576
1462.46172	0.97441
1460.40481	0.97367
1458.34790	0.97307
1456.29099	0.97169
1454.23409	0.97022
1452.17718	0.96925
1450.12027	0.96825
1448.06336	0.96696
1446.00645	0.96569
1443.94954	0.96459
1441.89264	0.96350
1439.83573	0.96247
1437.77882	0.96142
1435.72191	0.96019
1433.66500	0.95930
1431.60810	0.95895
1429.55119	0.95901
1427.49428	0.95927
1425.43737	0.95962
1423.38046	0.96020
1421.32355	0.96074
1419.26665	0.96106
1417.20974	0.96150
1415.15283	0.96190
1413.09592	0.96203
1411.03901	0.96222
1408.98211	0.96253
1406.92520	0.96259
1404.86829	0.96220
1402.81138	0.96164
1400.75447	0.96127
1398.69756	0.96072
1396.64066	0.95939
1394.58375	0.95724
1392.52684	0.95474
1390.46993	0.95181
1388.41302	0.94785
1386.35612	0.94289
1384.29921	0.93778
1382.24230	0.93263
1380.18539	0.92725
1378.12848	0.92194
1376.07157	0.91714
1374.01467	0.91331
1371.95776	0.91126
1369.90085	0.91141
1367.84394	0.91358
1365.78703	0.91749
1363.73013	0.92325
1361.67322	0.93055
1359.61631	0.93765
1357.55940	0.94375
1355.50249	0.94878
1353.44558	0.95260
1351.38868	0.95551
1349.33177	0.95792
1347.27486	0.95968
1345.21795	0.96060
1343.16104	0.96105
1341.10414	0.96134
1339.04723	0.96156
1336.99032	0.96164
1334.93341	0.96149
1332.87650	0.96121
1330.81959	0.96084
1328.76269	0.96032
1326.70578	0.95973
1324.64887	0.95930
1322.59196	0.95895
1320.53505	0.95853
1318.47815	0.95832
1316.42124	0.95845
1314.36433	0.95863
1312.30742	0.95869
1310.25051	0.95863
1308.19360	0.95857
1306.13670	0.95869
1304.07979	0.95881
1302.02288	0.95864
1299.96597	0.95818
1297.90906	0.95754
1295.85216	0.95676
1293.79525	0.95554
1291.73834	0.95375
1289.68143	0.95176
1287.62452	0.94968
1285.56761	0.94721
1283.51071	0.94422
1281.45380	0.94070
1279.39689	0.93695
1277.33998	0.93330
1275.28307	0.92940
1273.22617	0.92471
1271.16926	0.91933
1269.11235	0.91375
1267.05544	0.90811
1264.99853	0.90224
1262.94162	0.89605
1260.88472	0.88936
1258.82781	0.88235
1256.77090	0.87534
1254.71399	0.86843
1252.65708	0.86161
1250.60018	0.85459
1248.54327	0.84751
1246.48636	0.84092
1244.42945	0.83469
1242.37254	0.82862
1240.31563	0.82306
1238.25873	0.81820
1236.20182	0.81406
1234.14491	0.81067
1232.08800	0.80839
1230.03109	0.80776
1227.97419	0.80895
1225.91728	0.81227
1223.86037	0.81811
1221.80346	0.82627
1219.74655	0.83627
1217.68964	0.84754
1215.63274	0.85935
1213.57583	0.87132
1211.51892	0.88319
1209.46201	0.89424
1207.40510	0.90391
1205.34820	0.91234
1203.29129	0.91985
1201.23438	0.92668
1199.17747	0.93295
1197.12056	0.93847
1195.06365	0.94294
1193.00675	0.94637
1190.94984	0.94875
1188.89293	0.95003
1186.83602	0.95047
1184.77911	0.95007
1182.72221	0.94880
1180.66530	0.94690
1178.60839	0.94436
1176.55148	0.94132
1174.49457	0.93802
1172.43766	0.93436
1170.38076	0.93045
1168.32385	0.92673
1166.26694	0.92356
1164.21003	0.92107
1162.15312	0.91930
1160.09622	0.91823
1158.03931	0.91807
1155.98240	0.91905
1153.92549	0.92104
1151.86858	0.92339
1149.81167	0.92565
1147.75477	0.92745
1145.69786	0.92837
1143.64095	0.92846
1141.58404	0.92793
1139.52713	0.92660
1137.47023	0.92431
1135.41332	0.92158
1133.35641	0.91888
1131.29950	0.91579
1129.24259	0.91222
1127.18568	0.90884
1125.12878	0.90593
1123.07187	0.90341
1121.01496	0.90112
1118.95805	0.89891
1116.90114	0.89705
1114.84424	0.89569
1112.78733	0.89434
1110.73042	0.89259
1108.67351	0.89047
1106.61660	0.88820
1104.55969	0.88593
1102.50279	0.88361
1100.44588	0.88103
1098.38897	0.87776
1096.33206	0.87387
1094.27515	0.86996
1092.21825	0.86589
1090.16134	0.86119
1088.10443	0.85582
1086.04752	0.84993
1083.99061	0.84376
1081.93370	0.83746
1079.87680	0.83113
1077.81989	0.82518
1075.76298	0.81957
1073.70607	0.81422
1071.64916	0.80942
1069.59226	0.80514
1067.53535	0.80115
1065.47844	0.79737
1063.42153	0.79375
1061.36462	0.79039
1059.30771	0.78713
1057.25081	0.78372
1055.19390	0.78043
1053.13699	0.77740
1051.08008	0.77436
1049.02317	0.77110
1046.96627	0.76788
1044.90936	0.76504
1042.85245	0.76269
1040.79554	0.76047
1038.73863	0.75806
1036.68172	0.75585
1034.62482	0.75454
1032.56791	0.75483
1030.51100	0.75710
1028.45409	0.76127
1026.39718	0.76699
1024.34028	0.77397
1022.28337	0.78205
1020.22646	0.79084
1018.16955	0.80032
1016.11264	0.81026
1014.05573	0.81985
1011.99883	0.82850
1009.94192	0.83619
1007.88501	0.84317
1005.82810	0.84944
1003.77119	0.85522
1001.71429	0.86079
999.65738	0.86592
997.60047	0.87066
995.54356	0.87525
993.48665	0.87977
991.42974	0.88445
989.37284	0.88927
987.31593	0.89368
985.25902	0.89748
983.20211	0.90131
981.14520	0.90539
979.08830	0.90917
977.03139	0.91279
974.97448	0.91671
972.91757	0.92045
970.86066	0.92402
968.80375	0.92770
966.74685	0.93088
964.68994	0.93354
962.63303	0.93629
960.57612	0.93883
958.51921	0.94069
956.46231	0.94207
954.40540	0.94319
952.34849	0.94404
950.29158	0.94486
948.23467	0.94596
946.17776	0.94714
944.12086	0.94804
942.06395	0.94866
940.00704	0.94914
937.95013	0.94963
935.89322	0.94986
933.83632	0.94975
931.77941	0.94961
929.72250	0.94937
927.66559	0.94909
925.60868	0.94897
923.55177	0.94890
921.49487	0.94832
919.43796	0.94700
917.38105	0.94571
915.32414	0.94462
913.26723	0.94330
911.21033	0.94215
909.15342	0.94147
907.09651	0.94095
905.03960	0.94057
902.98269	0.94056
900.92578	0.94099
898.86888	0.94169
896.81197	0.94242
894.75506	0.94317
892.69815	0.94434
890.64124	0.94617
888.58434	0.94801
886.52743	0.94956
884.47052	0.95150
882.41361	0.95404
880.35670	0.95667
878.29979	0.95863
876.24289	0.96020
874.18598	0.96208
872.12907	0.96392
870.07216	0.96538
868.01525	0.96664
865.95835	0.96776
863.90144	0.96876
861.84453	0.96975
859.78762	0.97050
857.73071	0.97094
855.67380	0.97092
853.61690	0.97021
851.55999	0.96962
849.50308	0.96944
847.44617	0.96896
845.38926	0.96896
843.33236	0.96991
841.27545	0.97028
839.21854	0.96979
837.16163	0.96950
835.10472	0.96947
833.04781	0.96952
830.99091	0.96987
828.93400	0.97083
826.87709	0.97216
824.82018	0.97303
822.76327	0.97297
820.70637	0.97234
818.64946	0.97219
816.59255	0.97289
814.53564	0.97318
812.47873	0.97288
810.42182	0.97326
808.36492	0.97383
806.30801	0.97320
804.25110	0.97221
802.19419	0.97257
800.13728	0.97376
798.08038	0.97446
796.02347	0.97412
793.96656	0.97305
791.90965	0.97276
789.85274	0.97337
787.79583	0.97346
785.73893	0.97297
783.68202	0.97285
781.62511	0.97298
779.56820	0.97287
777.51129	0.97280
775.45439	0.97286
773.39748	0.97303
771.34057	0.97347
769.28366	0.97365
767.22675	0.97346
765.16984	0.97317
763.11294	0.97245
761.05603	0.97152
758.99912	0.97129
756.94221	0.97212
754.88530	0.97316
752.82839	0.97304
750.77149	0.97162
748.71458	0.97041
746.65767	0.97037
744.60076	0.97054
742.54385	0.96991
740.48695	0.96913
738.43004	0.96933
736.37313	0.96947
734.31622	0.96839
732.25931	0.96726
730.20240	0.96686
728.14550	0.96690
726.08859	0.96689
724.03168	0.96657
721.97477	0.96624
719.91786	0.96574
717.86096	0.96487
715.80405	0.96381
713.74714	0.96249
711.69023	0.96120
709.63332	0.96046
707.57641	0.96025
705.51951	0.96017
703.46260	0.95983
701.40569	0.95921
699.34878	0.95862
697.29187	0.95769
695.23497	0.95605
693.17806	0.95443
691.12115	0.95318
689.06424	0.95196
687.00733	0.95148
684.95042	0.95167
682.89352	0.95106
680.83661	0.95014
678.77970	0.94960
676.72279	0.94841
674.66588	0.94703
672.60898	0.94647
670.55207	0.94624
668.49516	0.94639
666.43825	0.94699
664.38134	0.94687
662.32443	0.94602
660.26753	0.94467
658.21062	0.94334
656.15371	0.94238
654.09680	0.94167
652.03989	0.94096
649.98299	0.93956
647.92608	0.93790
645.86917	0.93709
643.81226	0.93671
641.75535	0.93537
639.69844	0.93327
637.64154	0.93205
635.58463	0.93123
633.52772	0.92973
631.47081	0.92825
629.41390	0.92736
627.35700	0.92692
625.30009	0.92591
623.24318	0.92373
621.18627	0.92156
619.12936	0.92013
617.07245	0.91913
615.01555	0.91804
612.95864	0.91612
610.90173	0.91373
608.84482	0.91102
606.78791	0.90732
604.73101	0.90467
602.67410	0.90475
600.61719	0.90635
598.56028	0.90875
596.50337	0.91179
594.44646	0.91493
592.38956	0.91745
590.33265	0.91902
588.27574	0.91982
586.21883	0.92048
584.16192	0.92124
582.10502	0.92157
580.04811	0.92096
577.99120	0.91991
575.93429	0.91922
573.87738	0.91842
571.82047	0.91775
569.76357	0.91796
567.70666	0.91790
565.64975	0.91727
563.59284	0.91715
561.53593	0.91694
559.47903	0.91672
557.42212	0.91710
555.36521	0.91658
553.30830	0.91616
551.25139	0.91812
549.19448	0.92084
547.13758	0.92213
545.08067	0.92169
543.02376	0.92068
540.96685	0.92035
538.90994	0.91990
536.85304	0.91855
534.79613	0.91754
532.73922	0.91898
530.68231	0.92176
528.62540	0.92206
526.56849	0.91978
524.51159	0.91787
522.45468	0.91730
520.39777	0.91717
518.34086	0.91651
516.28395	0.91492
514.22705	0.91469
512.17014	0.91600
510.11323	0.91513
508.05632	0.91251
505.99941	0.91124
503.94250	0.91124
501.88560	0.91233
499.82869	0.91416
497.77178	0.91426
495.71487	0.91187
493.65796	0.90937
491.60106	0.90820
489.54415	0.90803
487.48724	0.90883
485.43033	0.90967
483.37342	0.90919
481.31651	0.90733
479.25961	0.90570
477.20270	0.90671
475.14579	0.90883
473.08888	0.90913
471.03197	0.90787
468.97507	0.90624
466.91816	0.90609
464.86125	0.90763
462.80434	0.90766
460.74743	0.90491
458.69052	0.90210
456.63362	0.90191
454.57671	0.90283
452.51980	0.90217
450.46289	0.90139
448.40598	0.90459
446.34908	0.90997
444.29217	0.91170
442.23526	0.91010
440.17835	0.90788
438.12144	0.90624
436.06453	0.90631
434.00763	0.90588
431.95072	0.90685
429.89381	0.91192
427.83690	0.91544
425.77999	0.91718
423.72309	0.91907
421.66618	0.91814
419.60927	0.91606
417.55236	0.91356
415.49545	0.91103
413.43854	0.91175
411.38164	0.91432
409.32473	0.91387
407.26782	0.91243
405.21091	0.91440
403.15400	0.91704
401.09710	0.92009
399.04019	0.92656
