3996.57260	0.98937
3994.51569	0.98893
3992.45878	0.98919
3990.40188	0.98961
3988.34497	0.98989
3986.28806	0.99014
3984.23115	0.99032
3982.17424	0.99044
3980.11733	0.99069
3978.06043	0.99072
3976.00352	0.99028
3973.94661	0.99011
3971.88970	0.99089
3969.83279	0.99202
3967.77589	0.99246
3965.71898	0.99179
3963.66207	0.99035
3961.60516	0.98959
3959.54825	0.99026
3957.49134	0.99097
3955.43444	0.99090
3953.37753	0.99048
3951.32062	0.99023
3949.26371	0.99050
3947.20680	0.99037
3945.14990	0.98954
3943.09299	0.98922
3941.03608	0.98985
3938.97917	0.99052
3936.92226	0.99086
3934.86535	0.99124
3932.80845	0.99140
3930.75154	0.99092
3928.69463	0.99026
3926.63772	0.99017
3924.58081	0.99037
3922.52391	0.99059
3920.46700	0.99101
3918.41009	0.99084
3916.35318	0.99019
3914.29627	0.99030
3912.23936	0.99084
3910.18246	0.99092
3908.12555	0.99064
3906.06864	0.99025
3904.01173	0.98972
3901.95482	0.98941
3899.89792	0.98937
3897.84101	0.98977
3895.78410	0.99036
3893.72719	0.99049
3891.67028	0.99045
3889.61337	0.99061
3887.55647	0.99052
3885.49956	0.99013
3883.44265	0.98976
3881.38574	0.98972
3879.32883	0.99005
3877.27193	0.99016
3875.21502	0.98996
3873.15811	0.98973
3871.10120	0.98971
3869.04429	0.99007
3866.98738	0.99057
3864.93048	0.99083
3862.87357	0.99053
3860.81666	0.99018
3858.75975	0.99064
3856.70284	0.99147
3854.64594	0.99160
3852.58903	0.99081
3850.53212	0.99040
3848.47521	0.99042
3846.41830	0.99044
3844.36139	0.99028
3842.30449	0.98995
3840.24758	0.99001
3838.19067	0.99044
3836.13376	0.99082
3834.07685	0.99097
3832.01995	0.99054
3829.96304	0.98997
3827.90613	0.98989
3825.84922	0.99036
3823.79231	0.99106
3821.73540	0.99118
3819.67850	0.99059
3817.62159	0.98993
3815.56468	0.98935
3813.50777	0.98927
3811.45086	0.98968
3809.39396	0.99027
3807.33705	0.99067
3805.28014	0.99088
3803.22323	0.99161
3801.16632	0.99267
3799.10941	0.99248
3797.05251	0.99115
3794.99560	0.99020
3792.93869	0.99052
3790.88178	0.99142
3788.82487	0.99186
3786.76796	0.99158
3784.71106	0.99092
3782.65415	0.99045
3780.59724	0.99066
3778.54033	0.99099
3776.48342	0.99058
3774.42652	0.99004
3772.36961	0.99038
3770.31270	0.99116
3768.25579	0.99095
3766.19888	0.99025
3764.14197	0.99017
3762.08507	0.99059
3760.02816	0.99132
3757.97125	0.99166
3755.91434	0.99100
3753.85743	0.99014
3751.80053	0.99004
3749.74362	0.99035
3747.68671	0.99025
3745.62980	0.99049
3743.57289	0.99097
3741.51598	0.99082
3739.45908	0.99100
3737.40217	0.99172
3735.34526	0.99196
3733.28835	0.99160
3731.23144	0.99121
3729.17454	0.99133
3727.11763	0.99182
3725.06072	0.99172
3723.00381	0.99152
3720.94690	0.99131
3718.88999	0.99033
3716.83309	0.98965
3714.77618	0.98975
3712.71927	0.99001
3710.66236	0.98972
3708.60545	0.98904
3706.54855	0.98908
3704.49164	0.98954
3702.43473	0.98977
3700.37782	0.98975
3698.32091	0.98951
3696.26400	0.98958
3694.20710	0.99004
3692.15019	0.99035
3690.09328	0.99045
3688.03637	0.99078
3685.97946	0.99112
3683.92256	0.99109
3681.86565	0.99079
3679.80874	0.98983
3677.75183	0.98815
3675.69492	0.98756
3673.63801	0.98909
3671.58111	0.99039
3669.52420	0.99015
3667.46729	0.98961
3665.41038	0.98997
3663.35347	0.99052
3661.29657	0.99069
3659.23966	0.99082
3657.18275	0.99095
3655.12584	0.99054
3653.06893	0.99008
3651.01202	0.98995
3648.95512	0.98968
3646.89821	0.98912
3644.84130	0.98915
3642.78439	0.98952
3640.72748	0.98930
3638.67058	0.98840
3636.61367	0.98762
3634.55676	0.98751
3632.49985	0.98787
3630.44294	0.98821
3628.38603	0.98862
3626.32913	0.98905
3624.27222	0.98905
3622.21531	0.98916
3620.15840	0.98976
3618.10149	0.98970
3616.04459	0.98839
3613.98768	0.98714
3611.93077	0.98701
3609.87386	0.98798
3607.81695	0.98895
3605.76004	0.98889
3603.70314	0.98826
3601.64623	0.98768
3599.58932	0.98727
3597.53241	0.98711
3595.47550	0.98688
3593.41860	0.98640
3591.36169	0.98612
3589.30478	0.98616
3587.24787	0.98625
3585.19096	0.98604
3583.13405	0.98569
3581.07715	0.98571
3579.02024	0.98593
3576.96333	0.98615
3574.90642	0.98627
3572.84951	0.98573
3570.79261	0.98502
3568.73570	0.98497
3566.67879	0.98523
3564.62188	0.98471
3562.56497	0.98372
3560.50806	0.98307
3558.45116	0.98278
3556.39425	0.98261
3554.33734	0.98249
3552.28043	0.98229
3550.22352	0.98248
3548.16662	0.98318
3546.10971	0.98313
3544.05280	0.98202
3541.99589	0.98113
3539.93898	0.98051
3537.88207	0.98015
3535.82517	0.98051
3533.76826	0.98069
3531.71135	0.98040
3529.65444	0.98033
3527.59753	0.98030
3525.54063	0.97988
3523.48372	0.97942
3521.42681	0.97884
3519.36990	0.97833
3517.31299	0.97863
3515.25608	0.97913
3513.19918	0.97914
3511.14227	0.97894
3509.08536	0.97837
3507.02845	0.97741
3504.97154	0.97685
3502.91464	0.97701
3500.85773	0.97696
3498.80082	0.97636
3496.74391	0.97609
3494.68700	0.97642
3492.63009	0.97651
3490.57319	0.97605
3488.51628	0.97569
3486.45937	0.97584
3484.40246	0.97610
3482.34555	0.97606
3480.28865	0.97601
3478.23174	0.97627
3476.17483	0.97640
3474.11792	0.97619
3472.06101	0.97603
3470.00410	0.97599
3467.94720	0.97622
3465.89029	0.97693
3463.83338	0.97742
3461.77647	0.97718
3459.71956	0.97692
3457.66266	0.97701
3455.60575	0.97728
3453.54884	0.97771
3451.49193	0.97790
3449.43502	0.97794
3447.37811	0.97783
3445.32121	0.97720
3443.26430	0.97697
3441.20739	0.97767
3439.15048	0.97829
3437.09357	0.97850
3435.03667	0.97887
3432.97976	0.97915
3430.92285	0.97920
3428.86594	0.97931
3426.80903	0.97956
3424.75212	0.97985
3422.69522	0.97959
3420.63831	0.97908
3418.58140	0.97923
3416.52449	0.97961
3414.46758	0.97970
3412.41068	0.98002
3410.35377	0.98072
3408.29686	0.98109
3406.23995	0.98108
3404.18304	0.98132
3402.12613	0.98144
3400.06923	0.98102
3398.01232	0.98063
3395.95541	0.98043
3393.89850	0.98040
3391.84159	0.98064
3389.78469	0.98098
3387.72778	0.98122
3385.67087	0.98152
3383.61396	0.98227
3381.55705	0.98313
3379.50014	0.98316
3377.44324	0.98255
3375.38633	0.98208
3373.32942	0.98191
3371.27251	0.98215
3369.21560	0.98260
3367.15870	0.98266
3365.10179	0.98262
3363.04488	0.98292
3360.98797	0.98301
3358.93106	0.98289
3356.87415	0.98307
3354.81725	0.98352
3352.76034	0.98382
3350.70343	0.98366
3348.64652	0.98333
3346.58961	0.98294
3344.53271	0.98271
3342.47580	0.98305
3340.41889	0.98355
3338.36198	0.98390
3336.30507	0.98431
3334.24816	0.98442
3332.19126	0.98411
3330.13435	0.98373
3328.07744	0.98347
3326.02053	0.98346
3323.96362	0.98395
3321.90672	0.98469
3319.84981	0.98511
3317.79290	0.98504
3315.73599	0.98463
3313.67908	0.98433
3311.62217	0.98465
3309.56527	0.98538
3307.50836	0.98563
3305.45145	0.98532
3303.39454	0.98525
3301.33763	0.98542
3299.28073	0.98561
3297.22382	0.98593
3295.16691	0.98617
3293.11000	0.98584
3291.05309	0.98549
3288.99618	0.98588
3286.93928	0.98638
3284.88237	0.98654
3282.82546	0.98664
3280.76855	0.98649
3278.71164	0.98614
3276.65474	0.98595
3274.59783	0.98578
3272.54092	0.98575
3270.48401	0.98603
3268.42710	0.98620
3266.37019	0.98628
3264.31329	0.98670
3262.25638	0.98708
3260.19947	0.98716
3258.14256	0.98716
3256.08565	0.98711
3254.02875	0.98713
3251.97184	0.98718
3249.91493	0.98710
3247.85802	0.98707
3245.80111	0.98734
3243.74420	0.98777
3241.68730	0.98797
3239.63039	0.98778
3237.57348	0.98727
3235.51657	0.98686
3233.45966	0.98676
3231.40276	0.98667
3229.34585	0.98649
3227.28894	0.98640
3225.23203	0.98684
3223.17512	0.98741
3221.11821	0.98752
3219.06131	0.98777
3217.00440	0.98824
3214.94749	0.98836
3212.89058	0.98815
3210.83367	0.98773
3208.77677	0.98772
3206.71986	0.98826
3204.66295	0.98843
3202.60604	0.98834
3200.54913	0.98870
3198.49222	0.98887
3196.43532	0.98843
3194.37841	0.98805
3192.32150	0.98785
3190.26459	0.98762
3188.20768	0.98739
3186.15078	0.98735
3184.09387	0.98779
3182.03696	0.98843
3179.98005	0.98867
3177.92314	0.98858
3175.86623	0.98862
3173.80933	0.98880
3171.75242	0.98870
3169.69551	0.98815
3167.63860	0.98772
3165.58169	0.98810
3163.52479	0.98871
3161.46788	0.98879
3159.41097	0.98869
3157.35406	0.98866
3155.29715	0.98842
3153.24024	0.98820
3151.18334	0.98806
3149.12643	0.98775
3147.06952	0.98782
3145.01261	0.98830
3142.95570	0.98850
3140.89880	0.98863
3138.84189	0.98903
3136.78498	0.98906
3134.72807	0.98856
3132.67116	0.98847
3130.61425	0.98915
3128.55735	0.98969
3126.50044	0.98929
3124.44353	0.98847
3122.38662	0.98815
3120.32971	0.98840
3118.27281	0.98871
3116.21590	0.98871
3114.15899	0.98856
3112.10208	0.98862
3110.04517	0.98877
3107.98826	0.98867
3105.93136	0.98858
3103.87445	0.98880
3101.81754	0.98890
3099.76063	0.98867
3097.70372	0.98844
3095.64682	0.98823
3093.58991	0.98798
3091.53300	0.98809
3089.47609	0.98853
3087.41918	0.98862
3085.36227	0.98834
3083.30537	0.98832
3081.24846	0.98848
3079.19155	0.98861
3077.13464	0.98882
3075.07773	0.98888
3073.02083	0.98874
3070.96392	0.98851
3068.90701	0.98818
3066.85010	0.98792
3064.79319	0.98787
3062.73628	0.98820
3060.67938	0.98892
3058.62247	0.98940
3056.56556	0.98939
3054.50865	0.98940
3052.45174	0.98941
3050.39484	0.98899
3048.33793	0.98855
3046.28102	0.98832
3044.22411	0.98781
3042.16720	0.98740
3040.11029	0.98778
3038.05339	0.98859
3035.99648	0.98899
3033.93957	0.98853
3031.88266	0.98773
3029.82575	0.98746
3027.76885	0.98781
3025.71194	0.98788
3023.65503	0.98713
3021.59812	0.98649
3019.54121	0.98652
3017.48430	0.98675
3015.42740	0.98681
3013.37049	0.98661
3011.31358	0.98662
3009.25667	0.98706
3007.19976	0.98739
3005.14286	0.98728
3003.08595	0.98704
3001.02904	0.98711
2998.97213	0.98725
2996.91522	0.98687
2994.85831	0.98641
2992.80141	0.98656
2990.74450	0.98687
2988.68759	0.98681
2986.63068	0.98677
2984.57377	0.98669
2982.51687	0.98633
2980.45996	0.98610
2978.40305	0.98591
2976.34614	0.98555
2974.28923	0.98527
2972.23232	0.98525
2970.17542	0.98509
2968.11851	0.98437
2966.06160	0.98337
2964.00469	0.98280
2961.94778	0.98314
2959.89088	0.98370
2957.83397	0.98338
2955.77706	0.98269
2953.72015	0.98238
2951.66324	0.98224
2949.60633	0.98217
2947.54943	0.98201
2945.49252	0.98186
2943.43561	0.98199
2941.37870	0.98224
2939.32179	0.98230
2937.26489	0.98207
2935.20798	0.98199
2933.15107	0.98242
2931.09416	0.98314
2929.03725	0.98353
2926.98034	0.98318
2924.92344	0.98269
2922.86653	0.98280
2920.80962	0.98321
2918.75271	0.98378
2916.69580	0.98407
2914.63890	0.98352
2912.58199	0.98282
2910.52508	0.98252
2908.46817	0.98243
2906.41126	0.98264
2904.35435	0.98280
2902.29745	0.98241
2900.24054	0.98202
2898.18363	0.98211
2896.12672	0.98211
2894.06981	0.98187
2892.01291	0.98191
2889.95600	0.98227
2887.89909	0.98245
2885.84218	0.98241
2883.78527	0.98251
2881.72836	0.98265
2879.67146	0.98233
2877.61455	0.98190
2875.55764	0.98210
2873.50073	0.98276
2871.44382	0.98326
2869.38692	0.98349
2867.33001	0.98373
2865.27310	0.98403
2863.21619	0.98435
2861.15928	0.98482
2859.10237	0.98519
2857.04547	0.98517
2854.98856	0.98517
2852.93165	0.98541
2850.87474	0.98574
2848.81783	0.98630
2846.76093	0.98678
2844.70402	0.98673
2842.64711	0.98664
2840.59020	0.98680
2838.53329	0.98697
2836.47638	0.98700
2834.41948	0.98716
2832.36257	0.98756
2830.30566	0.98763
2828.24875	0.98734
2826.19184	0.98712
2824.13494	0.98715
2822.07803	0.98741
2820.02112	0.98766
2817.96421	0.98777
2815.90730	0.98781
2813.85039	0.98788
2811.79349	0.98794
2809.73658	0.98794
2807.67967	0.98824
2805.62276	0.98862
2803.56585	0.98844
2801.50895	0.98817
2799.45204	0.98844
2797.39513	0.98878
2795.33822	0.98883
2793.28131	0.98884
2791.22440	0.98892
2789.16750	0.98893
2787.11059	0.98881
2785.05368	0.98876
2782.99677	0.98892
2780.93986	0.98921
2778.88296	0.98928
2776.82605	0.98905
2774.76914	0.98881
2772.71223	0.98873
2770.65532	0.98867
2768.59841	0.98852
2766.54151	0.98863
2764.48460	0.98894
2762.42769	0.98907
2760.37078	0.98898
2758.31387	0.98869
2756.25697	0.98843
2754.20006	0.98845
2752.14315	0.98850
2750.08624	0.98861
2748.02933	0.98898
2745.97242	0.98908
2743.91552	0.98869
2741.85861	0.98845
2739.80170	0.98853
2737.74479	0.98855
2735.68788	0.98856
2733.63098	0.98876
2731.57407	0.98882
2729.51716	0.98867
2727.46025	0.98869
2725.40334	0.98893
2723.34643	0.98913
2721.28953	0.98895
2719.23262	0.98864
2717.17571	0.98868
2715.11880	0.98884
2713.06189	0.98881
2711.00499	0.98876
2708.94808	0.98888
2706.89117	0.98916
2704.83426	0.98926
2702.77735	0.98895
2700.72044	0.98867
2698.66354	0.98876
2696.60663	0.98889
2694.54972	0.98885
2692.49281	0.98869
2690.43590	0.98874
2688.37900	0.98928
2686.32209	0.98973
2684.26518	0.98944
2682.20827	0.98902
2680.15136	0.98909
2678.09445	0.98921
2676.03755	0.98892
2673.98064	0.98847
2671.92373	0.98824
2669.86682	0.98836
2667.80991	0.98874
2665.75301	0.98911
2663.69610	0.98922
2661.63919	0.98905
2659.58228	0.98893
2657.52537	0.98898
2655.46846	0.98890
2653.41156	0.98878
2651.35465	0.98882
2649.29774	0.98881
2647.24083	0.98857
2645.18392	0.98831
2643.12702	0.98847
2641.07011	0.98882
2639.01320	0.98865
2636.95629	0.98841
2634.89938	0.98863
2632.84247	0.98889
2630.78557	0.98882
2628.72866	0.98862
2626.67175	0.98867
2624.61484	0.98869
2622.55793	0.98869
2620.50103	0.98911
2618.44412	0.98949
2616.38721	0.98964
2614.33030	0.98978
2612.27339	0.98950
2610.21648	0.98902
2608.15958	0.98891
2606.10267	0.98876
2604.04576	0.98851
2601.98885	0.98867
2599.93194	0.98937
2597.87504	0.99004
2595.81813	0.98986
2593.76122	0.98921
2591.70431	0.98924
2589.64740	0.98975
2587.59049	0.99021
2585.53359	0.99043
2583.47668	0.99021
2581.41977	0.98982
2579.36286	0.98955
2577.30595	0.98968
2575.24905	0.99022
2573.19214	0.99062
2571.13523	0.99043
2569.07832	0.99029
2567.02141	0.99064
2564.96450	0.99074
2562.90760	0.99043
2560.85069	0.99046
2558.79378	0.99099
2556.73687	0.99126
2554.67996	0.99055
2552.62306	0.98954
2550.56615	0.98958
2548.50924	0.99036
2546.45233	0.99087
2544.39542	0.99116
2542.33851	0.99080
2540.28161	0.98991
2538.22470	0.98979
2536.16779	0.99018
2534.11088	0.99013
2532.05397	0.99013
2529.99707	0.99050
2527.94016	0.99057
2525.88325	0.99015
2523.82634	0.99020
2521.76943	0.99105
2519.71252	0.99141
2517.65562	0.99107
2515.59871	0.99063
2513.54180	0.99009
2511.48489	0.98998
2509.42798	0.99041
2507.37108	0.99081
2505.31417	0.99108
2503.25726	0.99132
2501.20035	0.99138
2499.14344	0.99133
2497.08653	0.99112
2495.02963	0.99096
2492.97272	0.99126
2490.91581	0.99136
2488.85890	0.99097
2486.80199	0.99071
2484.74509	0.99053
2482.68818	0.99007
2480.63127	0.98964
2478.57436	0.98999
2476.51745	0.99099
2474.46054	0.99124
2472.40364	0.99056
2470.34673	0.99046
2468.28982	0.99086
2466.23291	0.99073
2464.17600	0.99061
2462.11910	0.99086
2460.06219	0.99080
2458.00528	0.99025
2455.94837	0.98990
2453.89146	0.99008
2451.83455	0.99056
2449.77765	0.99106
2447.72074	0.99140
2445.66383	0.99120
2443.60692	0.99058
2441.55001	0.99011
2439.49311	0.98994
2437.43620	0.99015
2435.37929	0.99061
2433.32238	0.99111
2431.26547	0.99153
2429.20856	0.99132
2427.15166	0.99078
2425.09475	0.99050
2423.03784	0.99028
2420.98093	0.99033
2418.92402	0.99063
2416.86712	0.99042
2414.81021	0.99022
2412.75330	0.99088
2410.69639	0.99154
2408.63948	0.99172
2406.58257	0.99149
2404.52567	0.99065
2402.46876	0.99005
2400.41185	0.99029
2398.35494	0.99066
2396.29803	0.99069
2394.24113	0.99095
2392.18422	0.99157
2390.12731	0.99166
2388.07040	0.99109
2386.01349	0.99079
2383.95658	0.99122
2381.89968	0.99168
2379.84277	0.99179
2377.78586	0.99189
2375.72895	0.99184
2373.67204	0.99186
2371.61514	0.99218
2369.55823	0.99242
2367.50132	0.99248
2365.44441	0.99201
2363.38750	0.99113
2361.33059	0.99039
2359.27369	0.99033
2357.21678	0.99136
2355.15987	0.99214
2353.10296	0.99205
2351.04605	0.99189
2348.98915	0.99182
2346.93224	0.99167
2344.87533	0.99118
2342.81842	0.99073
2340.76151	0.99103
2338.70460	0.99153
2336.64770	0.99126
2334.59079	0.99078
2332.53388	0.99105
2330.47697	0.99129
2328.42006	0.99100
2326.36316	0.99065
2324.30625	0.98995
2322.24934	0.98927
2320.19243	0.98940
2318.13552	0.98979
2316.07861	0.98977
2314.02171	0.99002
2311.96480	0.99094
2309.90789	0.99145
2307.85098	0.99081
2305.79407	0.98994
2303.73717	0.98998
2301.68026	0.99084
2299.62335	0.99126
2297.56644	0.99075
2295.50953	0.99039
2293.45262	0.99066
2291.39572	0.99061
2289.33881	0.98976
2287.28190	0.98892
2285.22499	0.98850
2283.16808	0.98845
2281.11117	0.98900
2279.05427	0.98965
2276.99736	0.98979
2274.94045	0.98979
2272.88354	0.98996
2270.82663	0.99026
2268.76973	0.99063
2266.71282	0.99068
2264.65591	0.99005
2262.59900	0.98937
2260.54209	0.98929
2258.48518	0.98931
2256.42828	0.98910
2254.37137	0.98947
2252.31446	0.99075
2250.25755	0.99143
2248.20064	0.99051
2246.14374	0.98959
2244.08683	0.98993
2242.02992	0.99023
2239.97301	0.99034
2237.91610	0.99188
2235.85919	0.99366
2233.80229	0.99327
2231.74538	0.99138
2229.68847	0.99027
2227.63156	0.98994
2225.57465	0.98936
2223.51775	0.98939
2221.46084	0.99007
2219.40393	0.99116
2217.34702	0.99300
2215.29011	0.99379
2213.23320	0.99266
2211.17630	0.99176
2209.11939	0.99231
2207.06248	0.99316
2205.00557	0.99326
2202.94866	0.99276
2200.89176	0.99147
2198.83485	0.99024
2196.77794	0.99086
2194.72103	0.99223
2192.66412	0.99238
2190.60721	0.99159
2188.55031	0.99047
2186.49340	0.98924
2184.43649	0.98932
2182.37958	0.99117
2180.32267	0.99230
2178.26577	0.99152
2176.20886	0.99044
2174.15195	0.99018
2172.09504	0.99079
2170.03813	0.99193
2167.98122	0.99104
2165.92432	0.98847
2163.86741	0.98842
2161.81050	0.98983
2159.75359	0.99058
2157.69668	0.99223
2155.63978	0.99400
2153.58287	0.99466
2151.52596	0.99460
2149.46905	0.99411
2147.41214	0.99332
2145.35523	0.99318
2143.29833	0.99470
2141.24142	0.99564
2139.18451	0.99462
2137.12760	0.99380
2135.07069	0.99375
2133.01379	0.99364
2130.95688	0.99365
2128.89997	0.99373
2126.84306	0.99302
2124.78615	0.99135
2122.72924	0.98964
2120.67234	0.98947
2118.61543	0.99100
2116.55852	0.99212
2114.50161	0.99205
2112.44470	0.99166
2110.38780	0.99095
2108.33089	0.99017
2106.27398	0.99015
2104.21707	0.99097
2102.16016	0.99214
2100.10325	0.99321
2098.04635	0.99383
2095.98944	0.99352
2093.93253	0.99286
2091.87562	0.99273
2089.81871	0.99227
2087.76181	0.99106
2085.70490	0.99073
2083.64799	0.99188
2081.59108	0.99328
2079.53417	0.99429
2077.47726	0.99416
2075.42036	0.99289
2073.36345	0.99212
2071.30654	0.99187
2069.24963	0.99127
2067.19272	0.99087
2065.13582	0.99145
2063.07891	0.99246
2061.02200	0.99247
2058.96509	0.99143
2056.90818	0.99150
2054.85127	0.99275
2052.79437	0.99222
2050.73746	0.99076
2048.68055	0.99144
2046.62364	0.99309
2044.56673	0.99345
2042.50983	0.99335
2040.45292	0.99402
2038.39601	0.99413
2036.33910	0.99245
2034.28219	0.99103
2032.22528	0.99103
2030.16838	0.99077
2028.11147	0.99012
2026.05456	0.99067
2023.99765	0.99173
2021.94074	0.99132
2019.88384	0.99093
2017.82693	0.99242
2015.77002	0.99422
2013.71311	0.99523
2011.65620	0.99587
2009.59929	0.99615
2007.54239	0.99562
2005.48548	0.99420
2003.42857	0.99220
2001.37166	0.99084
1999.31475	0.99200
1997.25785	0.99443
1995.20094	0.99597
1993.14403	0.99699
1991.08712	0.99661
1989.03021	0.99415
1986.97330	0.99230
1984.91640	0.99232
1982.85949	0.99184
1980.80258	0.99103
1978.74567	0.99238
1976.68876	0.99407
1974.63186	0.99460
1972.57495	0.99488
1970.51804	0.99366
1968.46113	0.99177
1966.40422	0.99179
1964.34731	0.99298
1962.29041	0.99336
1960.23350	0.99326
1958.17659	0.99380
1956.11968	0.99439
1954.06277	0.99426
1952.00587	0.99369
1949.94896	0.99308
1947.89205	0.99277
1945.83514	0.99267
1943.77823	0.99332
1941.72132	0.99484
1939.66442	0.99572
1937.60751	0.99527
1935.55060	0.99401
1933.49369	0.99295
1931.43678	0.99273
1929.37988	0.99275
1927.32297	0.99209
1925.26606	0.99161
1923.20915	0.99226
1921.15224	0.99301
1919.09533	0.99314
1917.03843	0.99318
1914.98152	0.99366
1912.92461	0.99421
1910.86770	0.99431
1908.81079	0.99377
1906.75389	0.99269
1904.69698	0.99171
1902.64007	0.99181
1900.58316	0.99304
1898.52625	0.99371
1896.46934	0.99280
1894.41244	0.99169
1892.35553	0.99197
1890.29862	0.99285
1888.24171	0.99288
1886.18480	0.99234
1884.12790	0.99199
1882.07099	0.99201
1880.01408	0.99241
1877.95717	0.99301
1875.90026	0.99364
1873.84335	0.99389
1871.78645	0.99390
1869.72954	0.99432
1867.67263	0.99481
1865.61572	0.99466
1863.55881	0.99408
1861.50191	0.99355
1859.44500	0.99336
1857.38809	0.99368
1855.33118	0.99400
1853.27427	0.99370
1851.21736	0.99319
1849.16046	0.99309
1847.10355	0.99311
1845.04664	0.99300
1842.98973	0.99285
1840.93282	0.99252
1838.87592	0.99224
1836.81901	0.99276
1834.76210	0.99377
1832.70519	0.99378
1830.64828	0.99288
1828.59137	0.99246
1826.53447	0.99267
1824.47756	0.99283
1822.42065	0.99293
1820.36374	0.99287
1818.30683	0.99247
1816.24993	0.99206
1814.19302	0.99192
1812.13611	0.99174
1810.07920	0.99109
1808.02229	0.99055
1805.96538	0.99042
1803.90848	0.99029
1801.85157	0.99013
1799.79466	0.98987
1797.73775	0.98934
1795.68084	0.98858
1793.62394	0.98770
1791.56703	0.98725
1789.51012	0.98729
1787.45321	0.98697
1785.39630	0.98638
1783.33939	0.98569
1781.28249	0.98474
1779.22558	0.98329
1777.16867	0.98117
1775.11176	0.97856
1773.05485	0.97548
1770.99795	0.97136
1768.94104	0.96582
1766.88413	0.95877
1764.82722	0.95091
1762.77031	0.94134
1760.71340	0.93002
1758.65650	0.92010
1756.59959	0.91096
1754.54268	0.90286
1752.48577	0.89587
1750.42886	0.88793
1748.37196	0.88044
1746.31505	0.87529
1744.25814	0.87145
1742.20123	0.86859
1740.14432	0.86709
1738.08741	0.86692
1736.03051	0.86795
1733.97360	0.87041
1731.91669	0.87396
1729.85978	0.87780
1727.80287	0.88232
1725.74597	0.88759
1723.68906	0.89386
1721.63215	0.90041
1719.57524	0.90671
1717.51833	0.91426
1715.46142	0.92264
1713.40452	0.92953
1711.34761	0.93536
1709.29070	0.94073
1707.23379	0.94606
1705.17688	0.95118
1703.11998	0.95499
1701.06307	0.95832
1699.00616	0.96189
1696.94925	0.96466
1694.89234	0.96690
1692.83543	0.96839
1690.77853	0.96951
1688.72162	0.97065
1686.66471	0.97158
1684.60780	0.97210
1682.55089	0.97234
1680.49399	0.97320
1678.43708	0.97453
1676.38017	0.97589
1674.32326	0.97668
1672.26635	0.97688
1670.20944	0.97709
1668.15254	0.97736
1666.09563	0.97772
1664.03872	0.97798
1661.98181	0.97798
1659.92490	0.97793
1657.86800	0.97811
1655.81109	0.97853
1653.75418	0.97873
1651.69727	0.97783
1649.64036	0.97705
1647.58345	0.97664
1645.52655	0.97644
1643.46964	0.97653
1641.41273	0.97673
1639.35582	0.97695
1637.29891	0.97695
1635.24201	0.97688
1633.18510	0.97719
1631.12819	0.97777
1629.07128	0.97834
1627.01437	0.97851
1624.95746	0.97838
1622.90056	0.97849
1620.84365	0.97886
1618.78674	0.97936
1616.72983	0.98015
1614.67292	0.98060
1612.61602	0.98058
1610.55911	0.98081
1608.50220	0.98146
1606.44529	0.98211
1604.38838	0.98269
1602.33147	0.98325
1600.27457	0.98360
1598.21766	0.98372
1596.16075	0.98375
1594.10384	0.98380
1592.04693	0.98380
1589.99003	0.98379
1587.93312	0.98409
1585.87621	0.98451
1583.81930	0.98474
1581.76239	0.98494
1579.70548	0.98518
1577.64858	0.98545
1575.59167	0.98545
1573.53476	0.98505
1571.47785	0.98483
1569.42094	0.98503
1567.36404	0.98537
1565.30713	0.98557
1563.25022	0.98554
1561.19331	0.98522
1559.13640	0.98499
1557.07949	0.98546
1555.02259	0.98607
1552.96568	0.98644
1550.90877	0.98648
1548.85186	0.98644
1546.79495	0.98656
1544.73805	0.98678
1542.68114	0.98696
1540.62423	0.98699
1538.56732	0.98686
1536.51041	0.98672
1534.45350	0.98667
1532.39660	0.98688
1530.33969	0.98712
1528.28278	0.98727
1526.22587	0.98741
1524.16896	0.98750
1522.11206	0.98765
1520.05515	0.98766
1517.99824	0.98750
1515.94133	0.98745
1513.88442	0.98736
1511.82751	0.98728
1509.77061	0.98746
1507.71370	0.98782
1505.65679	0.98787
1503.59988	0.98775
1501.54297	0.98765
1499.48607	0.98750
1497.42916	0.98746
1495.37225	0.98744
1493.31534	0.98738
1491.25843	0.98743
1489.20152	0.98727
1487.14462	0.98666
1485.08771	0.98621
1483.03080	0.98611
1480.97389	0.98603
1478.91698	0.98574
1476.86008	0.98530
1474.80317	0.98480
1472.74626	0.98419
1470.68935	0.98319
1468.63244	0.98212
1466.57553	0.98105
1464.51863	0.97961
1462.46172	0.97821
1460.40481	0.97730
1458.34790	0.97620
1456.29099	0.97444
1454.23409	0.97301
1452.17718	0.97212
1450.12027	0.97149
1448.06336	0.97064
1446.00645	0.96945
1443.94954	0.96828
1441.89264	0.96730
1439.83573	0.96655
1437.77882	0.96566
1435.72191	0.96455
1433.66500	0.96405
1431.60810	0.96397
1429.55119	0.96404
1427.49428	0.96445
1425.43737	0.96516
1423.38046	0.96591
1421.32355	0.96660
1419.26665	0.96736
1417.20974	0.96791
1415.15283	0.96819
1413.09592	0.96863
1411.03901	0.96928
1408.98211	0.96983
1406.92520	0.97013
1404.86829	0.97016
1402.81138	0.97011
1400.75447	0.97005
1398.69756	0.96953
1396.64066	0.96816
1394.58375	0.96596
1392.52684	0.96315
1390.46993	0.96004
1388.41302	0.95606
1386.35612	0.95090
1384.29921	0.94558
1382.24230	0.94034
1380.18539	0.93495
1378.12848	0.92982
1376.07157	0.92499
1374.01467	0.92000
1371.95776	0.91593
1369.90085	0.91389
1367.84394	0.91384
1365.78703	0.91617
1363.73013	0.92142
1361.67322	0.92944
1359.61631	0.93827
1357.55940	0.94644
1355.50249	0.95338
1353.44558	0.95870
1351.38868	0.96260
1349.33177	0.96543
1347.27486	0.96727
1345.21795	0.96837
1343.16104	0.96906
1341.10414	0.96954
1339.04723	0.96994
1336.99032	0.97031
1334.93341	0.97054
1332.87650	0.97052
1330.81959	0.97011
1328.76269	0.96933
1326.70578	0.96862
1324.64887	0.96821
1322.59196	0.96803
1320.53505	0.96800
1318.47815	0.96788
1316.42124	0.96780
1314.36433	0.96816
1312.30742	0.96877
1310.25051	0.96904
1308.19360	0.96885
1306.13670	0.96845
1304.07979	0.96812
1302.02288	0.96792
1299.96597	0.96761
1297.90906	0.96700
1295.85216	0.96606
1293.79525	0.96488
1291.73834	0.96353
1289.68143	0.96209
1287.62452	0.96065
1285.56761	0.95896
1283.51071	0.95686
1281.45380	0.95433
1279.39689	0.95142
1277.33998	0.94834
1275.28307	0.94499
1273.22617	0.94135
1271.16926	0.93750
1269.11235	0.93345
1267.05544	0.92925
1264.99853	0.92477
1262.94162	0.91963
1260.88472	0.91383
1258.82781	0.90763
1256.77090	0.90106
1254.71399	0.89427
1252.65708	0.88751
1250.60018	0.88081
1248.54327	0.87390
1246.48636	0.86678
1244.42945	0.85954
1242.37254	0.85224
1240.31563	0.84509
1238.25873	0.83830
1236.20182	0.83194
1234.14491	0.82600
1232.08800	0.82051
1230.03109	0.81564
1227.97419	0.81201
1225.91728	0.80997
1223.86037	0.80931
1221.80346	0.81003
1219.74655	0.81234
1217.68964	0.81627
1215.63274	0.82171
1213.57583	0.82871
1211.51892	0.83718
1209.46201	0.84694
1207.40510	0.85787
1205.34820	0.86960
1203.29129	0.88138
1201.23438	0.89269
1199.17747	0.90325
1197.12056	0.91266
1195.06365	0.92042
1193.00675	0.92650
1190.94984	0.93131
1188.89293	0.93492
1186.83602	0.93700
1184.77911	0.93775
1182.72221	0.93778
1180.66530	0.93723
1178.60839	0.93608
1176.55148	0.93445
1174.49457	0.93241
1172.43766	0.93031
1170.38076	0.92865
1168.32385	0.92731
1166.26694	0.92615
1164.21003	0.92543
1162.15312	0.92545
1160.09622	0.92627
1158.03931	0.92774
1155.98240	0.92965
1153.92549	0.93159
1151.86858	0.93312
1149.81167	0.93425
1147.75477	0.93525
1145.69786	0.93605
1143.64095	0.93619
1141.58404	0.93551
1139.52713	0.93432
1137.47023	0.93292
1135.41332	0.93124
1133.35641	0.92915
1131.29950	0.92699
1129.24259	0.92507
1127.18568	0.92323
1125.12878	0.92160
1123.07187	0.92048
1121.01496	0.91959
1118.95805	0.91881
1116.90114	0.91823
1114.84424	0.91775
1112.78733	0.91719
1110.73042	0.91642
1108.67351	0.91562
1106.61660	0.91481
1104.55969	0.91370
1102.50279	0.91233
1100.44588	0.91073
1098.38897	0.90857
1096.33206	0.90564
1094.27515	0.90228
1092.21825	0.89876
1090.16134	0.89485
1088.10443	0.89056
1086.04752	0.88628
1083.99061	0.88215
1081.93370	0.87795
1079.87680	0.87346
1077.81989	0.86868
1075.76298	0.86406
1073.70607	0.86010
1071.64916	0.85665
1069.59226	0.85330
1067.53535	0.84990
1065.47844	0.84645
1063.42153	0.84309
1061.36462	0.83975
1059.30771	0.83626
1057.25081	0.83257
1055.19390	0.82866
1053.13699	0.82469
1051.08008	0.82088
1049.02317	0.81707
1046.96627	0.81348
1044.90936	0.81049
1042.85245	0.80761
1040.79554	0.80480
1038.73863	0.80239
1036.68172	0.80022
1034.62482	0.79853
1032.56791	0.79794
1030.51100	0.79876
1028.45409	0.80123
1026.39718	0.80539
1024.34028	0.81058
1022.28337	0.81625
1020.22646	0.82271
1018.16955	0.82970
1016.11264	0.83621
1014.05573	0.84215
1011.99883	0.84803
1009.94192	0.85401
1007.88501	0.85976
1005.82810	0.86496
1003.77119	0.86985
1001.71429	0.87485
999.65738	0.87974
997.60047	0.88423
995.54356	0.88827
993.48665	0.89152
991.42974	0.89408
989.37284	0.89654
987.31593	0.89903
985.25902	0.90147
983.20211	0.90379
981.14520	0.90602
979.08830	0.90828
977.03139	0.91056
974.97448	0.91295
972.91757	0.91592
970.86066	0.91937
968.80375	0.92288
966.74685	0.92634
964.68994	0.92932
962.63303	0.93151
960.57612	0.93335
958.51921	0.93521
956.46231	0.93698
954.40540	0.93831
952.34849	0.93901
950.29158	0.93957
948.23467	0.94045
946.17776	0.94161
944.12086	0.94286
942.06395	0.94384
940.00704	0.94446
937.95013	0.94505
935.89322	0.94574
933.83632	0.94615
931.77941	0.94610
929.72250	0.94568
927.66559	0.94465
925.60868	0.94326
923.55177	0.94219
921.49487	0.94150
919.43796	0.94076
917.38105	0.94007
915.32414	0.93966
913.26723	0.93908
911.21033	0.93801
909.15342	0.93683
907.09651	0.93557
905.03960	0.93430
902.98269	0.93362
900.92578	0.93381
898.86888	0.93458
896.81197	0.93561
894.75506	0.93667
892.69815	0.93759
890.64124	0.93874
888.58434	0.94041
886.52743	0.94240
884.47052	0.94424
882.41361	0.94567
880.35670	0.94708
878.29979	0.94888
876.24289	0.95096
874.18598	0.95324
872.12907	0.95544
870.07216	0.95699
868.01525	0.95823
865.95835	0.96017
863.90144	0.96248
861.84453	0.96394
859.78762	0.96479
857.73071	0.96578
855.67380	0.96649
853.61690	0.96613
851.55999	0.96503
849.50308	0.96428
847.44617	0.96394
845.38926	0.96362
843.33236	0.96345
841.27545	0.96348
839.21854	0.96350
837.16163	0.96355
835.10472	0.96416
833.04781	0.96540
830.99091	0.96656
828.93400	0.96728
826.87709	0.96781
824.82018	0.96856
822.76327	0.96978
820.70637	0.97134
818.64946	0.97242
816.59255	0.97244
814.53564	0.97225
812.47873	0.97226
810.42182	0.97200
808.36492	0.97210
806.30801	0.97315
804.25110	0.97412
802.19419	0.97419
800.13728	0.97414
798.08038	0.97457
796.02347	0.97523
793.96656	0.97574
791.90965	0.97578
789.85274	0.97588
787.79583	0.97626
785.73893	0.97601
783.68202	0.97499
781.62511	0.97429
779.56820	0.97437
777.51129	0.97490
775.45439	0.97535
773.39748	0.97539
771.34057	0.97530
769.28366	0.97541
767.22675	0.97577
765.16984	0.97589
763.11294	0.97545
761.05603	0.97516
758.99912	0.97591
756.94221	0.97721
754.88530	0.97746
752.82839	0.97646
750.77149	0.97527
748.71458	0.97455
746.65767	0.97461
744.60076	0.97524
742.54385	0.97604
740.48695	0.97653
738.43004	0.97631
736.37313	0.97579
734.31622	0.97548
732.25931	0.97506
730.20240	0.97434
728.14550	0.97389
726.08859	0.97378
724.03168	0.97319
721.97477	0.97228
719.91786	0.97199
717.86096	0.97202
715.80405	0.97176
713.74714	0.97135
711.69023	0.97074
709.63332	0.96983
707.57641	0.96922
705.51951	0.96908
703.46260	0.96846
701.40569	0.96730
699.34878	0.96649
697.29187	0.96606
695.23497	0.96570
693.17806	0.96513
691.12115	0.96439
689.06424	0.96387
687.00733	0.96356
684.95042	0.96350
682.89352	0.96379
680.83661	0.96413
678.77970	0.96371
676.72279	0.96285
674.66588	0.96272
672.60898	0.96312
670.55207	0.96361
668.49516	0.96384
666.43825	0.96345
664.38134	0.96308
662.32443	0.96231
660.26753	0.96132
658.21062	0.96101
656.15371	0.96078
654.09680	0.96025
652.03989	0.95981
649.98299	0.95889
647.92608	0.95707
645.86917	0.95525
643.81226	0.95378
641.75535	0.95244
639.69844	0.95178
637.64154	0.95165
635.58463	0.95073
633.52772	0.94903
631.47081	0.94827
629.41390	0.94851
627.35700	0.94819
625.30009	0.94692
623.24318	0.94517
621.18627	0.94383
619.12936	0.94278
617.07245	0.94133
615.01555	0.93973
612.95864	0.93715
610.90173	0.93341
608.84482	0.93004
606.78791	0.92698
604.73101	0.92365
602.67410	0.92135
600.61719	0.92148
598.56028	0.92389
596.50337	0.92775
594.44646	0.93213
592.38956	0.93670
590.33265	0.94058
588.27574	0.94253
586.21883	0.94328
584.16192	0.94450
582.10502	0.94609
580.04811	0.94638
577.99120	0.94543
575.93429	0.94486
573.87738	0.94512
571.82047	0.94525
569.76357	0.94527
567.70666	0.94538
565.64975	0.94427
563.59284	0.94206
561.53593	0.94076
559.47903	0.94074
557.42212	0.94180
555.36521	0.94376
553.30830	0.94431
551.25139	0.94367
549.19448	0.94362
547.13758	0.94352
545.08067	0.94404
543.02376	0.94462
540.96685	0.94398
538.90994	0.94382
536.85304	0.94447
534.79613	0.94428
532.73922	0.94407
530.68231	0.94435
528.62540	0.94315
526.56849	0.94095
524.51159	0.94044
522.45468	0.94103
520.39777	0.94053
518.34086	0.93897
516.28395	0.93892
514.22705	0.94143
512.17014	0.94314
510.11323	0.94278
508.05632	0.94199
505.99941	0.94044
503.94250	0.93822
501.88560	0.93637
499.82869	0.93562
497.77178	0.93596
495.71487	0.93646
493.65796	0.93648
491.60106	0.93594
489.54415	0.93597
487.48724	0.93644
485.43033	0.93670
483.37342	0.93731
481.31651	0.93691
479.25961	0.93551
477.20270	0.93571
475.14579	0.93717
473.08888	0.93698
471.03197	0.93485
468.97507	0.93297
466.91816	0.93156
464.86125	0.93003
462.80434	0.92877
460.74743	0.92853
458.69052	0.92902
456.63362	0.92897
454.57671	0.92883
452.51980	0.92821
450.46289	0.92675
448.40598	0.92707
446.34908	0.92920
444.29217	0.93118
442.23526	0.93175
440.17835	0.93043
438.12144	0.92982
436.06453	0.93128
434.00763	0.93145
431.95072	0.92868
429.89381	0.92740
427.83690	0.93007
425.77999	0.93275
423.72309	0.93261
421.66618	0.93156
419.60927	0.93273
417.55236	0.93759
415.49545	0.94067
413.43854	0.94167
411.38164	0.94291
409.32473	0.94210
407.26782	0.94185
405.21091	0.94246
403.15400	0.93786
401.09710	0.93083
399.04019	0.92581
