3996.57260	0.98390
3994.51569	0.98354
3992.45878	0.98338
3990.40188	0.98332
3988.34497	0.98359
3986.28806	0.98432
3984.23115	0.98464
3982.17424	0.98443
3980.11733	0.98464
3978.06043	0.98523
3976.00352	0.98541
3973.94661	0.98511
3971.88970	0.98476
3969.83279	0.98455
3967.77589	0.98471
3965.71898	0.98500
3963.66207	0.98513
3961.60516	0.98532
3959.54825	0.98543
3957.49134	0.98503
3955.43444	0.98434
3953.37753	0.98397
3951.32062	0.98400
3949.26371	0.98429
3947.20680	0.98445
3945.14990	0.98422
3943.09299	0.98404
3941.03608	0.98456
3938.97917	0.98541
3936.92226	0.98571
3934.86535	0.98560
3932.80845	0.98544
3930.75154	0.98514
3928.69463	0.98498
3926.63772	0.98501
3924.58081	0.98485
3922.52391	0.98495
3920.46700	0.98545
3918.41009	0.98535
3916.35318	0.98493
3914.29627	0.98520
3912.23936	0.98554
3910.18246	0.98540
3908.12555	0.98530
3906.06864	0.98551
3904.01173	0.98544
3901.95482	0.98457
3899.89792	0.98339
3897.84101	0.98319
3895.78410	0.98401
3893.72719	0.98452
3891.67028	0.98439
3889.61337	0.98433
3887.55647	0.98427
3885.49956	0.98394
3883.44265	0.98375
3881.38574	0.98429
3879.32883	0.98500
3877.27193	0.98439
3875.21502	0.98318
3873.15811	0.98297
3871.10120	0.98365
3869.04429	0.98404
3866.98738	0.98387
3864.93048	0.98395
3862.87357	0.98459
3860.81666	0.98507
3858.75975	0.98521
3856.70284	0.98585
3854.64594	0.98682
3852.58903	0.98600
3850.53212	0.98457
3848.47521	0.98455
3846.41830	0.98524
3844.36139	0.98581
3842.30449	0.98619
3840.24758	0.98634
3838.19067	0.98594
3836.13376	0.98509
3834.07685	0.98438
3832.01995	0.98418
3829.96304	0.98431
3827.90613	0.98472
3825.84922	0.98542
3823.79231	0.98570
3821.73540	0.98526
3819.67850	0.98457
3817.62159	0.98392
3815.56468	0.98369
3813.50777	0.98414
3811.45086	0.98485
3809.39396	0.98546
3807.33705	0.98547
3805.28014	0.98522
3803.22323	0.98553
3801.16632	0.98628
3799.10941	0.98661
3797.05251	0.98604
3794.99560	0.98518
3792.93869	0.98513
3790.88178	0.98580
3788.82487	0.98645
3786.76796	0.98662
3784.71106	0.98644
3782.65415	0.98618
3780.59724	0.98579
3778.54033	0.98500
3776.48342	0.98392
3774.42652	0.98359
3772.36961	0.98473
3770.31270	0.98625
3768.25579	0.98611
3766.19888	0.98499
3764.14197	0.98448
3762.08507	0.98481
3760.02816	0.98586
3757.97125	0.98648
3755.91434	0.98576
3753.85743	0.98482
3751.80053	0.98462
3749.74362	0.98512
3747.68671	0.98607
3745.62980	0.98675
3743.57289	0.98634
3741.51598	0.98560
3739.45908	0.98530
3737.40217	0.98540
3735.34526	0.98604
3733.28835	0.98632
3731.23144	0.98554
3729.17454	0.98497
3727.11763	0.98523
3725.06072	0.98576
3723.00381	0.98601
3720.94690	0.98587
3718.88999	0.98539
3716.83309	0.98524
3714.77618	0.98556
3712.71927	0.98520
3710.66236	0.98395
3708.60545	0.98377
3706.54855	0.98469
3704.49164	0.98523
3702.43473	0.98507
3700.37782	0.98475
3698.32091	0.98441
3696.26400	0.98438
3694.20710	0.98483
3692.15019	0.98525
3690.09328	0.98537
3688.03637	0.98508
3685.97946	0.98452
3683.92256	0.98446
3681.86565	0.98490
3679.80874	0.98480
3677.75183	0.98385
3675.69492	0.98305
3673.63801	0.98328
3671.58111	0.98359
3669.52420	0.98328
3667.46729	0.98363
3665.41038	0.98480
3663.35347	0.98525
3661.29657	0.98482
3659.23966	0.98470
3657.18275	0.98464
3655.12584	0.98385
3653.06893	0.98332
3651.01202	0.98373
3648.95512	0.98447
3646.89821	0.98423
3644.84130	0.98317
3642.78439	0.98235
3640.72748	0.98187
3638.67058	0.98143
3636.61367	0.98114
3634.55676	0.98110
3632.49985	0.98108
3630.44294	0.98062
3628.38603	0.97993
3626.32913	0.98017
3624.27222	0.98087
3622.21531	0.98172
3620.15840	0.98278
3618.10149	0.98285
3616.04459	0.98151
3613.98768	0.98031
3611.93077	0.97984
3609.87386	0.97961
3607.81695	0.97980
3605.76004	0.98005
3603.70314	0.98003
3601.64623	0.97982
3599.58932	0.97929
3597.53241	0.97881
3595.47550	0.97834
3593.41860	0.97774
3591.36169	0.97746
3589.30478	0.97715
3587.24787	0.97672
3585.19096	0.97684
3583.13405	0.97719
3581.07715	0.97725
3579.02024	0.97688
3576.96333	0.97653
3574.90642	0.97620
3572.84951	0.97533
3570.79261	0.97466
3568.73570	0.97505
3566.67879	0.97534
3564.62188	0.97405
3562.56497	0.97248
3560.50806	0.97195
3558.45116	0.97224
3556.39425	0.97222
3554.33734	0.97145
3552.28043	0.97086
3550.22352	0.97115
3548.16662	0.97173
3546.10971	0.97155
3544.05280	0.97029
3541.99589	0.96892
3539.93898	0.96781
3537.88207	0.96697
3535.82517	0.96702
3533.76826	0.96734
3531.71135	0.96693
3529.65444	0.96633
3527.59753	0.96602
3525.54063	0.96580
3523.48372	0.96566
3521.42681	0.96546
3519.36990	0.96488
3517.31299	0.96417
3515.25608	0.96365
3513.19918	0.96339
3511.14227	0.96334
3509.08536	0.96298
3507.02845	0.96239
3504.97154	0.96208
3502.91464	0.96164
3500.85773	0.96108
3498.80082	0.96106
3496.74391	0.96115
3494.68700	0.96100
3492.63009	0.96076
3490.57319	0.96049
3488.51628	0.96024
3486.45937	0.96013
3484.40246	0.96036
3482.34555	0.96045
3480.28865	0.96006
3478.23174	0.95991
3476.17483	0.95998
3474.11792	0.95979
3472.06101	0.95985
3470.00410	0.96019
3467.94720	0.96039
3465.89029	0.96071
3463.83338	0.96110
3461.77647	0.96128
3459.71956	0.96152
3457.66266	0.96161
3455.60575	0.96132
3453.54884	0.96160
3451.49193	0.96238
3449.43502	0.96288
3447.37811	0.96300
3445.32121	0.96272
3443.26430	0.96267
3441.20739	0.96324
3439.15048	0.96360
3437.09357	0.96336
3435.03667	0.96323
3432.97976	0.96355
3430.92285	0.96414
3428.86594	0.96468
3426.80903	0.96508
3424.75212	0.96521
3422.69522	0.96503
3420.63831	0.96508
3418.58140	0.96563
3416.52449	0.96628
3414.46758	0.96647
3412.41068	0.96651
3410.35377	0.96691
3408.29686	0.96737
3406.23995	0.96782
3404.18304	0.96830
3402.12613	0.96824
3400.06923	0.96778
3398.01232	0.96786
3395.95541	0.96814
3393.89850	0.96810
3391.84159	0.96808
3389.78469	0.96821
3387.72778	0.96830
3385.67087	0.96849
3383.61396	0.96894
3381.55705	0.96970
3379.50014	0.97039
3377.44324	0.97052
3375.38633	0.97023
3373.32942	0.97008
3371.27251	0.97056
3369.21560	0.97121
3367.15870	0.97136
3365.10179	0.97137
3363.04488	0.97164
3360.98797	0.97143
3358.93106	0.97077
3356.87415	0.97134
3354.81725	0.97298
3352.76034	0.97370
3350.70343	0.97341
3348.64652	0.97314
3346.58961	0.97299
3344.53271	0.97297
3342.47580	0.97328
3340.41889	0.97360
3338.36198	0.97362
3336.30507	0.97352
3334.24816	0.97362
3332.19126	0.97369
3330.13435	0.97346
3328.07744	0.97318
3326.02053	0.97317
3323.96362	0.97394
3321.90672	0.97501
3319.84981	0.97517
3317.79290	0.97469
3315.73599	0.97458
3313.67908	0.97491
3311.62217	0.97527
3309.56527	0.97565
3307.50836	0.97585
3305.45145	0.97568
3303.39454	0.97569
3301.33763	0.97608
3299.28073	0.97644
3297.22382	0.97641
3295.16691	0.97598
3293.11000	0.97558
3291.05309	0.97569
3288.99618	0.97635
3286.93928	0.97690
3284.88237	0.97719
3282.82546	0.97772
3280.76855	0.97807
3278.71164	0.97765
3276.65474	0.97718
3274.59783	0.97716
3272.54092	0.97728
3270.48401	0.97728
3268.42710	0.97728
3266.37019	0.97755
3264.31329	0.97777
3262.25638	0.97775
3260.19947	0.97775
3258.14256	0.97778
3256.08565	0.97778
3254.02875	0.97787
3251.97184	0.97798
3249.91493	0.97801
3247.85802	0.97799
3245.80111	0.97819
3243.74420	0.97861
3241.68730	0.97893
3239.63039	0.97892
3237.57348	0.97882
3235.51657	0.97880
3233.45966	0.97864
3231.40276	0.97835
3229.34585	0.97825
3227.28894	0.97842
3225.23203	0.97875
3223.17512	0.97910
3221.11821	0.97930
3219.06131	0.97950
3217.00440	0.97961
3214.94749	0.97959
3212.89058	0.97970
3210.83367	0.97976
3208.77677	0.97993
3206.71986	0.98040
3204.66295	0.98057
3202.60604	0.98033
3200.54913	0.98017
3198.49222	0.98010
3196.43532	0.98009
3194.37841	0.98031
3192.32150	0.98032
3190.26459	0.98004
3188.20768	0.98033
3186.15078	0.98082
3184.09387	0.98058
3182.03696	0.98009
3179.98005	0.97995
3177.92314	0.98027
3175.86623	0.98095
3173.80933	0.98132
3171.75242	0.98106
3169.69551	0.98075
3167.63860	0.98079
3165.58169	0.98101
3163.52479	0.98111
3161.46788	0.98112
3159.41097	0.98126
3157.35406	0.98127
3155.29715	0.98113
3153.24024	0.98115
3151.18334	0.98113
3149.12643	0.98067
3147.06952	0.98033
3145.01261	0.98098
3142.95570	0.98178
3140.89880	0.98206
3138.84189	0.98245
3136.78498	0.98248
3134.72807	0.98167
3132.67116	0.98125
3130.61425	0.98173
3128.55735	0.98201
3126.50044	0.98177
3124.44353	0.98164
3122.38662	0.98177
3120.32971	0.98189
3118.27281	0.98189
3116.21590	0.98205
3114.15899	0.98218
3112.10208	0.98202
3110.04517	0.98190
3107.98826	0.98205
3105.93136	0.98233
3103.87445	0.98248
3101.81754	0.98238
3099.76063	0.98216
3097.70372	0.98192
3095.64682	0.98144
3093.58991	0.98096
3091.53300	0.98104
3089.47609	0.98144
3087.41918	0.98144
3085.36227	0.98117
3083.30537	0.98117
3081.24846	0.98134
3079.19155	0.98156
3077.13464	0.98175
3075.07773	0.98155
3073.02083	0.98117
3070.96392	0.98087
3068.90701	0.98052
3066.85010	0.98035
3064.79319	0.98052
3062.73628	0.98097
3060.67938	0.98168
3058.62247	0.98224
3056.56556	0.98230
3054.50865	0.98204
3052.45174	0.98165
3050.39484	0.98131
3048.33793	0.98115
3046.28102	0.98103
3044.22411	0.98059
3042.16720	0.98012
3040.11029	0.98029
3038.05339	0.98080
3035.99648	0.98102
3033.93957	0.98064
3031.88266	0.98003
3029.82575	0.98003
3027.76885	0.98044
3025.71194	0.98038
3023.65503	0.97981
3021.59812	0.97935
3019.54121	0.97921
3017.48430	0.97938
3015.42740	0.97978
3013.37049	0.97972
3011.31358	0.97925
3009.25667	0.97902
3007.19976	0.97887
3005.14286	0.97864
3003.08595	0.97881
3001.02904	0.97934
2998.97213	0.97964
2996.91522	0.97930
2994.85831	0.97843
2992.80141	0.97776
2990.74450	0.97755
2988.68759	0.97747
2986.63068	0.97732
2984.57377	0.97696
2982.51687	0.97630
2980.45996	0.97582
2978.40305	0.97563
2976.34614	0.97529
2974.28923	0.97500
2972.23232	0.97490
2970.17542	0.97458
2968.11851	0.97371
2966.06160	0.97265
2964.00469	0.97217
2961.94778	0.97233
2959.89088	0.97242
2957.83397	0.97198
2955.77706	0.97161
2953.72015	0.97153
2951.66324	0.97142
2949.60633	0.97135
2947.54943	0.97128
2945.49252	0.97089
2943.43561	0.97042
2941.37870	0.97027
2939.32179	0.97024
2937.26489	0.97026
2935.20798	0.97067
2933.15107	0.97125
2931.09416	0.97158
2929.03725	0.97166
2926.98034	0.97156
2924.92344	0.97164
2922.86653	0.97200
2920.80962	0.97242
2918.75271	0.97287
2916.69580	0.97309
2914.63890	0.97297
2912.58199	0.97271
2910.52508	0.97235
2908.46817	0.97218
2906.41126	0.97229
2904.35435	0.97219
2902.29745	0.97181
2900.24054	0.97161
2898.18363	0.97161
2896.12672	0.97140
2894.06981	0.97087
2892.01291	0.97056
2889.95600	0.97070
2887.89909	0.97088
2885.84218	0.97109
2883.78527	0.97133
2881.72836	0.97126
2879.67146	0.97092
2877.61455	0.97073
2875.55764	0.97111
2873.50073	0.97195
2871.44382	0.97269
2869.38692	0.97312
2867.33001	0.97335
2865.27310	0.97356
2863.21619	0.97386
2861.15928	0.97464
2859.10237	0.97570
2857.04547	0.97630
2854.98856	0.97655
2852.93165	0.97688
2850.87474	0.97723
2848.81783	0.97774
2846.76093	0.97839
2844.70402	0.97878
2842.64711	0.97881
2840.59020	0.97870
2838.53329	0.97877
2836.47638	0.97911
2834.41948	0.97962
2832.36257	0.98006
2830.30566	0.98022
2828.24875	0.98019
2826.19184	0.97999
2824.13494	0.97989
2822.07803	0.98014
2820.02112	0.98031
2817.96421	0.98029
2815.90730	0.98033
2813.85039	0.98044
2811.79349	0.98052
2809.73658	0.98045
2807.67967	0.98041
2805.62276	0.98052
2803.56585	0.98051
2801.50895	0.98039
2799.45204	0.98054
2797.39513	0.98086
2795.33822	0.98111
2793.28131	0.98132
2791.22440	0.98159
2789.16750	0.98186
2787.11059	0.98165
2785.05368	0.98123
2782.99677	0.98106
2780.93986	0.98092
2778.88296	0.98090
2776.82605	0.98111
2774.76914	0.98106
2772.71223	0.98085
2770.65532	0.98098
2768.59841	0.98139
2766.54151	0.98181
2764.48460	0.98207
2762.42769	0.98218
2760.37078	0.98208
2758.31387	0.98180
2756.25697	0.98170
2754.20006	0.98204
2752.14315	0.98233
2750.08624	0.98226
2748.02933	0.98220
2745.97242	0.98206
2743.91552	0.98155
2741.85861	0.98119
2739.80170	0.98131
2737.74479	0.98165
2735.68788	0.98212
2733.63098	0.98240
2731.57407	0.98210
2729.51716	0.98165
2727.46025	0.98166
2725.40334	0.98184
2723.34643	0.98187
2721.28953	0.98188
2719.23262	0.98189
2717.17571	0.98202
2715.11880	0.98214
2713.06189	0.98201
2711.00499	0.98173
2708.94808	0.98156
2706.89117	0.98179
2704.83426	0.98210
2702.77735	0.98209
2700.72044	0.98219
2698.66354	0.98265
2696.60663	0.98289
2694.54972	0.98262
2692.49281	0.98229
2690.43590	0.98239
2688.37900	0.98275
2686.32209	0.98282
2684.26518	0.98249
2682.20827	0.98227
2680.15136	0.98244
2678.09445	0.98262
2676.03755	0.98267
2673.98064	0.98273
2671.92373	0.98251
2669.86682	0.98210
2667.80991	0.98205
2665.75301	0.98238
2663.69610	0.98261
2661.63919	0.98247
2659.58228	0.98213
2657.52537	0.98184
2655.46846	0.98179
2653.41156	0.98194
2651.35465	0.98215
2649.29774	0.98218
2647.24083	0.98179
2645.18392	0.98119
2643.12702	0.98118
2641.07011	0.98194
2639.01320	0.98244
2636.95629	0.98234
2634.89938	0.98224
2632.84247	0.98240
2630.78557	0.98267
2628.72866	0.98278
2626.67175	0.98255
2624.61484	0.98219
2622.55793	0.98218
2620.50103	0.98254
2618.44412	0.98279
2616.38721	0.98274
2614.33030	0.98261
2612.27339	0.98265
2610.21648	0.98280
2608.15958	0.98287
2606.10267	0.98283
2604.04576	0.98284
2601.98885	0.98303
2599.93194	0.98339
2597.87504	0.98354
2595.81813	0.98308
2593.76122	0.98265
2591.70431	0.98286
2589.64740	0.98333
2587.59049	0.98387
2585.53359	0.98430
2583.47668	0.98450
2581.41977	0.98447
2579.36286	0.98434
2577.30595	0.98446
2575.24905	0.98473
2573.19214	0.98477
2571.13523	0.98465
2569.07832	0.98484
2567.02141	0.98514
2564.96450	0.98469
2562.90760	0.98395
2560.85069	0.98391
2558.79378	0.98428
2556.73687	0.98432
2554.67996	0.98377
2552.62306	0.98325
2550.56615	0.98375
2548.50924	0.98505
2546.45233	0.98572
2544.39542	0.98520
2542.33851	0.98431
2540.28161	0.98398
2538.22470	0.98438
2536.16779	0.98479
2534.11088	0.98464
2532.05397	0.98440
2529.99707	0.98469
2527.94016	0.98519
2525.88325	0.98536
2523.82634	0.98522
2521.76943	0.98527
2519.71252	0.98542
2517.65562	0.98499
2515.59871	0.98428
2513.54180	0.98391
2511.48489	0.98392
2509.42798	0.98404
2507.37108	0.98438
2505.31417	0.98479
2503.25726	0.98481
2501.20035	0.98493
2499.14344	0.98535
2497.08653	0.98551
2495.02963	0.98566
2492.97272	0.98617
2490.91581	0.98634
2488.85890	0.98607
2486.80199	0.98564
2484.74509	0.98503
2482.68818	0.98464
2480.63127	0.98454
2478.57436	0.98487
2476.51745	0.98569
2474.46054	0.98610
2472.40364	0.98568
2470.34673	0.98544
2468.28982	0.98579
2466.23291	0.98575
2464.17600	0.98522
2462.11910	0.98502
2460.06219	0.98506
2458.00528	0.98487
2455.94837	0.98469
2453.89146	0.98450
2451.83455	0.98420
2449.77765	0.98387
2447.72074	0.98389
2445.66383	0.98426
2443.60692	0.98464
2441.55001	0.98510
2439.49311	0.98576
2437.43620	0.98653
2435.37929	0.98634
2433.32238	0.98532
2431.26547	0.98523
2429.20856	0.98550
2427.15166	0.98525
2425.09475	0.98498
2423.03784	0.98457
2420.98093	0.98423
2418.92402	0.98448
2416.86712	0.98500
2414.81021	0.98547
2412.75330	0.98560
2410.69639	0.98540
2408.63948	0.98563
2406.58257	0.98599
2404.52567	0.98537
2402.46876	0.98443
2400.41185	0.98431
2398.35494	0.98494
2396.29803	0.98549
2394.24113	0.98560
2392.18422	0.98555
2390.12731	0.98537
2388.07040	0.98495
2386.01349	0.98473
2383.95658	0.98503
2381.89968	0.98538
2379.84277	0.98542
2377.78586	0.98551
2375.72895	0.98570
2373.67204	0.98575
2371.61514	0.98575
2369.55823	0.98612
2367.50132	0.98619
2365.44441	0.98524
2363.38750	0.98431
2361.33059	0.98447
2359.27369	0.98565
2357.21678	0.98640
2355.15987	0.98615
2353.10296	0.98636
2351.04605	0.98713
2348.98915	0.98763
2346.93224	0.98756
2344.87533	0.98664
2342.81842	0.98544
2340.76151	0.98486
2338.70460	0.98477
2336.64770	0.98469
2334.59079	0.98483
2332.53388	0.98603
2330.47697	0.98716
2328.42006	0.98668
2326.36316	0.98551
2324.30625	0.98449
2322.24934	0.98383
2320.19243	0.98371
2318.13552	0.98366
2316.07861	0.98332
2314.02171	0.98350
2311.96480	0.98474
2309.90789	0.98585
2307.85098	0.98584
2305.79407	0.98514
2303.73717	0.98479
2301.68026	0.98521
2299.62335	0.98589
2297.56644	0.98616
2295.50953	0.98587
2293.45262	0.98540
2291.39572	0.98487
2289.33881	0.98418
2287.28190	0.98382
2285.22499	0.98377
2283.16808	0.98352
2281.11117	0.98338
2279.05427	0.98371
2276.99736	0.98370
2274.94045	0.98312
2272.88354	0.98281
2270.82663	0.98307
2268.76973	0.98408
2266.71282	0.98535
2264.65591	0.98527
2262.59900	0.98454
2260.54209	0.98493
2258.48518	0.98543
2256.42828	0.98491
2254.37137	0.98449
2252.31446	0.98564
2250.25755	0.98722
2248.20064	0.98673
2246.14374	0.98526
2244.08683	0.98492
2242.02992	0.98511
2239.97301	0.98522
2237.91610	0.98576
2235.85919	0.98642
2233.80229	0.98656
2231.74538	0.98677
2229.68847	0.98714
2227.63156	0.98685
2225.57465	0.98643
2223.51775	0.98652
2221.46084	0.98596
2219.40393	0.98493
2217.34702	0.98522
2215.29011	0.98613
2213.23320	0.98606
2211.17630	0.98561
2209.11939	0.98587
2207.06248	0.98676
2205.00557	0.98780
2202.94866	0.98838
2200.89176	0.98791
2198.83485	0.98712
2196.77794	0.98668
2194.72103	0.98629
2192.66412	0.98591
2190.60721	0.98540
2188.55031	0.98518
2186.49340	0.98599
2184.43649	0.98754
2182.37958	0.98863
2180.32267	0.98797
2178.26577	0.98635
2176.20886	0.98551
2174.15195	0.98522
2172.09504	0.98492
2170.03813	0.98529
2167.98122	0.98520
2165.92432	0.98394
2163.86741	0.98336
2161.81050	0.98412
2159.75359	0.98613
2157.69668	0.98758
2155.63978	0.98704
2153.58287	0.98691
2151.52596	0.98856
2149.46905	0.99024
2147.41214	0.99034
2145.35523	0.98950
2143.29833	0.98949
2141.24142	0.98992
2139.18451	0.98971
2137.12760	0.98938
2135.07069	0.98847
2133.01379	0.98780
2130.95688	0.98843
2128.89997	0.98846
2126.84306	0.98718
2124.78615	0.98643
2122.72924	0.98620
2120.67234	0.98578
2118.61543	0.98610
2116.55852	0.98647
2114.50161	0.98589
2112.44470	0.98537
2110.38780	0.98526
2108.33089	0.98513
2106.27398	0.98502
2104.21707	0.98536
2102.16016	0.98642
2100.10325	0.98722
2098.04635	0.98723
2095.98944	0.98740
2093.93253	0.98778
2091.87562	0.98780
2089.81871	0.98717
2087.76181	0.98619
2085.70490	0.98641
2083.64799	0.98764
2081.59108	0.98822
2079.53417	0.98824
2077.47726	0.98751
2075.42036	0.98627
2073.36345	0.98621
2071.30654	0.98690
2069.24963	0.98704
2067.19272	0.98717
2065.13582	0.98735
2063.07891	0.98650
2061.02200	0.98517
2058.96509	0.98447
2056.90818	0.98526
2054.85127	0.98731
2052.79437	0.98779
2050.73746	0.98690
2048.68055	0.98794
2046.62364	0.98946
2044.56673	0.98920
2042.50983	0.98925
2040.45292	0.99035
2038.39601	0.99039
2036.33910	0.98855
2034.28219	0.98718
2032.22528	0.98861
2030.16838	0.99137
2028.11147	0.99209
2026.05456	0.99101
2023.99765	0.99000
2021.94074	0.98853
2019.88384	0.98829
2017.82693	0.98969
2015.77002	0.98962
2013.71311	0.98898
2011.65620	0.99004
2009.59929	0.99159
2007.54239	0.99154
2005.48548	0.99071
2003.42857	0.99056
2001.37166	0.99014
1999.31475	0.98915
1997.25785	0.98867
1995.20094	0.98884
1993.14403	0.98902
1991.08712	0.98851
1989.03021	0.98744
1986.97330	0.98701
1984.91640	0.98760
1982.85949	0.98740
1980.80258	0.98604
1978.74567	0.98523
1976.68876	0.98492
1974.63186	0.98632
1972.57495	0.98970
1970.51804	0.99157
1968.46113	0.99062
1966.40422	0.98942
1964.34731	0.99004
1962.29041	0.99089
1960.23350	0.99114
1958.17659	0.99058
1956.11968	0.98906
1954.06277	0.98872
1952.00587	0.98913
1949.94896	0.98834
1947.89205	0.98763
1945.83514	0.98802
1943.77823	0.98855
1941.72132	0.98847
1939.66442	0.98832
1937.60751	0.98819
1935.55060	0.98769
1933.49369	0.98758
1931.43678	0.98805
1929.37988	0.98821
1927.32297	0.98788
1925.26606	0.98763
1923.20915	0.98769
1921.15224	0.98754
1919.09533	0.98737
1917.03843	0.98775
1914.98152	0.98833
1912.92461	0.98875
1910.86770	0.98894
1908.81079	0.98862
1906.75389	0.98819
1904.69698	0.98814
1902.64007	0.98849
1900.58316	0.98905
1898.52625	0.98895
1896.46934	0.98805
1894.41244	0.98772
1892.35553	0.98798
1890.29862	0.98757
1888.24171	0.98698
1886.18480	0.98702
1884.12790	0.98765
1882.07099	0.98824
1880.01408	0.98817
1877.95717	0.98804
1875.90026	0.98832
1873.84335	0.98846
1871.78645	0.98824
1869.72954	0.98836
1867.67263	0.98861
1865.61572	0.98827
1863.55881	0.98784
1861.50191	0.98774
1859.44500	0.98768
1857.38809	0.98790
1855.33118	0.98878
1853.27427	0.98961
1851.21736	0.98945
1849.16046	0.98850
1847.10355	0.98751
1845.04664	0.98716
1842.98973	0.98770
1840.93282	0.98811
1838.87592	0.98786
1836.81901	0.98762
1834.76210	0.98796
1832.70519	0.98812
1830.64828	0.98740
1828.59137	0.98649
1826.53447	0.98651
1824.47756	0.98712
1822.42065	0.98753
1820.36374	0.98753
1818.30683	0.98728
1816.24993	0.98726
1814.19302	0.98738
1812.13611	0.98697
1810.07920	0.98596
1808.02229	0.98523
1805.96538	0.98467
1803.90848	0.98421
1801.85157	0.98404
1799.79466	0.98355
1797.73775	0.98275
1795.68084	0.98216
1793.62394	0.98151
1791.56703	0.98047
1789.51012	0.97929
1787.45321	0.97789
1785.39630	0.97658
1783.33939	0.97545
1781.28249	0.97389
1779.22558	0.97154
1777.16867	0.96855
1775.11176	0.96478
1773.05485	0.95940
1770.99795	0.95192
1768.94104	0.94261
1766.88413	0.93115
1764.82722	0.91848
1762.77031	0.90304
1760.71340	0.88460
1758.65650	0.86806
1756.59959	0.85237
1754.54268	0.83861
1752.48577	0.82710
1750.42886	0.81445
1748.37196	0.80241
1746.31505	0.79334
1744.25814	0.78635
1742.20123	0.78150
1740.14432	0.77848
1738.08741	0.77753
1736.03051	0.77916
1733.97360	0.78247
1731.91669	0.78728
1729.85978	0.79366
1727.80287	0.80152
1725.74597	0.81057
1723.68906	0.82094
1721.63215	0.83168
1719.57524	0.84243
1717.51833	0.85498
1715.46142	0.86842
1713.40452	0.88001
1711.34761	0.89020
1709.29070	0.89953
1707.23379	0.90821
1705.17688	0.91626
1703.11998	0.92282
1701.06307	0.92899
1699.00616	0.93514
1696.94925	0.93976
1694.89234	0.94375
1692.83543	0.94663
1690.77853	0.94857
1688.72162	0.95036
1686.66471	0.95214
1684.60780	0.95378
1682.55089	0.95496
1680.49399	0.95630
1678.43708	0.95784
1676.38017	0.95932
1674.32326	0.96030
1672.26635	0.96063
1670.20944	0.96096
1668.15254	0.96162
1666.09563	0.96237
1664.03872	0.96294
1661.98181	0.96312
1659.92490	0.96299
1657.86800	0.96292
1655.81109	0.96288
1653.75418	0.96191
1651.69727	0.96019
1649.64036	0.95968
1647.58345	0.95936
1645.52655	0.95940
1643.46964	0.96013
1641.41273	0.96065
1639.35582	0.96094
1637.29891	0.96135
1635.24201	0.96180
1633.18510	0.96209
1631.12819	0.96252
1629.07128	0.96314
1627.01437	0.96369
1624.95746	0.96397
1622.90056	0.96418
1620.84365	0.96455
1618.78674	0.96526
1616.72983	0.96633
1614.67292	0.96698
1612.61602	0.96725
1610.55911	0.96783
1608.50220	0.96872
1606.44529	0.96962
1604.38838	0.97047
1602.33147	0.97119
1600.27457	0.97177
1598.21766	0.97233
1596.16075	0.97268
1594.10384	0.97276
1592.04693	0.97281
1589.99003	0.97296
1587.93312	0.97327
1585.87621	0.97366
1583.81930	0.97406
1581.76239	0.97456
1579.70548	0.97508
1577.64858	0.97544
1575.59167	0.97539
1573.53476	0.97532
1571.47785	0.97552
1569.42094	0.97580
1567.36404	0.97595
1565.30713	0.97598
1563.25022	0.97600
1561.19331	0.97605
1559.13640	0.97590
1557.07949	0.97581
1555.02259	0.97637
1552.96568	0.97698
1550.90877	0.97728
1548.85186	0.97740
1546.79495	0.97745
1544.73805	0.97766
1542.68114	0.97816
1540.62423	0.97848
1538.56732	0.97824
1536.51041	0.97816
1534.45350	0.97837
1532.39660	0.97867
1530.33969	0.97881
1528.28278	0.97890
1526.22587	0.97896
1524.16896	0.97916
1522.11206	0.97948
1520.05515	0.97920
1517.99824	0.97880
1515.94133	0.97875
1513.88442	0.97885
1511.82751	0.97916
1509.77061	0.97968
1507.71370	0.97978
1505.65679	0.97911
1503.59988	0.97878
1501.54297	0.97879
1499.48607	0.97889
1497.42916	0.97919
1495.37225	0.97943
1493.31534	0.97929
1491.25843	0.97913
1489.20152	0.97899
1487.14462	0.97851
1485.08771	0.97787
1483.03080	0.97741
1480.97389	0.97699
1478.91698	0.97657
1476.86008	0.97614
1474.80317	0.97536
1472.74626	0.97377
1470.68935	0.97187
1468.63244	0.97043
1466.57553	0.96893
1464.51863	0.96685
1462.46172	0.96484
1460.40481	0.96326
1458.34790	0.96124
1456.29099	0.95835
1454.23409	0.95623
1452.17718	0.95493
1450.12027	0.95364
1448.06336	0.95178
1446.00645	0.94946
1443.94954	0.94761
1441.89264	0.94629
1439.83573	0.94514
1437.77882	0.94344
1435.72191	0.94114
1433.66500	0.94014
1431.60810	0.94041
1429.55119	0.94106
1427.49428	0.94201
1425.43737	0.94329
1423.38046	0.94474
1421.32355	0.94607
1419.26665	0.94713
1417.20974	0.94792
1415.15283	0.94868
1413.09592	0.94947
1411.03901	0.95018
1408.98211	0.95085
1406.92520	0.95141
1404.86829	0.95158
1402.81138	0.95148
1400.75447	0.95136
1398.69756	0.95055
1396.64066	0.94855
1394.58375	0.94534
1392.52684	0.94106
1390.46993	0.93605
1388.41302	0.92949
1386.35612	0.92094
1384.29921	0.91212
1382.24230	0.90341
1380.18539	0.89446
1378.12848	0.88606
1376.07157	0.87822
1374.01467	0.87026
1371.95776	0.86397
1369.90085	0.86100
1367.84394	0.86120
1365.78703	0.86502
1363.73013	0.87319
1361.67322	0.88559
1359.61631	0.89948
1357.55940	0.91267
1355.50249	0.92413
1353.44558	0.93296
1351.38868	0.93936
1349.33177	0.94393
1347.27486	0.94694
1345.21795	0.94874
1343.16104	0.94983
1341.10414	0.95058
1339.04723	0.95120
1336.99032	0.95164
1334.93341	0.95171
1332.87650	0.95151
1330.81959	0.95102
1328.76269	0.95004
1326.70578	0.94906
1324.64887	0.94859
1322.59196	0.94839
1320.53505	0.94824
1318.47815	0.94817
1316.42124	0.94846
1314.36433	0.94906
1312.30742	0.94954
1310.25051	0.94961
1308.19360	0.94931
1306.13670	0.94903
1304.07979	0.94906
1302.02288	0.94912
1299.96597	0.94852
1297.90906	0.94709
1295.85216	0.94530
1293.79525	0.94349
1291.73834	0.94145
1289.68143	0.93888
1287.62452	0.93608
1285.56761	0.93323
1283.51071	0.93006
1281.45380	0.92631
1279.39689	0.92180
1277.33998	0.91669
1275.28307	0.91122
1273.22617	0.90543
1271.16926	0.89931
1269.11235	0.89288
1267.05544	0.88606
1264.99853	0.87840
1262.94162	0.86973
1260.88472	0.86039
1258.82781	0.85063
1256.77090	0.84053
1254.71399	0.83010
1252.65708	0.81940
1250.60018	0.80851
1248.54327	0.79750
1246.48636	0.78633
1244.42945	0.77503
1242.37254	0.76374
1240.31563	0.75252
1238.25873	0.74154
1236.20182	0.73106
1234.14491	0.72129
1232.08800	0.71243
1230.03109	0.70480
1227.97419	0.69891
1225.91728	0.69516
1223.86037	0.69356
1221.80346	0.69422
1219.74655	0.69742
1217.68964	0.70346
1215.63274	0.71223
1213.57583	0.72347
1211.51892	0.73714
1209.46201	0.75310
1207.40510	0.77092
1205.34820	0.78993
1203.29129	0.80929
1201.23438	0.82804
1199.17747	0.84515
1197.12056	0.86002
1195.06365	0.87261
1193.00675	0.88285
1190.94984	0.89060
1188.89293	0.89603
1186.83602	0.89930
1184.77911	0.90051
1182.72221	0.90025
1180.66530	0.89918
1178.60839	0.89741
1176.55148	0.89473
1174.49457	0.89140
1172.43766	0.88821
1170.38076	0.88552
1168.32385	0.88312
1166.26694	0.88112
1164.21003	0.88010
1162.15312	0.88030
1160.09622	0.88158
1158.03931	0.88362
1155.98240	0.88621
1153.92549	0.88911
1151.86858	0.89187
1149.81167	0.89426
1147.75477	0.89625
1145.69786	0.89769
1143.64095	0.89805
1141.58404	0.89702
1139.52713	0.89510
1137.47023	0.89276
1135.41332	0.89008
1133.35641	0.88684
1131.29950	0.88312
1129.24259	0.87960
1127.18568	0.87663
1125.12878	0.87410
1123.07187	0.87201
1121.01496	0.87051
1118.95805	0.86964
1116.90114	0.86881
1114.84424	0.86772
1112.78733	0.86674
1110.73042	0.86586
1108.67351	0.86478
1106.61660	0.86333
1104.55969	0.86155
1102.50279	0.85943
1100.44588	0.85680
1098.38897	0.85347
1096.33206	0.84912
1094.27515	0.84406
1092.21825	0.83860
1090.16134	0.83236
1088.10443	0.82548
1086.04752	0.81869
1083.99061	0.81200
1081.93370	0.80506
1079.87680	0.79783
1077.81989	0.79063
1075.76298	0.78396
1073.70607	0.77787
1071.64916	0.77207
1069.59226	0.76649
1067.53535	0.76090
1065.47844	0.75518
1063.42153	0.74952
1061.36462	0.74391
1059.30771	0.73812
1057.25081	0.73215
1055.19390	0.72619
1053.13699	0.72019
1051.08008	0.71387
1049.02317	0.70742
1046.96627	0.70141
1044.90936	0.69603
1042.85245	0.69093
1040.79554	0.68609
1038.73863	0.68207
1036.68172	0.67873
1034.62482	0.67599
1032.56791	0.67467
1030.51100	0.67550
1028.45409	0.67893
1026.39718	0.68505
1024.34028	0.69302
1022.28337	0.70188
1020.22646	0.71162
1018.16955	0.72222
1016.11264	0.73284
1014.05573	0.74315
1011.99883	0.75327
1009.94192	0.76295
1007.88501	0.77211
1005.82810	0.78095
1003.77119	0.78946
1001.71429	0.79758
999.65738	0.80522
997.60047	0.81235
995.54356	0.81853
993.48665	0.82353
991.42974	0.82844
989.37284	0.83343
987.31593	0.83758
985.25902	0.84097
983.20211	0.84398
981.14520	0.84706
979.08830	0.85103
977.03139	0.85575
974.97448	0.86064
972.91757	0.86585
970.86066	0.87120
968.80375	0.87625
966.74685	0.88120
964.68994	0.88615
962.63303	0.89024
960.57612	0.89321
958.51921	0.89573
956.46231	0.89795
954.40540	0.89963
952.34849	0.90105
950.29158	0.90277
948.23467	0.90469
946.17776	0.90637
944.12086	0.90788
942.06395	0.90954
940.00704	0.91093
937.95013	0.91156
935.89322	0.91190
933.83632	0.91218
931.77941	0.91208
929.72250	0.91136
927.66559	0.91006
925.60868	0.90827
923.55177	0.90660
921.49487	0.90541
919.43796	0.90422
917.38105	0.90282
915.32414	0.90136
913.26723	0.89962
911.21033	0.89772
909.15342	0.89620
907.09651	0.89468
905.03960	0.89322
902.98269	0.89279
900.92578	0.89345
898.86888	0.89456
896.81197	0.89602
894.75506	0.89779
892.69815	0.89951
890.64124	0.90126
888.58434	0.90341
886.52743	0.90598
884.47052	0.90848
882.41361	0.91097
880.35670	0.91394
878.29979	0.91728
876.24289	0.92072
874.18598	0.92420
872.12907	0.92738
870.07216	0.92989
868.01525	0.93196
865.95835	0.93428
863.90144	0.93697
861.84453	0.93933
859.78762	0.94097
857.73071	0.94221
855.67380	0.94285
853.61690	0.94248
851.55999	0.94170
849.50308	0.94107
847.44617	0.94025
845.38926	0.93938
843.33236	0.93899
841.27545	0.93896
839.21854	0.93898
837.16163	0.93923
835.10472	0.94017
833.04781	0.94171
830.99091	0.94323
828.93400	0.94461
826.87709	0.94600
824.82018	0.94711
822.76327	0.94797
820.70637	0.94912
818.64946	0.95027
816.59255	0.95084
814.53564	0.95149
812.47873	0.95235
810.42182	0.95295
808.36492	0.95364
806.30801	0.95453
804.25110	0.95517
802.19419	0.95534
800.13728	0.95526
798.08038	0.95522
796.02347	0.95548
793.96656	0.95588
791.90965	0.95594
789.85274	0.95608
787.79583	0.95650
785.73893	0.95636
783.68202	0.95582
781.62511	0.95580
779.56820	0.95615
777.51129	0.95640
775.45439	0.95656
773.39748	0.95662
771.34057	0.95655
769.28366	0.95660
767.22675	0.95702
765.16984	0.95754
763.11294	0.95785
761.05603	0.95789
758.99912	0.95818
756.94221	0.95923
754.88530	0.95996
752.82839	0.95923
750.77149	0.95788
748.71458	0.95709
746.65767	0.95710
744.60076	0.95773
742.54385	0.95849
740.48695	0.95898
738.43004	0.95878
736.37313	0.95785
734.31622	0.95680
732.25931	0.95560
730.20240	0.95438
728.14550	0.95379
726.08859	0.95369
724.03168	0.95334
721.97477	0.95254
719.91786	0.95162
717.86096	0.95071
715.80405	0.94984
713.74714	0.94917
711.69023	0.94866
709.63332	0.94829
707.57641	0.94809
705.51951	0.94734
703.46260	0.94554
701.40569	0.94393
699.34878	0.94320
697.29187	0.94235
695.23497	0.94139
693.17806	0.94069
691.12115	0.93971
689.06424	0.93871
687.00733	0.93815
684.95042	0.93780
682.89352	0.93755
680.83661	0.93763
678.77970	0.93784
676.72279	0.93773
674.66588	0.93759
672.60898	0.93781
670.55207	0.93787
668.49516	0.93713
666.43825	0.93685
664.38134	0.93745
662.32443	0.93722
660.26753	0.93595
658.21062	0.93475
656.15371	0.93361
654.09680	0.93237
652.03989	0.93076
649.98299	0.92841
647.92608	0.92598
645.86917	0.92413
643.81226	0.92279
641.75535	0.92135
639.69844	0.91979
637.64154	0.91847
635.58463	0.91732
633.52772	0.91618
631.47081	0.91504
629.41390	0.91383
627.35700	0.91231
625.30009	0.91043
623.24318	0.90843
621.18627	0.90686
619.12936	0.90506
617.07245	0.90218
615.01555	0.89912
612.95864	0.89543
610.90173	0.88999
608.84482	0.88344
606.78791	0.87735
604.73101	0.87283
602.67410	0.87019
600.61719	0.87018
598.56028	0.87313
596.50337	0.87845
594.44646	0.88516
592.38956	0.89166
590.33265	0.89683
588.27574	0.90091
586.21883	0.90400
584.16192	0.90595
582.10502	0.90747
580.04811	0.90877
577.99120	0.90945
575.93429	0.90996
573.87738	0.90987
571.82047	0.90802
569.76357	0.90567
567.70666	0.90460
565.64975	0.90382
563.59284	0.90238
561.53593	0.90106
559.47903	0.90060
557.42212	0.90118
555.36521	0.90255
553.30830	0.90379
551.25139	0.90488
549.19448	0.90569
547.13758	0.90579
545.08067	0.90676
543.02376	0.90843
540.96685	0.90850
538.90994	0.90740
536.85304	0.90693
534.79613	0.90661
532.73922	0.90571
530.68231	0.90510
528.62540	0.90501
526.56849	0.90432
524.51159	0.90272
522.45468	0.90115
520.39777	0.89946
518.34086	0.89759
516.28395	0.89739
514.22705	0.89881
512.17014	0.89957
510.11323	0.90027
508.05632	0.90141
505.99941	0.90087
503.94250	0.89880
501.88560	0.89604
499.82869	0.89327
497.77178	0.89200
495.71487	0.89238
493.65796	0.89368
491.60106	0.89384
489.54415	0.89126
487.48724	0.88827
485.43033	0.88727
483.37342	0.88909
481.31651	0.89226
479.25961	0.89335
477.20270	0.89227
475.14579	0.89082
473.08888	0.88899
471.03197	0.88720
468.97507	0.88585
466.91816	0.88401
464.86125	0.88184
462.80434	0.87962
460.74743	0.87855
458.69052	0.87986
456.63362	0.88074
454.57671	0.87913
452.51980	0.87713
450.46289	0.87722
448.40598	0.87963
446.34908	0.88214
444.29217	0.88294
442.23526	0.88179
440.17835	0.87972
438.12144	0.87969
436.06453	0.88150
434.00763	0.88186
431.95072	0.88226
429.89381	0.88416
427.83690	0.88553
425.77999	0.88594
423.72309	0.88532
421.66618	0.88503
419.60927	0.88821
417.55236	0.89227
415.49545	0.89265
413.43854	0.89304
411.38164	0.89526
409.32473	0.89626
407.26782	0.89503
405.21091	0.89174
403.15400	0.88491
401.09710	0.87517
399.04019	0.86377
