3996.57260	0.99398
3994.51569	0.99378
3992.45878	0.99382
3990.40188	0.99439
3988.34497	0.99502
3986.28806	0.99517
3984.23115	0.99448
3982.17424	0.99329
3980.11733	0.99245
3978.06043	0.99240
3976.00352	0.99261
3973.94661	0.99277
3971.88970	0.99308
3969.83279	0.99317
3967.77589	0.99297
3965.71898	0.99305
3963.66207	0.99325
3961.60516	0.99336
3959.54825	0.99348
3957.49134	0.99353
3955.43444	0.99389
3953.37753	0.99472
3951.32062	0.99502
3949.26371	0.99427
3947.20680	0.99361
3945.14990	0.99394
3943.09299	0.99461
3941.03608	0.99466
3938.97917	0.99396
3936.92226	0.99307
3934.86535	0.99247
3932.80845	0.99215
3930.75154	0.99214
3928.69463	0.99258
3926.63772	0.99308
3924.58081	0.99319
3922.52391	0.99342
3920.46700	0.99382
3918.41009	0.99364
3916.35318	0.99311
3914.29627	0.99302
3912.23936	0.99355
3910.18246	0.99418
3908.12555	0.99429
3906.06864	0.99456
3904.01173	0.99537
3901.95482	0.99498
3899.89792	0.99337
3897.84101	0.99254
3895.78410	0.99271
3893.72719	0.99345
3891.67028	0.99415
3889.61337	0.99394
3887.55647	0.99325
3885.49956	0.99284
3883.44265	0.99329
3881.38574	0.99405
3879.32883	0.99394
3877.27193	0.99325
3875.21502	0.99324
3873.15811	0.99392
3871.10120	0.99425
3869.04429	0.99395
3866.98738	0.99365
3864.93048	0.99375
3862.87357	0.99389
3860.81666	0.99351
3858.75975	0.99295
3856.70284	0.99271
3854.64594	0.99281
3852.58903	0.99339
3850.53212	0.99400
3848.47521	0.99388
3846.41830	0.99345
3844.36139	0.99333
3842.30449	0.99316
3840.24758	0.99284
3838.19067	0.99301
3836.13376	0.99324
3834.07685	0.99340
3832.01995	0.99385
3829.96304	0.99418
3827.90613	0.99428
3825.84922	0.99421
3823.79231	0.99399
3821.73540	0.99393
3819.67850	0.99402
3817.62159	0.99434
3815.56468	0.99478
3813.50777	0.99463
3811.45086	0.99406
3809.39396	0.99338
3807.33705	0.99333
3805.28014	0.99406
3803.22323	0.99438
3801.16632	0.99462
3799.10941	0.99452
3797.05251	0.99383
3794.99560	0.99383
3792.93869	0.99426
3790.88178	0.99406
3788.82487	0.99359
3786.76796	0.99320
3784.71106	0.99296
3782.65415	0.99350
3780.59724	0.99444
3778.54033	0.99447
3776.48342	0.99403
3774.42652	0.99428
3772.36961	0.99464
3770.31270	0.99452
3768.25579	0.99417
3766.19888	0.99387
3764.14197	0.99386
3762.08507	0.99375
3760.02816	0.99338
3757.97125	0.99364
3755.91434	0.99394
3753.85743	0.99324
3751.80053	0.99222
3749.74362	0.99229
3747.68671	0.99364
3745.62980	0.99474
3743.57289	0.99389
3741.51598	0.99270
3739.45908	0.99260
3737.40217	0.99305
3735.34526	0.99358
3733.28835	0.99385
3731.23144	0.99398
3729.17454	0.99368
3727.11763	0.99333
3725.06072	0.99390
3723.00381	0.99435
3720.94690	0.99342
3718.88999	0.99253
3716.83309	0.99280
3714.77618	0.99357
3712.71927	0.99416
3710.66236	0.99391
3708.60545	0.99365
3706.54855	0.99431
3704.49164	0.99459
3702.43473	0.99413
3700.37782	0.99410
3698.32091	0.99437
3696.26400	0.99446
3694.20710	0.99439
3692.15019	0.99413
3690.09328	0.99406
3688.03637	0.99394
3685.97946	0.99365
3683.92256	0.99383
3681.86565	0.99417
3679.80874	0.99413
3677.75183	0.99342
3675.69492	0.99236
3673.63801	0.99217
3671.58111	0.99268
3669.52420	0.99307
3667.46729	0.99289
3665.41038	0.99244
3663.35347	0.99202
3661.29657	0.99191
3659.23966	0.99185
3657.18275	0.99159
3655.12584	0.99172
3653.06893	0.99175
3651.01202	0.99142
3648.95512	0.99197
3646.89821	0.99239
3644.84130	0.99162
3642.78439	0.99073
3640.72748	0.99064
3638.67058	0.99141
3636.61367	0.99167
3634.55676	0.99082
3632.49985	0.98976
3630.44294	0.98892
3628.38603	0.98865
3626.32913	0.98953
3624.27222	0.98996
3622.21531	0.98941
3620.15840	0.98933
3618.10149	0.99004
3616.04459	0.99003
3613.98768	0.98940
3611.93077	0.98862
3609.87386	0.98780
3607.81695	0.98766
3605.76004	0.98800
3603.70314	0.98762
3601.64623	0.98610
3599.58932	0.98467
3597.53241	0.98477
3595.47550	0.98556
3593.41860	0.98583
3591.36169	0.98567
3589.30478	0.98525
3587.24787	0.98480
3585.19096	0.98467
3583.13405	0.98457
3581.07715	0.98425
3579.02024	0.98387
3576.96333	0.98370
3574.90642	0.98362
3572.84951	0.98286
3570.79261	0.98155
3568.73570	0.98074
3566.67879	0.98055
3564.62188	0.98036
3562.56497	0.98003
3560.50806	0.97977
3558.45116	0.97945
3556.39425	0.97903
3554.33734	0.97876
3552.28043	0.97842
3550.22352	0.97799
3548.16662	0.97774
3546.10971	0.97724
3544.05280	0.97609
3541.99589	0.97478
3539.93898	0.97428
3537.88207	0.97473
3535.82517	0.97482
3533.76826	0.97409
3531.71135	0.97350
3529.65444	0.97310
3527.59753	0.97266
3525.54063	0.97257
3523.48372	0.97271
3521.42681	0.97218
3519.36990	0.97107
3517.31299	0.97056
3515.25608	0.97029
3513.19918	0.96951
3511.14227	0.96905
3509.08536	0.96928
3507.02845	0.96925
3504.97154	0.96885
3502.91464	0.96874
3500.85773	0.96855
3498.80082	0.96782
3496.74391	0.96715
3494.68700	0.96676
3492.63009	0.96652
3490.57319	0.96638
3488.51628	0.96620
3486.45937	0.96610
3484.40246	0.96623
3482.34555	0.96616
3480.28865	0.96592
3478.23174	0.96606
3476.17483	0.96612
3474.11792	0.96573
3472.06101	0.96537
3470.00410	0.96519
3467.94720	0.96507
3465.89029	0.96489
3463.83338	0.96482
3461.77647	0.96498
3459.71956	0.96519
3457.66266	0.96511
3455.60575	0.96465
3453.54884	0.96445
3451.49193	0.96505
3449.43502	0.96576
3447.37811	0.96554
3445.32121	0.96503
3443.26430	0.96533
3441.20739	0.96593
3439.15048	0.96626
3437.09357	0.96662
3435.03667	0.96688
3432.97976	0.96697
3430.92285	0.96716
3428.86594	0.96707
3426.80903	0.96650
3424.75212	0.96608
3422.69522	0.96634
3420.63831	0.96736
3418.58140	0.96845
3416.52449	0.96870
3414.46758	0.96857
3412.41068	0.96865
3410.35377	0.96893
3408.29686	0.96950
3406.23995	0.96980
3404.18304	0.96937
3402.12613	0.96900
3400.06923	0.96917
3398.01232	0.96926
3395.95541	0.96910
3393.89850	0.96930
3391.84159	0.96989
3389.78469	0.97044
3387.72778	0.97071
3385.67087	0.97072
3383.61396	0.97062
3381.55705	0.97053
3379.50014	0.97083
3377.44324	0.97136
3375.38633	0.97173
3373.32942	0.97191
3371.27251	0.97169
3369.21560	0.97147
3367.15870	0.97148
3365.10179	0.97166
3363.04488	0.97208
3360.98797	0.97274
3358.93106	0.97330
3356.87415	0.97316
3354.81725	0.97273
3352.76034	0.97287
3350.70343	0.97334
3348.64652	0.97381
3346.58961	0.97430
3344.53271	0.97470
3342.47580	0.97472
3340.41889	0.97420
3338.36198	0.97406
3336.30507	0.97467
3334.24816	0.97518
3332.19126	0.97542
3330.13435	0.97536
3328.07744	0.97500
3326.02053	0.97463
3323.96362	0.97468
3321.90672	0.97566
3319.84981	0.97693
3317.79290	0.97761
3315.73599	0.97820
3313.67908	0.97895
3311.62217	0.97916
3309.56527	0.97873
3307.50836	0.97823
3305.45145	0.97797
3303.39454	0.97802
3301.33763	0.97850
3299.28073	0.97901
3297.22382	0.97909
3295.16691	0.97925
3293.11000	0.97930
3291.05309	0.97892
3288.99618	0.97888
3286.93928	0.97904
3284.88237	0.97912
3282.82546	0.97954
3280.76855	0.97989
3278.71164	0.97976
3276.65474	0.97948
3274.59783	0.97936
3272.54092	0.97960
3270.48401	0.98015
3268.42710	0.98054
3266.37019	0.98065
3264.31329	0.98125
3262.25638	0.98235
3260.19947	0.98256
3258.14256	0.98167
3256.08565	0.98129
3254.02875	0.98192
3251.97184	0.98273
3249.91493	0.98330
3247.85802	0.98352
3245.80111	0.98312
3243.74420	0.98244
3241.68730	0.98259
3239.63039	0.98358
3237.57348	0.98409
3235.51657	0.98377
3233.45966	0.98342
3231.40276	0.98344
3229.34585	0.98374
3227.28894	0.98423
3225.23203	0.98468
3223.17512	0.98519
3221.11821	0.98549
3219.06131	0.98483
3217.00440	0.98410
3214.94749	0.98441
3212.89058	0.98505
3210.83367	0.98538
3208.77677	0.98561
3206.71986	0.98589
3204.66295	0.98623
3202.60604	0.98649
3200.54913	0.98625
3198.49222	0.98572
3196.43532	0.98572
3194.37841	0.98618
3192.32150	0.98648
3190.26459	0.98664
3188.20768	0.98700
3186.15078	0.98743
3184.09387	0.98755
3182.03696	0.98748
3179.98005	0.98760
3177.92314	0.98788
3175.86623	0.98778
3173.80933	0.98754
3171.75242	0.98770
3169.69551	0.98800
3167.63860	0.98802
3165.58169	0.98768
3163.52479	0.98729
3161.46788	0.98712
3159.41097	0.98731
3157.35406	0.98774
3155.29715	0.98794
3153.24024	0.98779
3151.18334	0.98761
3149.12643	0.98748
3147.06952	0.98738
3145.01261	0.98732
3142.95570	0.98752
3140.89880	0.98822
3138.84189	0.98869
3136.78498	0.98840
3134.72807	0.98822
3132.67116	0.98867
3130.61425	0.98923
3128.55735	0.98940
3126.50044	0.98935
3124.44353	0.98936
3122.38662	0.98921
3120.32971	0.98915
3118.27281	0.98945
3116.21590	0.98971
3114.15899	0.99002
3112.10208	0.99005
3110.04517	0.98947
3107.98826	0.98924
3105.93136	0.98957
3103.87445	0.98958
3101.81754	0.98928
3099.76063	0.98912
3097.70372	0.98899
3095.64682	0.98885
3093.58991	0.98894
3091.53300	0.98957
3089.47609	0.99040
3087.41918	0.99040
3085.36227	0.98963
3083.30537	0.98927
3081.24846	0.98950
3079.19155	0.98960
3077.13464	0.98957
3075.07773	0.98979
3073.02083	0.99025
3070.96392	0.99057
3068.90701	0.99048
3066.85010	0.99014
3064.79319	0.99005
3062.73628	0.99007
3060.67938	0.98994
3058.62247	0.99007
3056.56556	0.99030
3054.50865	0.99020
3052.45174	0.98995
3050.39484	0.98989
3048.33793	0.99025
3046.28102	0.99057
3044.22411	0.99047
3042.16720	0.99036
3040.11029	0.99042
3038.05339	0.99049
3035.99648	0.99020
3033.93957	0.98963
3031.88266	0.98943
3029.82575	0.98954
3027.76885	0.98978
3025.71194	0.99011
3023.65503	0.99020
3021.59812	0.99024
3019.54121	0.99045
3017.48430	0.99062
3015.42740	0.99076
3013.37049	0.99080
3011.31358	0.99066
3009.25667	0.99028
3007.19976	0.98970
3005.14286	0.98900
3003.08595	0.98840
3001.02904	0.98831
2998.97213	0.98851
2996.91522	0.98866
2994.85831	0.98881
2992.80141	0.98885
2990.74450	0.98882
2988.68759	0.98884
2986.63068	0.98870
2984.57377	0.98841
2982.51687	0.98820
2980.45996	0.98789
2978.40305	0.98733
2976.34614	0.98684
2974.28923	0.98661
2972.23232	0.98639
2970.17542	0.98593
2968.11851	0.98546
2966.06160	0.98524
2964.00469	0.98523
2961.94778	0.98509
2959.89088	0.98460
2957.83397	0.98384
2955.77706	0.98315
2953.72015	0.98271
2951.66324	0.98242
2949.60633	0.98225
2947.54943	0.98205
2945.49252	0.98182
2943.43561	0.98187
2941.37870	0.98186
2939.32179	0.98152
2937.26489	0.98129
2935.20798	0.98113
2933.15107	0.98099
2931.09416	0.98137
2929.03725	0.98187
2926.98034	0.98168
2924.92344	0.98133
2922.86653	0.98139
2920.80962	0.98146
2918.75271	0.98159
2916.69580	0.98178
2914.63890	0.98165
2912.58199	0.98141
2910.52508	0.98123
2908.46817	0.98101
2906.41126	0.98101
2904.35435	0.98109
2902.29745	0.98091
2900.24054	0.98072
2898.18363	0.98078
2896.12672	0.98071
2894.06981	0.98037
2892.01291	0.98040
2889.95600	0.98068
2887.89909	0.98069
2885.84218	0.98071
2883.78527	0.98087
2881.72836	0.98073
2879.67146	0.98064
2877.61455	0.98132
2875.55764	0.98233
2873.50073	0.98282
2871.44382	0.98256
2869.38692	0.98216
2867.33001	0.98241
2865.27310	0.98324
2863.21619	0.98409
2861.15928	0.98466
2859.10237	0.98504
2857.04547	0.98543
2854.98856	0.98585
2852.93165	0.98636
2850.87474	0.98696
2848.81783	0.98740
2846.76093	0.98750
2844.70402	0.98734
2842.64711	0.98738
2840.59020	0.98801
2838.53329	0.98887
2836.47638	0.98929
2834.41948	0.98926
2832.36257	0.98912
2830.30566	0.98911
2828.24875	0.98917
2826.19184	0.98900
2824.13494	0.98889
2822.07803	0.98911
2820.02112	0.98932
2817.96421	0.98955
2815.90730	0.98995
2813.85039	0.99016
2811.79349	0.99005
2809.73658	0.98990
2807.67967	0.98994
2805.62276	0.99014
2803.56585	0.99012
2801.50895	0.98997
2799.45204	0.99008
2797.39513	0.99040
2795.33822	0.99060
2793.28131	0.99054
2791.22440	0.99049
2789.16750	0.99077
2787.11059	0.99107
2785.05368	0.99079
2782.99677	0.99027
2780.93986	0.99028
2778.88296	0.99057
2776.82605	0.99079
2774.76914	0.99111
2772.71223	0.99144
2770.65532	0.99140
2768.59841	0.99123
2766.54151	0.99128
2764.48460	0.99138
2762.42769	0.99136
2760.37078	0.99117
2758.31387	0.99112
2756.25697	0.99157
2754.20006	0.99190
2752.14315	0.99163
2750.08624	0.99119
2748.02933	0.99093
2745.97242	0.99101
2743.91552	0.99123
2741.85861	0.99129
2739.80170	0.99128
2737.74479	0.99119
2735.68788	0.99117
2733.63098	0.99146
2731.57407	0.99150
2729.51716	0.99112
2727.46025	0.99118
2725.40334	0.99162
2723.34643	0.99169
2721.28953	0.99143
2719.23262	0.99138
2717.17571	0.99158
2715.11880	0.99169
2713.06189	0.99164
2711.00499	0.99162
2708.94808	0.99169
2706.89117	0.99166
2704.83426	0.99145
2702.77735	0.99135
2700.72044	0.99156
2698.66354	0.99172
2696.60663	0.99143
2694.54972	0.99112
2692.49281	0.99123
2690.43590	0.99149
2688.37900	0.99175
2686.32209	0.99189
2684.26518	0.99187
2682.20827	0.99174
2680.15136	0.99153
2678.09445	0.99142
2676.03755	0.99143
2673.98064	0.99150
2671.92373	0.99171
2669.86682	0.99183
2667.80991	0.99179
2665.75301	0.99179
2663.69610	0.99171
2661.63919	0.99127
2659.58228	0.99101
2657.52537	0.99135
2655.46846	0.99169
2653.41156	0.99182
2651.35465	0.99174
2649.29774	0.99146
2647.24083	0.99150
2645.18392	0.99191
2643.12702	0.99207
2641.07011	0.99195
2639.01320	0.99195
2636.95629	0.99228
2634.89938	0.99267
2632.84247	0.99250
2630.78557	0.99194
2628.72866	0.99173
2626.67175	0.99173
2624.61484	0.99178
2622.55793	0.99214
2620.50103	0.99247
2618.44412	0.99227
2616.38721	0.99178
2614.33030	0.99157
2612.27339	0.99179
2610.21648	0.99211
2608.15958	0.99234
2606.10267	0.99271
2604.04576	0.99305
2601.98885	0.99293
2599.93194	0.99258
2597.87504	0.99264
2595.81813	0.99310
2593.76122	0.99321
2591.70431	0.99281
2589.64740	0.99235
2587.59049	0.99234
2585.53359	0.99272
2583.47668	0.99309
2581.41977	0.99321
2579.36286	0.99304
2577.30595	0.99287
2575.24905	0.99284
2573.19214	0.99296
2571.13523	0.99321
2569.07832	0.99319
2567.02141	0.99267
2564.96450	0.99220
2562.90760	0.99246
2560.85069	0.99330
2558.79378	0.99411
2556.73687	0.99431
2554.67996	0.99403
2552.62306	0.99385
2550.56615	0.99350
2548.50924	0.99272
2546.45233	0.99248
2544.39542	0.99296
2542.33851	0.99324
2540.28161	0.99316
2538.22470	0.99296
2536.16779	0.99277
2534.11088	0.99291
2532.05397	0.99346
2529.99707	0.99361
2527.94016	0.99290
2525.88325	0.99211
2523.82634	0.99209
2521.76943	0.99228
2519.71252	0.99211
2517.65562	0.99203
2515.59871	0.99230
2513.54180	0.99274
2511.48489	0.99292
2509.42798	0.99279
2507.37108	0.99307
2505.31417	0.99348
2503.25726	0.99322
2501.20035	0.99306
2499.14344	0.99352
2497.08653	0.99380
2495.02963	0.99354
2492.97272	0.99318
2490.91581	0.99312
2488.85890	0.99304
2486.80199	0.99294
2484.74509	0.99313
2482.68818	0.99311
2480.63127	0.99271
2478.57436	0.99279
2476.51745	0.99342
2474.46054	0.99383
2472.40364	0.99376
2470.34673	0.99350
2468.28982	0.99336
2466.23291	0.99329
2464.17600	0.99310
2462.11910	0.99284
2460.06219	0.99257
2458.00528	0.99256
2455.94837	0.99313
2453.89146	0.99365
2451.83455	0.99356
2449.77765	0.99336
2447.72074	0.99331
2445.66383	0.99324
2443.60692	0.99302
2441.55001	0.99334
2439.49311	0.99396
2437.43620	0.99391
2435.37929	0.99353
2433.32238	0.99314
2431.26547	0.99276
2429.20856	0.99291
2427.15166	0.99351
2425.09475	0.99382
2423.03784	0.99360
2420.98093	0.99329
2418.92402	0.99354
2416.86712	0.99424
2414.81021	0.99446
2412.75330	0.99424
2410.69639	0.99405
2408.63948	0.99389
2406.58257	0.99383
2404.52567	0.99387
2402.46876	0.99400
2400.41185	0.99411
2398.35494	0.99384
2396.29803	0.99350
2394.24113	0.99362
2392.18422	0.99403
2390.12731	0.99461
2388.07040	0.99487
2386.01349	0.99431
2383.95658	0.99353
2381.89968	0.99324
2379.84277	0.99333
2377.78586	0.99351
2375.72895	0.99377
2373.67204	0.99423
2371.61514	0.99469
2369.55823	0.99437
2367.50132	0.99342
2365.44441	0.99343
2363.38750	0.99451
2361.33059	0.99514
2359.27369	0.99492
2357.21678	0.99443
2355.15987	0.99371
2353.10296	0.99318
2351.04605	0.99322
2348.98915	0.99322
2346.93224	0.99302
2344.87533	0.99278
2342.81842	0.99219
2340.76151	0.99185
2338.70460	0.99265
2336.64770	0.99350
2334.59079	0.99361
2332.53388	0.99388
2330.47697	0.99441
2328.42006	0.99435
2326.36316	0.99333
2324.30625	0.99217
2322.24934	0.99168
2320.19243	0.99166
2318.13552	0.99202
2316.07861	0.99259
2314.02171	0.99299
2311.96480	0.99311
2309.90789	0.99322
2307.85098	0.99376
2305.79407	0.99444
2303.73717	0.99470
2301.68026	0.99452
2299.62335	0.99421
2297.56644	0.99383
2295.50953	0.99295
2293.45262	0.99195
2291.39572	0.99211
2289.33881	0.99299
2287.28190	0.99333
2285.22499	0.99352
2283.16808	0.99381
2281.11117	0.99349
2279.05427	0.99278
2276.99736	0.99224
2274.94045	0.99210
2272.88354	0.99264
2270.82663	0.99312
2268.76973	0.99256
2266.71282	0.99159
2264.65591	0.99143
2262.59900	0.99188
2260.54209	0.99224
2258.48518	0.99276
2256.42828	0.99340
2254.37137	0.99370
2252.31446	0.99395
2250.25755	0.99449
2248.20064	0.99483
2246.14374	0.99417
2244.08683	0.99305
2242.02992	0.99240
2239.97301	0.99202
2237.91610	0.99230
2235.85919	0.99373
2233.80229	0.99471
2231.74538	0.99413
2229.68847	0.99365
2227.63156	0.99408
2225.57465	0.99439
2223.51775	0.99432
2221.46084	0.99379
2219.40393	0.99262
2217.34702	0.99161
2215.29011	0.99216
2213.23320	0.99362
2211.17630	0.99350
2209.11939	0.99211
2207.06248	0.99248
2205.00557	0.99483
2202.94866	0.99643
2200.89176	0.99617
2198.83485	0.99475
2196.77794	0.99353
2194.72103	0.99316
2192.66412	0.99272
2190.60721	0.99224
2188.55031	0.99257
2186.49340	0.99325
2184.43649	0.99340
2182.37958	0.99300
2180.32267	0.99248
2178.26577	0.99200
2176.20886	0.99213
2174.15195	0.99281
2172.09504	0.99315
2170.03813	0.99350
2167.98122	0.99358
2165.92432	0.99333
2163.86741	0.99372
2161.81050	0.99389
2159.75359	0.99405
2157.69668	0.99485
2155.63978	0.99482
2153.58287	0.99448
2151.52596	0.99487
2149.46905	0.99536
2147.41214	0.99588
2145.35523	0.99635
2143.29833	0.99609
2141.24142	0.99568
2139.18451	0.99583
2137.12760	0.99629
2135.07069	0.99628
2133.01379	0.99520
2130.95688	0.99418
2128.89997	0.99459
2126.84306	0.99554
2124.78615	0.99579
2122.72924	0.99547
2120.67234	0.99516
2118.61543	0.99463
2116.55852	0.99355
2114.50161	0.99263
2112.44470	0.99233
2110.38780	0.99227
2108.33089	0.99234
2106.27398	0.99287
2104.21707	0.99350
2102.16016	0.99370
2100.10325	0.99371
2098.04635	0.99445
2095.98944	0.99588
2093.93253	0.99645
2091.87562	0.99566
2089.81871	0.99421
2087.76181	0.99359
2085.70490	0.99412
2083.64799	0.99399
2081.59108	0.99359
2079.53417	0.99400
2077.47726	0.99389
2075.42036	0.99358
2073.36345	0.99439
2071.30654	0.99502
2069.24963	0.99473
2067.19272	0.99492
2065.13582	0.99532
2063.07891	0.99504
2061.02200	0.99419
2058.96509	0.99274
2056.90818	0.99261
2054.85127	0.99437
2052.79437	0.99538
2050.73746	0.99472
2048.68055	0.99322
2046.62364	0.99256
2044.56673	0.99320
2042.50983	0.99273
2040.45292	0.99094
2038.39601	0.99020
2036.33910	0.99134
2034.28219	0.99339
2032.22528	0.99378
2030.16838	0.99247
2028.11147	0.99131
2026.05456	0.99065
2023.99765	0.99222
2021.94074	0.99593
2019.88384	0.99925
2017.82693	0.99977
2015.77002	0.99667
2013.71311	0.99378
2011.65620	0.99277
2009.59929	0.99188
2007.54239	0.99184
2005.48548	0.99273
2003.42857	0.99382
2001.37166	0.99466
1999.31475	0.99409
1997.25785	0.99333
1995.20094	0.99429
1993.14403	0.99565
1991.08712	0.99562
1989.03021	0.99552
1986.97330	0.99628
1984.91640	0.99616
1982.85949	0.99446
1980.80258	0.99338
1978.74567	0.99426
1976.68876	0.99552
1974.63186	0.99595
1972.57495	0.99541
1970.51804	0.99496
1968.46113	0.99523
1966.40422	0.99557
1964.34731	0.99626
1962.29041	0.99623
1960.23350	0.99523
1958.17659	0.99440
1956.11968	0.99344
1954.06277	0.99350
1952.00587	0.99519
1949.94896	0.99629
1947.89205	0.99602
1945.83514	0.99564
1943.77823	0.99629
1941.72132	0.99711
1939.66442	0.99709
1937.60751	0.99705
1935.55060	0.99670
1933.49369	0.99589
1931.43678	0.99541
1929.37988	0.99531
1927.32297	0.99545
1925.26606	0.99579
1923.20915	0.99576
1921.15224	0.99453
1919.09533	0.99311
1917.03843	0.99356
1914.98152	0.99533
1912.92461	0.99612
1910.86770	0.99557
1908.81079	0.99492
1906.75389	0.99451
1904.69698	0.99423
1902.64007	0.99435
1900.58316	0.99436
1898.52625	0.99440
1896.46934	0.99463
1894.41244	0.99428
1892.35553	0.99386
1890.29862	0.99421
1888.24171	0.99487
1886.18480	0.99475
1884.12790	0.99393
1882.07099	0.99358
1880.01408	0.99397
1877.95717	0.99446
1875.90026	0.99485
1873.84335	0.99514
1871.78645	0.99530
1869.72954	0.99537
1867.67263	0.99482
1865.61572	0.99437
1863.55881	0.99469
1861.50191	0.99487
1859.44500	0.99458
1857.38809	0.99429
1855.33118	0.99418
1853.27427	0.99431
1851.21736	0.99459
1849.16046	0.99499
1847.10355	0.99507
1845.04664	0.99482
1842.98973	0.99475
1840.93282	0.99454
1838.87592	0.99427
1836.81901	0.99431
1834.76210	0.99447
1832.70519	0.99428
1830.64828	0.99366
1828.59137	0.99319
1826.53447	0.99331
1824.47756	0.99361
1822.42065	0.99341
1820.36374	0.99303
1818.30683	0.99309
1816.24993	0.99328
1814.19302	0.99331
1812.13611	0.99340
1810.07920	0.99318
1808.02229	0.99266
1805.96538	0.99222
1803.90848	0.99191
1801.85157	0.99163
1799.79466	0.99153
1797.73775	0.99157
1795.68084	0.99147
1793.62394	0.99122
1791.56703	0.99082
1789.51012	0.99014
1787.45321	0.98894
1785.39630	0.98767
1783.33939	0.98685
1781.28249	0.98625
1779.22558	0.98538
1777.16867	0.98399
1775.11176	0.98185
1773.05485	0.97888
1770.99795	0.97546
1768.94104	0.97147
1766.88413	0.96592
1764.82722	0.95929
1762.77031	0.95143
1760.71340	0.94163
1758.65650	0.93158
1756.59959	0.92162
1754.54268	0.91261
1752.48577	0.90471
1750.42886	0.89691
1748.37196	0.89000
1746.31505	0.88473
1744.25814	0.88073
1742.20123	0.87774
1740.14432	0.87573
1738.08741	0.87448
1736.03051	0.87381
1733.97360	0.87451
1731.91669	0.87654
1729.85978	0.87887
1727.80287	0.88198
1725.74597	0.88581
1723.68906	0.89055
1721.63215	0.89520
1719.57524	0.90001
1717.51833	0.90802
1715.46142	0.91771
1713.40452	0.92519
1711.34761	0.93162
1709.29070	0.93792
1707.23379	0.94437
1705.17688	0.95072
1703.11998	0.95540
1701.06307	0.95945
1699.00616	0.96386
1696.94925	0.96727
1694.89234	0.97065
1692.83543	0.97300
1690.77853	0.97409
1688.72162	0.97501
1686.66471	0.97597
1684.60780	0.97737
1682.55089	0.97888
1680.49399	0.97961
1678.43708	0.98000
1676.38017	0.98028
1674.32326	0.98037
1672.26635	0.98042
1670.20944	0.98080
1668.15254	0.98133
1666.09563	0.98134
1664.03872	0.98099
1661.98181	0.98076
1659.92490	0.98066
1657.86800	0.98041
1655.81109	0.97978
1653.75418	0.97919
1651.69727	0.97890
1649.64036	0.97807
1647.58345	0.97732
1645.52655	0.97771
1643.46964	0.97856
1641.41273	0.97898
1639.35582	0.97912
1637.29891	0.97900
1635.24201	0.97880
1633.18510	0.97916
1631.12819	0.97959
1629.07128	0.97995
1627.01437	0.98040
1624.95746	0.98061
1622.90056	0.98067
1620.84365	0.98108
1618.78674	0.98155
1616.72983	0.98224
1614.67292	0.98337
1612.61602	0.98425
1610.55911	0.98467
1608.50220	0.98476
1606.44529	0.98479
1604.38838	0.98496
1602.33147	0.98541
1600.27457	0.98617
1598.21766	0.98671
1596.16075	0.98676
1594.10384	0.98678
1592.04693	0.98700
1589.99003	0.98717
1587.93312	0.98716
1585.87621	0.98711
1583.81930	0.98703
1581.76239	0.98704
1579.70548	0.98722
1577.64858	0.98752
1575.59167	0.98791
1573.53476	0.98791
1571.47785	0.98773
1569.42094	0.98775
1567.36404	0.98789
1565.30713	0.98803
1563.25022	0.98802
1561.19331	0.98773
1559.13640	0.98750
1557.07949	0.98782
1555.02259	0.98824
1552.96568	0.98867
1550.90877	0.98891
1548.85186	0.98874
1546.79495	0.98828
1544.73805	0.98796
1542.68114	0.98822
1540.62423	0.98884
1538.56732	0.98912
1536.51041	0.98913
1534.45350	0.98937
1532.39660	0.98963
1530.33969	0.98930
1528.28278	0.98886
1526.22587	0.98884
1524.16896	0.98910
1522.11206	0.98935
1520.05515	0.98939
1517.99824	0.98930
1515.94133	0.98940
1513.88442	0.98950
1511.82751	0.98926
1509.77061	0.98902
1507.71370	0.98927
1505.65679	0.98939
1503.59988	0.98914
1501.54297	0.98917
1499.48607	0.98926
1497.42916	0.98900
1495.37225	0.98870
1493.31534	0.98843
1491.25843	0.98812
1489.20152	0.98797
1487.14462	0.98785
1485.08771	0.98751
1483.03080	0.98711
1480.97389	0.98676
1478.91698	0.98617
1476.86008	0.98538
1474.80317	0.98477
1472.74626	0.98378
1470.68935	0.98241
1468.63244	0.98148
1466.57553	0.98048
1464.51863	0.97894
1462.46172	0.97739
1460.40481	0.97620
1458.34790	0.97517
1456.29099	0.97378
1454.23409	0.97217
1452.17718	0.97098
1450.12027	0.97025
1448.06336	0.96945
1446.00645	0.96813
1443.94954	0.96673
1441.89264	0.96555
1439.83573	0.96438
1437.77882	0.96321
1435.72191	0.96219
1433.66500	0.96142
1431.60810	0.96088
1429.55119	0.96083
1427.49428	0.96145
1425.43737	0.96226
1423.38046	0.96275
1421.32355	0.96294
1419.26665	0.96325
1417.20974	0.96386
1415.15283	0.96447
1413.09592	0.96489
1411.03901	0.96507
1408.98211	0.96516
1406.92520	0.96513
1404.86829	0.96489
1402.81138	0.96454
1400.75447	0.96412
1398.69756	0.96336
1396.64066	0.96198
1394.58375	0.95991
1392.52684	0.95734
1390.46993	0.95440
1388.41302	0.95049
1386.35612	0.94542
1384.29921	0.94001
1382.24230	0.93449
1380.18539	0.92875
1378.12848	0.92331
1376.07157	0.91862
1374.01467	0.91492
1371.95776	0.91301
1369.90085	0.91334
1367.84394	0.91565
1365.78703	0.91949
1363.73013	0.92498
1361.67322	0.93207
1359.61631	0.93931
1357.55940	0.94595
1355.50249	0.95187
1353.44558	0.95646
1351.38868	0.95947
1349.33177	0.96160
1347.27486	0.96324
1345.21795	0.96423
1343.16104	0.96475
1341.10414	0.96511
1339.04723	0.96538
1336.99032	0.96543
1334.93341	0.96523
1332.87650	0.96481
1330.81959	0.96431
1328.76269	0.96388
1326.70578	0.96361
1324.64887	0.96321
1322.59196	0.96257
1320.53505	0.96211
1318.47815	0.96184
1316.42124	0.96159
1314.36433	0.96152
1312.30742	0.96157
1310.25051	0.96157
1308.19360	0.96165
1306.13670	0.96177
1304.07979	0.96167
1302.02288	0.96132
1299.96597	0.96077
1297.90906	0.96008
1295.85216	0.95925
1293.79525	0.95801
1291.73834	0.95622
1289.68143	0.95405
1287.62452	0.95192
1285.56761	0.94992
1283.51071	0.94752
1281.45380	0.94436
1279.39689	0.94070
1277.33998	0.93666
1275.28307	0.93209
1273.22617	0.92709
1271.16926	0.92188
1269.11235	0.91645
1267.05544	0.91081
1264.99853	0.90486
1262.94162	0.89841
1260.88472	0.89178
1258.82781	0.88503
1256.77090	0.87803
1254.71399	0.87100
1252.65708	0.86389
1250.60018	0.85687
1248.54327	0.85027
1246.48636	0.84386
1244.42945	0.83756
1242.37254	0.83176
1240.31563	0.82632
1238.25873	0.82099
1236.20182	0.81628
1234.14491	0.81278
1232.08800	0.81053
1230.03109	0.80961
1227.97419	0.81049
1225.91728	0.81330
1223.86037	0.81776
1221.80346	0.82396
1219.74655	0.83236
1217.68964	0.84278
1215.63274	0.85441
1213.57583	0.86644
1211.51892	0.87815
1209.46201	0.88922
1207.40510	0.89972
1205.34820	0.90951
1203.29129	0.91824
1201.23438	0.92589
1199.17747	0.93255
1197.12056	0.93835
1195.06365	0.94339
1193.00675	0.94715
1190.94984	0.94952
1188.89293	0.95132
1186.83602	0.95247
1184.77911	0.95212
1182.72221	0.95045
1180.66530	0.94833
1178.60839	0.94605
1176.55148	0.94335
1174.49457	0.94022
1172.43766	0.93688
1170.38076	0.93337
1168.32385	0.92981
1166.26694	0.92658
1164.21003	0.92417
1162.15312	0.92278
1160.09622	0.92216
1158.03931	0.92220
1155.98240	0.92315
1153.92549	0.92490
1151.86858	0.92691
1149.81167	0.92890
1147.75477	0.93066
1145.69786	0.93186
1143.64095	0.93233
1141.58404	0.93184
1139.52713	0.93033
1137.47023	0.92811
1135.41332	0.92549
1133.35641	0.92276
1131.29950	0.92001
1129.24259	0.91712
1127.18568	0.91419
1125.12878	0.91153
1123.07187	0.90927
1121.01496	0.90719
1118.95805	0.90514
1116.90114	0.90333
1114.84424	0.90199
1112.78733	0.90099
1110.73042	0.89978
1108.67351	0.89799
1106.61660	0.89585
1104.55969	0.89390
1102.50279	0.89205
1100.44588	0.88972
1098.38897	0.88651
1096.33206	0.88278
1094.27515	0.87911
1092.21825	0.87517
1090.16134	0.87044
1088.10443	0.86512
1086.04752	0.85949
1083.99061	0.85380
1081.93370	0.84795
1079.87680	0.84190
1077.81989	0.83623
1075.76298	0.83118
1073.70607	0.82646
1071.64916	0.82187
1069.59226	0.81745
1067.53535	0.81332
1065.47844	0.80974
1063.42153	0.80674
1061.36462	0.80390
1059.30771	0.80090
1057.25081	0.79782
1055.19390	0.79468
1053.13699	0.79146
1051.08008	0.78822
1049.02317	0.78512
1046.96627	0.78217
1044.90936	0.77964
1042.85245	0.77765
1040.79554	0.77564
1038.73863	0.77362
1036.68172	0.77232
1034.62482	0.77223
1032.56791	0.77357
1030.51100	0.77636
1028.45409	0.78048
1026.39718	0.78587
1024.34028	0.79244
1022.28337	0.80020
1020.22646	0.80849
1018.16955	0.81654
1016.11264	0.82434
1014.05573	0.83183
1011.99883	0.83914
1009.94192	0.84629
1007.88501	0.85286
1005.82810	0.85885
1003.77119	0.86434
1001.71429	0.86925
999.65738	0.87375
997.60047	0.87830
995.54356	0.88282
993.48665	0.88690
991.42974	0.89079
989.37284	0.89476
987.31593	0.89864
985.25902	0.90207
983.20211	0.90512
981.14520	0.90820
979.08830	0.91138
977.03139	0.91488
974.97448	0.91898
972.91757	0.92316
970.86066	0.92704
968.80375	0.93057
966.74685	0.93349
964.68994	0.93617
962.63303	0.93907
960.57612	0.94178
958.51921	0.94377
956.46231	0.94518
954.40540	0.94667
952.34849	0.94816
950.29158	0.94923
948.23467	0.95021
946.17776	0.95092
944.12086	0.95112
942.06395	0.95149
940.00704	0.95216
937.95013	0.95277
935.89322	0.95329
933.83632	0.95356
931.77941	0.95341
929.72250	0.95272
927.66559	0.95195
925.60868	0.95151
923.55177	0.95097
921.49487	0.95034
919.43796	0.94966
917.38105	0.94852
915.32414	0.94695
913.26723	0.94556
911.21033	0.94454
909.15342	0.94353
907.09651	0.94288
905.03960	0.94285
902.98269	0.94303
900.92578	0.94314
898.86888	0.94325
896.81197	0.94356
894.75506	0.94440
892.69815	0.94611
890.64124	0.94826
888.58434	0.94995
886.52743	0.95141
884.47052	0.95332
882.41361	0.95552
880.35670	0.95784
878.29979	0.96043
876.24289	0.96310
874.18598	0.96556
872.12907	0.96779
870.07216	0.96923
868.01525	0.96992
865.95835	0.97073
863.90144	0.97150
861.84453	0.97204
859.78762	0.97264
857.73071	0.97331
855.67380	0.97406
853.61690	0.97438
851.55999	0.97388
849.50308	0.97323
847.44617	0.97268
845.38926	0.97207
843.33236	0.97169
841.27545	0.97166
839.21854	0.97157
837.16163	0.97148
835.10472	0.97194
833.04781	0.97264
830.99091	0.97303
828.93400	0.97339
826.87709	0.97402
824.82018	0.97481
822.76327	0.97551
820.70637	0.97583
818.64946	0.97569
816.59255	0.97562
814.53564	0.97580
812.47873	0.97609
810.42182	0.97646
808.36492	0.97672
806.30801	0.97676
804.25110	0.97664
802.19419	0.97675
800.13728	0.97737
798.08038	0.97766
796.02347	0.97717
793.96656	0.97671
791.90965	0.97644
789.85274	0.97614
787.79583	0.97614
785.73893	0.97644
783.68202	0.97664
781.62511	0.97661
779.56820	0.97656
777.51129	0.97681
775.45439	0.97722
773.39748	0.97695
771.34057	0.97595
769.28366	0.97506
767.22675	0.97482
765.16984	0.97539
763.11294	0.97604
761.05603	0.97573
758.99912	0.97484
756.94221	0.97442
754.88530	0.97441
752.82839	0.97432
750.77149	0.97413
748.71458	0.97399
746.65767	0.97411
744.60076	0.97419
742.54385	0.97355
740.48695	0.97268
738.43004	0.97229
736.37313	0.97184
734.31622	0.97111
732.25931	0.97072
730.20240	0.97040
728.14550	0.96965
726.08859	0.96874
724.03168	0.96794
721.97477	0.96730
719.91786	0.96687
717.86096	0.96676
715.80405	0.96682
713.74714	0.96689
711.69023	0.96668
709.63332	0.96596
707.57641	0.96513
705.51951	0.96427
703.46260	0.96268
701.40569	0.96072
699.34878	0.96000
697.29187	0.95994
695.23497	0.95909
693.17806	0.95805
691.12115	0.95750
689.06424	0.95682
687.00733	0.95546
684.95042	0.95400
682.89352	0.95330
680.83661	0.95302
678.77970	0.95254
676.72279	0.95230
674.66588	0.95249
672.60898	0.95271
670.55207	0.95278
668.49516	0.95282
666.43825	0.95201
664.38134	0.95066
662.32443	0.94993
660.26753	0.94974
658.21062	0.94936
656.15371	0.94826
654.09680	0.94652
652.03989	0.94487
649.98299	0.94372
647.92608	0.94333
645.86917	0.94372
643.81226	0.94337
641.75535	0.94092
639.69844	0.93775
637.64154	0.93578
635.58463	0.93426
633.52772	0.93252
631.47081	0.93222
629.41390	0.93283
627.35700	0.93207
625.30009	0.93081
623.24318	0.93033
621.18627	0.92956
619.12936	0.92726
617.07245	0.92418
615.01555	0.92218
612.95864	0.92046
610.90173	0.91774
608.84482	0.91444
606.78791	0.91162
604.73101	0.91002
602.67410	0.90959
600.61719	0.91079
598.56028	0.91327
596.50337	0.91611
594.44646	0.91963
592.38956	0.92268
590.33265	0.92386
588.27574	0.92416
586.21883	0.92520
584.16192	0.92681
582.10502	0.92751
580.04811	0.92724
577.99120	0.92695
575.93429	0.92689
573.87738	0.92660
571.82047	0.92586
569.76357	0.92470
567.70666	0.92391
565.64975	0.92386
563.59284	0.92305
561.53593	0.92178
559.47903	0.92113
557.42212	0.92050
555.36521	0.91962
553.30830	0.91974
551.25139	0.92159
549.19448	0.92303
547.13758	0.92302
545.08067	0.92307
543.02376	0.92333
540.96685	0.92418
538.90994	0.92588
536.85304	0.92621
534.79613	0.92479
532.73922	0.92306
530.68231	0.92201
528.62540	0.92264
526.56849	0.92365
524.51159	0.92329
522.45468	0.92244
520.39777	0.92131
518.34086	0.92029
516.28395	0.92086
514.22705	0.92145
512.17014	0.92016
510.11323	0.91778
508.05632	0.91617
505.99941	0.91663
503.94250	0.91789
501.88560	0.91768
499.82869	0.91626
497.77178	0.91501
495.71487	0.91469
493.65796	0.91476
491.60106	0.91345
489.54415	0.91213
487.48724	0.91253
485.43033	0.91373
483.37342	0.91421
481.31651	0.91340
479.25961	0.91346
477.20270	0.91423
475.14579	0.91384
473.08888	0.91327
471.03197	0.91324
468.97507	0.91225
466.91816	0.91004
464.86125	0.90918
462.80434	0.91021
460.74743	0.91137
458.69052	0.91208
456.63362	0.91173
454.57671	0.91011
452.51980	0.90828
450.46289	0.90697
448.40598	0.90740
446.34908	0.90995
444.29217	0.91127
442.23526	0.90914
440.17835	0.90697
438.12144	0.90759
436.06453	0.90974
434.00763	0.90905
431.95072	0.90626
429.89381	0.90780
427.83690	0.91172
425.77999	0.91377
423.72309	0.91761
421.66618	0.92265
419.60927	0.92113
417.55236	0.91452
415.49545	0.91286
413.43854	0.91481
411.38164	0.91821
409.32473	0.92013
407.26782	0.91776
405.21091	0.91450
403.15400	0.91399
401.09710	0.91406
399.04019	0.91110
