3996.57260	0.98789
3994.51569	0.98783
3992.45878	0.98781
3990.40188	0.98824
3988.34497	0.98865
3986.28806	0.98853
3984.23115	0.98857
3982.17424	0.98904
3980.11733	0.98895
3978.06043	0.98806
3976.00352	0.98730
3973.94661	0.98727
3971.88970	0.98759
3969.83279	0.98795
3967.77589	0.98812
3965.71898	0.98772
3963.66207	0.98732
3961.60516	0.98766
3959.54825	0.98830
3957.49134	0.98833
3955.43444	0.98766
3953.37753	0.98713
3951.32062	0.98703
3949.26371	0.98716
3947.20680	0.98774
3945.14990	0.98835
3943.09299	0.98824
3941.03608	0.98760
3938.97917	0.98746
3936.92226	0.98790
3934.86535	0.98806
3932.80845	0.98780
3930.75154	0.98804
3928.69463	0.98902
3926.63772	0.98979
3924.58081	0.98944
3922.52391	0.98871
3920.46700	0.98869
3918.41009	0.98871
3916.35318	0.98804
3914.29627	0.98752
3912.23936	0.98761
3910.18246	0.98752
3908.12555	0.98725
3906.06864	0.98767
3904.01173	0.98847
3901.95482	0.98881
3899.89792	0.98859
3897.84101	0.98806
3895.78410	0.98757
3893.72719	0.98730
3891.67028	0.98728
3889.61337	0.98767
3887.55647	0.98833
3885.49956	0.98870
3883.44265	0.98878
3881.38574	0.98873
3879.32883	0.98838
3877.27193	0.98815
3875.21502	0.98830
3873.15811	0.98820
3871.10120	0.98759
3869.04429	0.98777
3866.98738	0.98858
3864.93048	0.98860
3862.87357	0.98774
3860.81666	0.98699
3858.75975	0.98740
3856.70284	0.98863
3854.64594	0.98946
3852.58903	0.98906
3850.53212	0.98864
3848.47521	0.98892
3846.41830	0.98900
3844.36139	0.98876
3842.30449	0.98889
3840.24758	0.98928
3838.19067	0.98923
3836.13376	0.98868
3834.07685	0.98853
3832.01995	0.98874
3829.96304	0.98860
3827.90613	0.98825
3825.84922	0.98802
3823.79231	0.98822
3821.73540	0.98876
3819.67850	0.98885
3817.62159	0.98850
3815.56468	0.98825
3813.50777	0.98807
3811.45086	0.98764
3809.39396	0.98702
3807.33705	0.98696
3805.28014	0.98783
3803.22323	0.98887
3801.16632	0.98918
3799.10941	0.98859
3797.05251	0.98804
3794.99560	0.98792
3792.93869	0.98810
3790.88178	0.98865
3788.82487	0.98915
3786.76796	0.98888
3784.71106	0.98830
3782.65415	0.98833
3780.59724	0.98866
3778.54033	0.98848
3776.48342	0.98797
3774.42652	0.98788
3772.36961	0.98821
3770.31270	0.98848
3768.25579	0.98875
3766.19888	0.98913
3764.14197	0.98934
3762.08507	0.98916
3760.02816	0.98858
3757.97125	0.98852
3755.91434	0.98910
3753.85743	0.98950
3751.80053	0.98988
3749.74362	0.98965
3747.68671	0.98887
3745.62980	0.98907
3743.57289	0.98964
3741.51598	0.98962
3739.45908	0.98983
3737.40217	0.98985
3735.34526	0.98936
3733.28835	0.98923
3731.23144	0.98896
3729.17454	0.98842
3727.11763	0.98814
3725.06072	0.98826
3723.00381	0.98870
3720.94690	0.98915
3718.88999	0.98923
3716.83309	0.98880
3714.77618	0.98855
3712.71927	0.98893
3710.66236	0.98878
3708.60545	0.98797
3706.54855	0.98787
3704.49164	0.98838
3702.43473	0.98876
3700.37782	0.98878
3698.32091	0.98862
3696.26400	0.98858
3694.20710	0.98902
3692.15019	0.99002
3690.09328	0.99065
3688.03637	0.98972
3685.97946	0.98871
3683.92256	0.98892
3681.86565	0.98954
3679.80874	0.98948
3677.75183	0.98879
3675.69492	0.98831
3673.63801	0.98817
3671.58111	0.98794
3669.52420	0.98773
3667.46729	0.98772
3665.41038	0.98771
3663.35347	0.98731
3661.29657	0.98680
3659.23966	0.98712
3657.18275	0.98790
3655.12584	0.98792
3653.06893	0.98771
3651.01202	0.98795
3648.95512	0.98782
3646.89821	0.98688
3644.84130	0.98591
3642.78439	0.98539
3640.72748	0.98575
3638.67058	0.98658
3636.61367	0.98742
3634.55676	0.98792
3632.49985	0.98760
3630.44294	0.98719
3628.38603	0.98685
3626.32913	0.98606
3624.27222	0.98591
3622.21531	0.98676
3620.15840	0.98722
3618.10149	0.98701
3616.04459	0.98736
3613.98768	0.98767
3611.93077	0.98745
3609.87386	0.98694
3607.81695	0.98674
3605.76004	0.98738
3603.70314	0.98806
3601.64623	0.98814
3599.58932	0.98758
3597.53241	0.98682
3595.47550	0.98662
3593.41860	0.98685
3591.36169	0.98704
3589.30478	0.98738
3587.24787	0.98763
3585.19096	0.98731
3583.13405	0.98682
3581.07715	0.98651
3579.02024	0.98643
3576.96333	0.98680
3574.90642	0.98716
3572.84951	0.98704
3570.79261	0.98688
3568.73570	0.98642
3566.67879	0.98569
3564.62188	0.98564
3562.56497	0.98561
3560.50806	0.98569
3558.45116	0.98671
3556.39425	0.98723
3554.33734	0.98647
3552.28043	0.98630
3550.22352	0.98746
3548.16662	0.98826
3546.10971	0.98808
3544.05280	0.98797
3541.99589	0.98809
3539.93898	0.98795
3537.88207	0.98733
3535.82517	0.98621
3533.76826	0.98529
3531.71135	0.98536
3529.65444	0.98618
3527.59753	0.98707
3525.54063	0.98729
3523.48372	0.98666
3521.42681	0.98650
3519.36990	0.98727
3517.31299	0.98748
3515.25608	0.98667
3513.19918	0.98591
3511.14227	0.98551
3509.08536	0.98564
3507.02845	0.98654
3504.97154	0.98692
3502.91464	0.98605
3500.85773	0.98523
3498.80082	0.98522
3496.74391	0.98547
3494.68700	0.98577
3492.63009	0.98635
3490.57319	0.98661
3488.51628	0.98626
3486.45937	0.98627
3484.40246	0.98657
3482.34555	0.98648
3480.28865	0.98637
3478.23174	0.98639
3476.17483	0.98643
3474.11792	0.98666
3472.06101	0.98680
3470.00410	0.98645
3467.94720	0.98597
3465.89029	0.98569
3463.83338	0.98547
3461.77647	0.98568
3459.71956	0.98639
3457.66266	0.98642
3455.60575	0.98561
3453.54884	0.98505
3451.49193	0.98533
3449.43502	0.98598
3447.37811	0.98627
3445.32121	0.98623
3443.26430	0.98627
3441.20739	0.98627
3439.15048	0.98629
3437.09357	0.98669
3435.03667	0.98717
3432.97976	0.98722
3430.92285	0.98683
3428.86594	0.98657
3426.80903	0.98684
3424.75212	0.98735
3422.69522	0.98734
3420.63831	0.98663
3418.58140	0.98641
3416.52449	0.98711
3414.46758	0.98766
3412.41068	0.98765
3410.35377	0.98778
3408.29686	0.98808
3406.23995	0.98788
3404.18304	0.98754
3402.12613	0.98753
3400.06923	0.98744
3398.01232	0.98731
3395.95541	0.98755
3393.89850	0.98772
3391.84159	0.98758
3389.78469	0.98743
3387.72778	0.98740
3385.67087	0.98752
3383.61396	0.98754
3381.55705	0.98764
3379.50014	0.98796
3377.44324	0.98784
3375.38633	0.98720
3373.32942	0.98682
3371.27251	0.98686
3369.21560	0.98701
3367.15870	0.98696
3365.10179	0.98684
3363.04488	0.98728
3360.98797	0.98790
3358.93106	0.98809
3356.87415	0.98807
3354.81725	0.98784
3352.76034	0.98734
3350.70343	0.98700
3348.64652	0.98712
3346.58961	0.98744
3344.53271	0.98739
3342.47580	0.98684
3340.41889	0.98644
3338.36198	0.98683
3336.30507	0.98727
3334.24816	0.98686
3332.19126	0.98652
3330.13435	0.98694
3328.07744	0.98731
3326.02053	0.98731
3323.96362	0.98742
3321.90672	0.98781
3319.84981	0.98821
3317.79290	0.98815
3315.73599	0.98764
3313.67908	0.98737
3311.62217	0.98746
3309.56527	0.98742
3307.50836	0.98728
3305.45145	0.98718
3303.39454	0.98711
3301.33763	0.98715
3299.28073	0.98705
3297.22382	0.98672
3295.16691	0.98675
3293.11000	0.98713
3291.05309	0.98733
3288.99618	0.98724
3286.93928	0.98719
3284.88237	0.98738
3282.82546	0.98745
3280.76855	0.98757
3278.71164	0.98776
3276.65474	0.98758
3274.59783	0.98743
3272.54092	0.98737
3270.48401	0.98684
3268.42710	0.98651
3266.37019	0.98700
3264.31329	0.98746
3262.25638	0.98758
3260.19947	0.98809
3258.14256	0.98863
3256.08565	0.98826
3254.02875	0.98744
3251.97184	0.98711
3249.91493	0.98733
3247.85802	0.98770
3245.80111	0.98786
3243.74420	0.98780
3241.68730	0.98763
3239.63039	0.98768
3237.57348	0.98806
3235.51657	0.98824
3233.45966	0.98818
3231.40276	0.98816
3229.34585	0.98784
3227.28894	0.98708
3225.23203	0.98660
3223.17512	0.98676
3221.11821	0.98711
3219.06131	0.98732
3217.00440	0.98707
3214.94749	0.98659
3212.89058	0.98652
3210.83367	0.98684
3208.77677	0.98716
3206.71986	0.98736
3204.66295	0.98759
3202.60604	0.98774
3200.54913	0.98755
3198.49222	0.98733
3196.43532	0.98735
3194.37841	0.98699
3192.32150	0.98633
3190.26459	0.98633
3188.20768	0.98695
3186.15078	0.98724
3184.09387	0.98708
3182.03696	0.98697
3179.98005	0.98690
3177.92314	0.98691
3175.86623	0.98725
3173.80933	0.98780
3171.75242	0.98806
3169.69551	0.98785
3167.63860	0.98765
3165.58169	0.98755
3163.52479	0.98728
3161.46788	0.98666
3159.41097	0.98617
3157.35406	0.98654
3155.29715	0.98731
3153.24024	0.98793
3151.18334	0.98834
3149.12643	0.98792
3147.06952	0.98715
3145.01261	0.98711
3142.95570	0.98733
3140.89880	0.98735
3138.84189	0.98747
3136.78498	0.98769
3134.72807	0.98758
3132.67116	0.98705
3130.61425	0.98650
3128.55735	0.98619
3126.50044	0.98602
3124.44353	0.98603
3122.38662	0.98641
3120.32971	0.98701
3118.27281	0.98762
3116.21590	0.98759
3114.15899	0.98705
3112.10208	0.98675
3110.04517	0.98667
3107.98826	0.98693
3105.93136	0.98709
3103.87445	0.98675
3101.81754	0.98666
3099.76063	0.98700
3097.70372	0.98721
3095.64682	0.98728
3093.58991	0.98738
3091.53300	0.98740
3089.47609	0.98744
3087.41918	0.98740
3085.36227	0.98702
3083.30537	0.98661
3081.24846	0.98647
3079.19155	0.98648
3077.13464	0.98657
3075.07773	0.98648
3073.02083	0.98632
3070.96392	0.98640
3068.90701	0.98654
3066.85010	0.98655
3064.79319	0.98663
3062.73628	0.98699
3060.67938	0.98735
3058.62247	0.98730
3056.56556	0.98684
3054.50865	0.98632
3052.45174	0.98606
3050.39484	0.98612
3048.33793	0.98620
3046.28102	0.98601
3044.22411	0.98581
3042.16720	0.98587
3040.11029	0.98615
3038.05339	0.98640
3035.99648	0.98645
3033.93957	0.98626
3031.88266	0.98598
3029.82575	0.98576
3027.76885	0.98552
3025.71194	0.98544
3023.65503	0.98554
3021.59812	0.98537
3019.54121	0.98500
3017.48430	0.98490
3015.42740	0.98515
3013.37049	0.98531
3011.31358	0.98505
3009.25667	0.98466
3007.19976	0.98465
3005.14286	0.98470
3003.08595	0.98435
3001.02904	0.98405
2998.97213	0.98396
2996.91522	0.98380
2994.85831	0.98370
2992.80141	0.98401
2990.74450	0.98446
2988.68759	0.98447
2986.63068	0.98392
2984.57377	0.98349
2982.51687	0.98347
2980.45996	0.98360
2978.40305	0.98378
2976.34614	0.98358
2974.28923	0.98289
2972.23232	0.98211
2970.17542	0.98139
2968.11851	0.98070
2966.06160	0.97992
2964.00469	0.97923
2961.94778	0.97905
2959.89088	0.97939
2957.83397	0.97972
2955.77706	0.97956
2953.72015	0.97940
2951.66324	0.97949
2949.60633	0.97929
2947.54943	0.97908
2945.49252	0.97934
2943.43561	0.97968
2941.37870	0.97979
2939.32179	0.98025
2937.26489	0.98098
2935.20798	0.98115
2933.15107	0.98079
2931.09416	0.98059
2929.03725	0.98097
2926.98034	0.98178
2924.92344	0.98242
2922.86653	0.98233
2920.80962	0.98176
2918.75271	0.98148
2916.69580	0.98163
2914.63890	0.98154
2912.58199	0.98101
2910.52508	0.98082
2908.46817	0.98154
2906.41126	0.98247
2904.35435	0.98269
2902.29745	0.98246
2900.24054	0.98206
2898.18363	0.98168
2896.12672	0.98169
2894.06981	0.98185
2892.01291	0.98168
2889.95600	0.98139
2887.89909	0.98153
2885.84218	0.98195
2883.78527	0.98196
2881.72836	0.98146
2879.67146	0.98109
2877.61455	0.98120
2875.55764	0.98158
2873.50073	0.98185
2871.44382	0.98189
2869.38692	0.98213
2867.33001	0.98262
2865.27310	0.98278
2863.21619	0.98256
2861.15928	0.98247
2859.10237	0.98275
2857.04547	0.98322
2854.98856	0.98355
2852.93165	0.98366
2850.87474	0.98379
2848.81783	0.98409
2846.76093	0.98446
2844.70402	0.98466
2842.64711	0.98476
2840.59020	0.98493
2838.53329	0.98489
2836.47638	0.98456
2834.41948	0.98461
2832.36257	0.98512
2830.30566	0.98552
2828.24875	0.98578
2826.19184	0.98600
2824.13494	0.98593
2822.07803	0.98570
2820.02112	0.98546
2817.96421	0.98544
2815.90730	0.98563
2813.85039	0.98572
2811.79349	0.98560
2809.73658	0.98530
2807.67967	0.98521
2805.62276	0.98565
2803.56585	0.98614
2801.50895	0.98605
2799.45204	0.98566
2797.39513	0.98559
2795.33822	0.98580
2793.28131	0.98596
2791.22440	0.98598
2789.16750	0.98584
2787.11059	0.98570
2785.05368	0.98573
2782.99677	0.98585
2780.93986	0.98589
2778.88296	0.98605
2776.82605	0.98618
2774.76914	0.98596
2772.71223	0.98578
2770.65532	0.98589
2768.59841	0.98603
2766.54151	0.98629
2764.48460	0.98639
2762.42769	0.98606
2760.37078	0.98583
2758.31387	0.98596
2756.25697	0.98616
2754.20006	0.98619
2752.14315	0.98600
2750.08624	0.98583
2748.02933	0.98579
2745.97242	0.98577
2743.91552	0.98582
2741.85861	0.98590
2739.80170	0.98586
2737.74479	0.98583
2735.68788	0.98585
2733.63098	0.98572
2731.57407	0.98557
2729.51716	0.98569
2727.46025	0.98609
2725.40334	0.98652
2723.34643	0.98664
2721.28953	0.98655
2719.23262	0.98652
2717.17571	0.98642
2715.11880	0.98621
2713.06189	0.98605
2711.00499	0.98613
2708.94808	0.98643
2706.89117	0.98646
2704.83426	0.98623
2702.77735	0.98624
2700.72044	0.98645
2698.66354	0.98678
2696.60663	0.98709
2694.54972	0.98697
2692.49281	0.98636
2690.43590	0.98579
2688.37900	0.98565
2686.32209	0.98584
2684.26518	0.98611
2682.20827	0.98618
2680.15136	0.98607
2678.09445	0.98619
2676.03755	0.98639
2673.98064	0.98631
2671.92373	0.98614
2669.86682	0.98611
2667.80991	0.98623
2665.75301	0.98643
2663.69610	0.98633
2661.63919	0.98579
2659.58228	0.98549
2657.52537	0.98579
2655.46846	0.98630
2653.41156	0.98646
2651.35465	0.98613
2649.29774	0.98591
2647.24083	0.98613
2645.18392	0.98638
2643.12702	0.98651
2641.07011	0.98665
2639.01320	0.98648
2636.95629	0.98600
2634.89938	0.98568
2632.84247	0.98568
2630.78557	0.98615
2628.72866	0.98666
2626.67175	0.98663
2624.61484	0.98637
2622.55793	0.98643
2620.50103	0.98677
2618.44412	0.98681
2616.38721	0.98642
2614.33030	0.98613
2612.27339	0.98599
2610.21648	0.98579
2608.15958	0.98570
2606.10267	0.98606
2604.04576	0.98667
2601.98885	0.98677
2599.93194	0.98652
2597.87504	0.98677
2595.81813	0.98728
2593.76122	0.98742
2591.70431	0.98718
2589.64740	0.98685
2587.59049	0.98676
2585.53359	0.98686
2583.47668	0.98678
2581.41977	0.98667
2579.36286	0.98694
2577.30595	0.98703
2575.24905	0.98703
2573.19214	0.98741
2571.13523	0.98758
2569.07832	0.98748
2567.02141	0.98723
2564.96450	0.98674
2562.90760	0.98662
2560.85069	0.98706
2558.79378	0.98732
2556.73687	0.98725
2554.67996	0.98718
2552.62306	0.98695
2550.56615	0.98688
2548.50924	0.98726
2546.45233	0.98787
2544.39542	0.98817
2542.33851	0.98781
2540.28161	0.98724
2538.22470	0.98690
2536.16779	0.98689
2534.11088	0.98692
2532.05397	0.98656
2529.99707	0.98631
2527.94016	0.98640
2525.88325	0.98647
2523.82634	0.98673
2521.76943	0.98715
2519.71252	0.98738
2517.65562	0.98735
2515.59871	0.98707
2513.54180	0.98644
2511.48489	0.98592
2509.42798	0.98599
2507.37108	0.98608
2505.31417	0.98601
2503.25726	0.98614
2501.20035	0.98625
2499.14344	0.98646
2497.08653	0.98717
2495.02963	0.98767
2492.97272	0.98762
2490.91581	0.98793
2488.85890	0.98845
2486.80199	0.98833
2484.74509	0.98776
2482.68818	0.98713
2480.63127	0.98653
2478.57436	0.98665
2476.51745	0.98740
2474.46054	0.98785
2472.40364	0.98758
2470.34673	0.98671
2468.28982	0.98626
2466.23291	0.98662
2464.17600	0.98697
2462.11910	0.98731
2460.06219	0.98757
2458.00528	0.98734
2455.94837	0.98729
2453.89146	0.98750
2451.83455	0.98759
2449.77765	0.98765
2447.72074	0.98748
2445.66383	0.98710
2443.60692	0.98697
2441.55001	0.98708
2439.49311	0.98686
2437.43620	0.98640
2435.37929	0.98623
2433.32238	0.98652
2431.26547	0.98720
2429.20856	0.98805
2427.15166	0.98873
2425.09475	0.98870
2423.03784	0.98796
2420.98093	0.98727
2418.92402	0.98715
2416.86712	0.98772
2414.81021	0.98831
2412.75330	0.98796
2410.69639	0.98725
2408.63948	0.98705
2406.58257	0.98713
2404.52567	0.98719
2402.46876	0.98714
2400.41185	0.98697
2398.35494	0.98692
2396.29803	0.98702
2394.24113	0.98727
2392.18422	0.98738
2390.12731	0.98695
2388.07040	0.98641
2386.01349	0.98633
2383.95658	0.98679
2381.89968	0.98717
2379.84277	0.98715
2377.78586	0.98705
2375.72895	0.98704
2373.67204	0.98722
2371.61514	0.98726
2369.55823	0.98708
2367.50132	0.98726
2365.44441	0.98781
2363.38750	0.98773
2361.33059	0.98686
2359.27369	0.98635
2357.21678	0.98613
2355.15987	0.98603
2353.10296	0.98611
2351.04605	0.98614
2348.98915	0.98653
2346.93224	0.98718
2344.87533	0.98729
2342.81842	0.98678
2340.76151	0.98665
2338.70460	0.98685
2336.64770	0.98656
2334.59079	0.98609
2332.53388	0.98647
2330.47697	0.98746
2328.42006	0.98771
2326.36316	0.98736
2324.30625	0.98743
2322.24934	0.98749
2320.19243	0.98690
2318.13552	0.98634
2316.07861	0.98632
2314.02171	0.98667
2311.96480	0.98705
2309.90789	0.98727
2307.85098	0.98731
2305.79407	0.98683
2303.73717	0.98630
2301.68026	0.98651
2299.62335	0.98677
2297.56644	0.98675
2295.50953	0.98701
2293.45262	0.98724
2291.39572	0.98723
2289.33881	0.98731
2287.28190	0.98742
2285.22499	0.98737
2283.16808	0.98748
2281.11117	0.98792
2279.05427	0.98787
2276.99736	0.98756
2274.94045	0.98806
2272.88354	0.98851
2270.82663	0.98817
2268.76973	0.98727
2266.71282	0.98608
2264.65591	0.98541
2262.59900	0.98557
2260.54209	0.98631
2258.48518	0.98753
2256.42828	0.98840
2254.37137	0.98793
2252.31446	0.98685
2250.25755	0.98644
2248.20064	0.98716
2246.14374	0.98809
2244.08683	0.98836
2242.02992	0.98858
2239.97301	0.98838
2237.91610	0.98737
2235.85919	0.98629
2233.80229	0.98581
2231.74538	0.98535
2229.68847	0.98432
2227.63156	0.98453
2225.57465	0.98628
2223.51775	0.98786
2221.46084	0.98866
2219.40393	0.98864
2217.34702	0.98820
2215.29011	0.98810
2213.23320	0.98811
2211.17630	0.98758
2209.11939	0.98745
2207.06248	0.98816
2205.00557	0.98843
2202.94866	0.98806
2200.89176	0.98822
2198.83485	0.98911
2196.77794	0.99005
2194.72103	0.98992
2192.66412	0.98859
2190.60721	0.98819
2188.55031	0.98888
2186.49340	0.98866
2184.43649	0.98695
2182.37958	0.98532
2180.32267	0.98541
2178.26577	0.98633
2176.20886	0.98682
2174.15195	0.98769
2172.09504	0.98906
2170.03813	0.98944
2167.98122	0.98974
2165.92432	0.99063
2163.86741	0.98978
2161.81050	0.98697
2159.75359	0.98554
2157.69668	0.98682
2155.63978	0.98804
2153.58287	0.98772
2151.52596	0.98759
2149.46905	0.98922
2147.41214	0.99077
2145.35523	0.98971
2143.29833	0.98758
2141.24142	0.98683
2139.18451	0.98775
2137.12760	0.98945
2135.07069	0.99016
2133.01379	0.99008
2130.95688	0.99007
2128.89997	0.98929
2126.84306	0.98810
2124.78615	0.98749
2122.72924	0.98806
2120.67234	0.98990
2118.61543	0.99135
2116.55852	0.99076
2114.50161	0.98877
2112.44470	0.98733
2110.38780	0.98711
2108.33089	0.98702
2106.27398	0.98661
2104.21707	0.98641
2102.16016	0.98675
2100.10325	0.98740
2098.04635	0.98778
2095.98944	0.98784
2093.93253	0.98754
2091.87562	0.98698
2089.81871	0.98685
2087.76181	0.98698
2085.70490	0.98662
2083.64799	0.98640
2081.59108	0.98656
2079.53417	0.98620
2077.47726	0.98616
2075.42036	0.98696
2073.36345	0.98781
2071.30654	0.98918
2069.24963	0.99051
2067.19272	0.99023
2065.13582	0.98920
2063.07891	0.98887
2061.02200	0.98796
2058.96509	0.98630
2056.90818	0.98659
2054.85127	0.98800
2052.79437	0.98731
2050.73746	0.98592
2048.68055	0.98628
2046.62364	0.98766
2044.56673	0.98945
2042.50983	0.98998
2040.45292	0.98907
2038.39601	0.98931
2036.33910	0.98958
2034.28219	0.98842
2032.22528	0.98740
2030.16838	0.98729
2028.11147	0.98869
2026.05456	0.99151
2023.99765	0.99278
2021.94074	0.99110
2019.88384	0.99021
2017.82693	0.99209
2015.77002	0.99345
2013.71311	0.99357
2011.65620	0.99338
2009.59929	0.99192
2007.54239	0.99074
2005.48548	0.99056
2003.42857	0.98980
2001.37166	0.98916
1999.31475	0.98947
1997.25785	0.98905
1995.20094	0.98772
1993.14403	0.98770
1991.08712	0.98846
1989.03021	0.98910
1986.97330	0.99042
1984.91640	0.99131
1982.85949	0.99123
1980.80258	0.99155
1978.74567	0.99222
1976.68876	0.99170
1974.63186	0.98967
1972.57495	0.98866
1970.51804	0.98945
1968.46113	0.98927
1966.40422	0.98819
1964.34731	0.98752
1962.29041	0.98631
1960.23350	0.98466
1958.17659	0.98441
1956.11968	0.98617
1954.06277	0.98786
1952.00587	0.98850
1949.94896	0.98932
1947.89205	0.99018
1945.83514	0.98990
1943.77823	0.98896
1941.72132	0.98853
1939.66442	0.98854
1937.60751	0.98848
1935.55060	0.98845
1933.49369	0.98922
1931.43678	0.99063
1929.37988	0.99094
1927.32297	0.99003
1925.26606	0.98970
1923.20915	0.98970
1921.15224	0.98864
1919.09533	0.98763
1917.03843	0.98758
1914.98152	0.98778
1912.92461	0.98829
1910.86770	0.98910
1908.81079	0.98962
1906.75389	0.98978
1904.69698	0.98988
1902.64007	0.98997
1900.58316	0.98992
1898.52625	0.98984
1896.46934	0.98977
1894.41244	0.99012
1892.35553	0.99065
1890.29862	0.99072
1888.24171	0.99079
1886.18480	0.99079
1884.12790	0.99017
1882.07099	0.98933
1880.01408	0.98937
1877.95717	0.99041
1875.90026	0.99113
1873.84335	0.99098
1871.78645	0.99036
1869.72954	0.98943
1867.67263	0.98917
1865.61572	0.98992
1863.55881	0.99032
1861.50191	0.99028
1859.44500	0.99017
1857.38809	0.98988
1855.33118	0.98970
1853.27427	0.99007
1851.21736	0.99076
1849.16046	0.99087
1847.10355	0.99035
1845.04664	0.99005
1842.98973	0.98994
1840.93282	0.98949
1838.87592	0.98916
1836.81901	0.98924
1834.76210	0.98946
1832.70519	0.98969
1830.64828	0.99006
1828.59137	0.99038
1826.53447	0.99032
1824.47756	0.98965
1822.42065	0.98926
1820.36374	0.98965
1818.30683	0.99004
1816.24993	0.98991
1814.19302	0.98933
1812.13611	0.98884
1810.07920	0.98873
1808.02229	0.98869
1805.96538	0.98868
1803.90848	0.98878
1801.85157	0.98850
1799.79466	0.98790
1797.73775	0.98733
1795.68084	0.98665
1793.62394	0.98614
1791.56703	0.98570
1789.51012	0.98500
1787.45321	0.98419
1785.39630	0.98339
1783.33939	0.98219
1781.28249	0.98039
1779.22558	0.97786
1777.16867	0.97491
1775.11176	0.97179
1773.05485	0.96725
1770.99795	0.96061
1768.94104	0.95293
1766.88413	0.94396
1764.82722	0.93440
1762.77031	0.92348
1760.71340	0.91115
1758.65650	0.90085
1756.59959	0.89161
1754.54268	0.88352
1752.48577	0.87712
1750.42886	0.87059
1748.37196	0.86427
1746.31505	0.85905
1744.25814	0.85439
1742.20123	0.85040
1740.14432	0.84743
1738.08741	0.84597
1736.03051	0.84601
1733.97360	0.84797
1731.91669	0.85305
1729.85978	0.86009
1727.80287	0.86865
1725.74597	0.87827
1723.68906	0.88847
1721.63215	0.89784
1719.57524	0.90645
1717.51833	0.91593
1715.46142	0.92451
1713.40452	0.93055
1711.34761	0.93553
1709.29070	0.94000
1707.23379	0.94370
1705.17688	0.94696
1703.11998	0.95026
1701.06307	0.95334
1699.00616	0.95548
1696.94925	0.95703
1694.89234	0.95873
1692.83543	0.96049
1690.77853	0.96231
1688.72162	0.96414
1686.66471	0.96580
1684.60780	0.96715
1682.55089	0.96767
1680.49399	0.96807
1678.43708	0.96866
1676.38017	0.96935
1674.32326	0.97016
1672.26635	0.97092
1670.20944	0.97131
1668.15254	0.97149
1666.09563	0.97176
1664.03872	0.97192
1661.98181	0.97210
1659.92490	0.97231
1657.86800	0.97241
1655.81109	0.97237
1653.75418	0.97198
1651.69727	0.97181
1649.64036	0.97250
1647.58345	0.97307
1645.52655	0.97285
1643.46964	0.97269
1641.41273	0.97297
1639.35582	0.97342
1637.29891	0.97382
1635.24201	0.97406
1633.18510	0.97425
1631.12819	0.97462
1629.07128	0.97517
1627.01437	0.97575
1624.95746	0.97624
1622.90056	0.97655
1620.84365	0.97681
1618.78674	0.97723
1616.72983	0.97760
1614.67292	0.97777
1612.61602	0.97814
1610.55911	0.97847
1608.50220	0.97857
1606.44529	0.97879
1604.38838	0.97933
1602.33147	0.97993
1600.27457	0.98028
1598.21766	0.98043
1596.16075	0.98046
1594.10384	0.98046
1592.04693	0.98055
1589.99003	0.98049
1587.93312	0.98047
1585.87621	0.98089
1583.81930	0.98139
1581.76239	0.98146
1579.70548	0.98127
1577.64858	0.98114
1575.59167	0.98114
1573.53476	0.98136
1571.47785	0.98135
1569.42094	0.98120
1567.36404	0.98155
1565.30713	0.98207
1563.25022	0.98253
1561.19331	0.98306
1559.13640	0.98317
1557.07949	0.98258
1555.02259	0.98229
1552.96568	0.98221
1550.90877	0.98220
1548.85186	0.98216
1546.79495	0.98227
1544.73805	0.98283
1542.68114	0.98356
1540.62423	0.98381
1538.56732	0.98339
1536.51041	0.98298
1534.45350	0.98272
1532.39660	0.98252
1530.33969	0.98248
1528.28278	0.98265
1526.22587	0.98285
1524.16896	0.98286
1522.11206	0.98278
1520.05515	0.98289
1517.99824	0.98302
1515.94133	0.98306
1513.88442	0.98317
1511.82751	0.98350
1509.77061	0.98381
1507.71370	0.98382
1505.65679	0.98375
1503.59988	0.98388
1501.54297	0.98400
1499.48607	0.98419
1497.42916	0.98451
1495.37225	0.98447
1493.31534	0.98412
1491.25843	0.98400
1489.20152	0.98419
1487.14462	0.98414
1485.08771	0.98388
1483.03080	0.98379
1480.97389	0.98376
1478.91698	0.98363
1476.86008	0.98344
1474.80317	0.98303
1472.74626	0.98226
1470.68935	0.98110
1468.63244	0.97979
1466.57553	0.97834
1464.51863	0.97693
1462.46172	0.97599
1460.40481	0.97530
1458.34790	0.97429
1456.29099	0.97277
1454.23409	0.97195
1452.17718	0.97165
1450.12027	0.97122
1448.06336	0.97036
1446.00645	0.96913
1443.94954	0.96795
1441.89264	0.96675
1439.83573	0.96554
1437.77882	0.96432
1435.72191	0.96319
1433.66500	0.96285
1431.60810	0.96302
1429.55119	0.96351
1427.49428	0.96439
1425.43737	0.96544
1423.38046	0.96662
1421.32355	0.96774
1419.26665	0.96866
1417.20974	0.96955
1415.15283	0.97052
1413.09592	0.97153
1411.03901	0.97255
1408.98211	0.97326
1406.92520	0.97366
1404.86829	0.97398
1402.81138	0.97410
1400.75447	0.97405
1398.69756	0.97363
1396.64066	0.97240
1394.58375	0.97010
1392.52684	0.96694
1390.46993	0.96335
1388.41302	0.95877
1386.35612	0.95294
1384.29921	0.94690
1382.24230	0.94099
1380.18539	0.93526
1378.12848	0.93001
1376.07157	0.92492
1374.01467	0.91939
1371.95776	0.91420
1369.90085	0.91000
1367.84394	0.90679
1365.78703	0.90585
1363.73013	0.90840
1361.67322	0.91491
1359.61631	0.92422
1357.55940	0.93471
1355.50249	0.94514
1353.44558	0.95395
1351.38868	0.96033
1349.33177	0.96458
1347.27486	0.96746
1345.21795	0.96962
1343.16104	0.97130
1341.10414	0.97259
1339.04723	0.97350
1336.99032	0.97377
1334.93341	0.97365
1332.87650	0.97358
1330.81959	0.97347
1328.76269	0.97307
1326.70578	0.97257
1324.64887	0.97234
1322.59196	0.97232
1320.53505	0.97244
1318.47815	0.97292
1316.42124	0.97374
1314.36433	0.97457
1312.30742	0.97522
1310.25051	0.97564
1308.19360	0.97601
1306.13670	0.97653
1304.07979	0.97683
1302.02288	0.97660
1299.96597	0.97596
1297.90906	0.97509
1295.85216	0.97444
1293.79525	0.97405
1291.73834	0.97345
1289.68143	0.97255
1287.62452	0.97167
1285.56761	0.97089
1283.51071	0.96968
1281.45380	0.96777
1279.39689	0.96557
1277.33998	0.96330
1275.28307	0.96078
1273.22617	0.95794
1271.16926	0.95471
1269.11235	0.95098
1267.05544	0.94681
1264.99853	0.94206
1262.94162	0.93675
1260.88472	0.93125
1258.82781	0.92562
1256.77090	0.91946
1254.71399	0.91278
1252.65708	0.90569
1250.60018	0.89809
1248.54327	0.89025
1246.48636	0.88236
1244.42945	0.87399
1242.37254	0.86512
1240.31563	0.85634
1238.25873	0.84794
1236.20182	0.83992
1234.14491	0.83227
1232.08800	0.82546
1230.03109	0.81988
1227.97419	0.81542
1225.91728	0.81207
1223.86037	0.80982
1221.80346	0.80804
1219.74655	0.80610
1217.68964	0.80392
1215.63274	0.80167
1213.57583	0.79973
1211.51892	0.79867
1209.46201	0.79928
1207.40510	0.80220
1205.34820	0.80776
1203.29129	0.81606
1201.23438	0.82700
1199.17747	0.83984
1197.12056	0.85318
1195.06365	0.86578
1193.00675	0.87696
1190.94984	0.88640
1188.89293	0.89394
1186.83602	0.89962
1184.77911	0.90368
1182.72221	0.90638
1180.66530	0.90788
1178.60839	0.90835
1176.55148	0.90789
1174.49457	0.90704
1172.43766	0.90644
1170.38076	0.90612
1168.32385	0.90587
1166.26694	0.90588
1164.21003	0.90633
1162.15312	0.90708
1160.09622	0.90797
1158.03931	0.90922
1155.98240	0.91126
1153.92549	0.91391
1151.86858	0.91653
1149.81167	0.91893
1147.75477	0.92122
1145.69786	0.92335
1143.64095	0.92492
1141.58404	0.92570
1139.52713	0.92578
1137.47023	0.92521
1135.41332	0.92416
1133.35641	0.92281
1131.29950	0.92135
1129.24259	0.91974
1127.18568	0.91811
1125.12878	0.91697
1123.07187	0.91648
1121.01496	0.91660
1118.95805	0.91712
1116.90114	0.91785
1114.84424	0.91880
1112.78733	0.91989
1110.73042	0.92049
1108.67351	0.92039
1106.61660	0.92008
1104.55969	0.92001
1102.50279	0.91970
1100.44588	0.91806
1098.38897	0.91490
1096.33206	0.91093
1094.27515	0.90672
1092.21825	0.90245
1090.16134	0.89816
1088.10443	0.89401
1086.04752	0.88995
1083.99061	0.88608
1081.93370	0.88255
1079.87680	0.87899
1077.81989	0.87497
1075.76298	0.87065
1073.70607	0.86664
1071.64916	0.86346
1069.59226	0.86073
1067.53535	0.85775
1065.47844	0.85452
1063.42153	0.85144
1061.36462	0.84834
1059.30771	0.84440
1057.25081	0.83912
1055.19390	0.83300
1053.13699	0.82683
1051.08008	0.82084
1049.02317	0.81525
1046.96627	0.81046
1044.90936	0.80657
1042.85245	0.80321
1040.79554	0.80005
1038.73863	0.79727
1036.68172	0.79493
1034.62482	0.79284
1032.56791	0.79126
1030.51100	0.79072
1028.45409	0.79162
1026.39718	0.79417
1024.34028	0.79818
1022.28337	0.80288
1020.22646	0.80766
1018.16955	0.81280
1016.11264	0.81836
1014.05573	0.82388
1011.99883	0.82943
1009.94192	0.83508
1007.88501	0.84031
1005.82810	0.84529
1003.77119	0.85051
1001.71429	0.85571
999.65738	0.86033
997.60047	0.86413
995.54356	0.86712
993.48665	0.86936
991.42974	0.87118
989.37284	0.87318
987.31593	0.87534
985.25902	0.87726
983.20211	0.87925
981.14520	0.88169
979.08830	0.88447
977.03139	0.88746
974.97448	0.89069
972.91757	0.89413
970.86066	0.89785
968.80375	0.90150
966.74685	0.90443
964.68994	0.90635
962.63303	0.90764
960.57612	0.90888
958.51921	0.90975
956.46231	0.90974
954.40540	0.90942
952.34849	0.90964
950.29158	0.91062
948.23467	0.91196
946.17776	0.91348
944.12086	0.91538
942.06395	0.91736
940.00704	0.91890
937.95013	0.91996
935.89322	0.92075
933.83632	0.92144
931.77941	0.92195
929.72250	0.92193
927.66559	0.92127
925.60868	0.92067
923.55177	0.92022
921.49487	0.91887
919.43796	0.91703
917.38105	0.91604
915.32414	0.91556
913.26723	0.91458
911.21033	0.91278
909.15342	0.91004
907.09651	0.90678
905.03960	0.90387
902.98269	0.90140
900.92578	0.89927
898.86888	0.89810
896.81197	0.89859
894.75506	0.90061
892.69815	0.90348
890.64124	0.90685
888.58434	0.91028
886.52743	0.91283
884.47052	0.91425
882.41361	0.91522
880.35670	0.91569
878.29979	0.91527
876.24289	0.91489
874.18598	0.91549
872.12907	0.91698
870.07216	0.91924
868.01525	0.92208
865.95835	0.92532
863.90144	0.92864
861.84453	0.93107
859.78762	0.93195
857.73071	0.93210
855.67380	0.93271
853.61690	0.93412
851.55999	0.93587
849.50308	0.93667
847.44617	0.93629
845.38926	0.93570
843.33236	0.93486
841.27545	0.93370
839.21854	0.93331
837.16163	0.93368
835.10472	0.93413
833.04781	0.93474
830.99091	0.93576
828.93400	0.93742
826.87709	0.93955
824.82018	0.94163
822.76327	0.94294
820.70637	0.94331
818.64946	0.94350
816.59255	0.94395
814.53564	0.94494
812.47873	0.94618
810.42182	0.94665
808.36492	0.94675
806.30801	0.94732
804.25110	0.94799
802.19419	0.94870
800.13728	0.94948
798.08038	0.94978
796.02347	0.94979
793.96656	0.95002
791.90965	0.95045
789.85274	0.95124
787.79583	0.95211
785.73893	0.95252
783.68202	0.95281
781.62511	0.95316
779.56820	0.95332
777.51129	0.95332
775.45439	0.95328
773.39748	0.95373
771.34057	0.95431
769.28366	0.95404
767.22675	0.95343
765.16984	0.95340
763.11294	0.95368
761.05603	0.95364
758.99912	0.95374
756.94221	0.95442
754.88530	0.95485
752.82839	0.95480
750.77149	0.95477
748.71458	0.95495
746.65767	0.95527
744.60076	0.95569
742.54385	0.95636
740.48695	0.95706
738.43004	0.95731
736.37313	0.95729
734.31622	0.95724
732.25931	0.95676
730.20240	0.95592
728.14550	0.95551
726.08859	0.95550
724.03168	0.95519
721.97477	0.95438
719.91786	0.95380
717.86096	0.95417
715.80405	0.95482
713.74714	0.95492
711.69023	0.95407
709.63332	0.95251
707.57641	0.95132
705.51951	0.95070
703.46260	0.95025
701.40569	0.94991
699.34878	0.94955
697.29187	0.94920
695.23497	0.94888
693.17806	0.94857
691.12115	0.94845
689.06424	0.94820
687.00733	0.94797
684.95042	0.94862
682.89352	0.94958
680.83661	0.95027
678.77970	0.95051
676.72279	0.94987
674.66588	0.94951
672.60898	0.95002
670.55207	0.95060
668.49516	0.95071
666.43825	0.94993
664.38134	0.94939
662.32443	0.94927
660.26753	0.94898
658.21062	0.94863
656.15371	0.94835
654.09680	0.94790
652.03989	0.94710
649.98299	0.94583
647.92608	0.94443
645.86917	0.94320
643.81226	0.94222
641.75535	0.94204
639.69844	0.94270
637.64154	0.94300
635.58463	0.94246
633.52772	0.94197
631.47081	0.94154
629.41390	0.94059
627.35700	0.93937
625.30009	0.93837
623.24318	0.93738
621.18627	0.93560
619.12936	0.93316
617.07245	0.93132
615.01555	0.93015
612.95864	0.92836
610.90173	0.92548
608.84482	0.92107
606.78791	0.91520
604.73101	0.90949
602.67410	0.90562
600.61719	0.90441
598.56028	0.90553
596.50337	0.90794
594.44646	0.91072
592.38956	0.91321
590.33265	0.91560
588.27574	0.91905
586.21883	0.92355
584.16192	0.92759
582.10502	0.93106
580.04811	0.93442
577.99120	0.93682
575.93429	0.93784
573.87738	0.93814
571.82047	0.93839
569.76357	0.93860
567.70666	0.93886
565.64975	0.93909
563.59284	0.93852
561.53593	0.93718
559.47903	0.93518
557.42212	0.93268
555.36521	0.93136
553.30830	0.93238
551.25139	0.93475
549.19448	0.93700
547.13758	0.93874
545.08067	0.93988
543.02376	0.94040
540.96685	0.94068
538.90994	0.94176
536.85304	0.94315
534.79613	0.94288
532.73922	0.94163
530.68231	0.94119
528.62540	0.94223
526.56849	0.94328
524.51159	0.94301
522.45468	0.94375
520.39777	0.94561
518.34086	0.94594
516.28395	0.94447
514.22705	0.94261
512.17014	0.94066
510.11323	0.93935
508.05632	0.94021
505.99941	0.94193
503.94250	0.94199
501.88560	0.94122
499.82869	0.94056
497.77178	0.93886
495.71487	0.93676
493.65796	0.93593
491.60106	0.93622
489.54415	0.93640
487.48724	0.93561
485.43033	0.93381
483.37342	0.93183
481.31651	0.93098
479.25961	0.93152
477.20270	0.93190
475.14579	0.93081
473.08888	0.93048
471.03197	0.93232
468.97507	0.93399
466.91816	0.93494
464.86125	0.93483
462.80434	0.93241
460.74743	0.92967
458.69052	0.92901
456.63362	0.92757
454.57671	0.92486
452.51980	0.92391
450.46289	0.92399
448.40598	0.92379
446.34908	0.92325
444.29217	0.92351
442.23526	0.92634
440.17835	0.92893
438.12144	0.92843
436.06453	0.92781
434.00763	0.92815
431.95072	0.92808
429.89381	0.92945
427.83690	0.93141
425.77999	0.93141
423.72309	0.93108
421.66618	0.93193
419.60927	0.93220
417.55236	0.93339
415.49545	0.93598
413.43854	0.93525
411.38164	0.93158
409.32473	0.92909
407.26782	0.92734
405.21091	0.92493
403.15400	0.92317
401.09710	0.92044
399.04019	0.91837
