3996.57260	0.98677
3994.51569	0.98730
3992.45878	0.98826
3990.40188	0.98877
3988.34497	0.98859
3986.28806	0.98809
3984.23115	0.98771
3982.17424	0.98718
3980.11733	0.98693
3978.06043	0.98784
3976.00352	0.98905
3973.94661	0.98943
3971.88970	0.98933
3969.83279	0.98880
3967.77589	0.98772
3965.71898	0.98736
3963.66207	0.98826
3961.60516	0.98903
3959.54825	0.98878
3957.49134	0.98790
3955.43444	0.98721
3953.37753	0.98718
3951.32062	0.98734
3949.26371	0.98752
3947.20680	0.98818
3945.14990	0.98864
3943.09299	0.98830
3941.03608	0.98812
3938.97917	0.98825
3936.92226	0.98824
3934.86535	0.98829
3932.80845	0.98840
3930.75154	0.98817
3928.69463	0.98761
3926.63772	0.98713
3924.58081	0.98710
3922.52391	0.98779
3920.46700	0.98843
3918.41009	0.98817
3916.35318	0.98768
3914.29627	0.98762
3912.23936	0.98802
3910.18246	0.98827
3908.12555	0.98812
3906.06864	0.98830
3904.01173	0.98839
3901.95482	0.98775
3899.89792	0.98761
3897.84101	0.98845
3895.78410	0.98914
3893.72719	0.98919
3891.67028	0.98926
3889.61337	0.98962
3887.55647	0.98956
3885.49956	0.98884
3883.44265	0.98810
3881.38574	0.98807
3879.32883	0.98858
3877.27193	0.98900
3875.21502	0.98925
3873.15811	0.98902
3871.10120	0.98815
3869.04429	0.98751
3866.98738	0.98767
3864.93048	0.98823
3862.87357	0.98851
3860.81666	0.98870
3858.75975	0.98940
3856.70284	0.98973
3854.64594	0.98862
3852.58903	0.98742
3850.53212	0.98813
3848.47521	0.98894
3846.41830	0.98873
3844.36139	0.98790
3842.30449	0.98762
3840.24758	0.98816
3838.19067	0.98806
3836.13376	0.98735
3834.07685	0.98765
3832.01995	0.98842
3829.96304	0.98883
3827.90613	0.98896
3825.84922	0.98861
3823.79231	0.98802
3821.73540	0.98770
3819.67850	0.98745
3817.62159	0.98751
3815.56468	0.98797
3813.50777	0.98839
3811.45086	0.98881
3809.39396	0.98890
3807.33705	0.98847
3805.28014	0.98850
3803.22323	0.98895
3801.16632	0.98871
3799.10941	0.98800
3797.05251	0.98785
3794.99560	0.98802
3792.93869	0.98815
3790.88178	0.98832
3788.82487	0.98829
3786.76796	0.98790
3784.71106	0.98735
3782.65415	0.98693
3780.59724	0.98686
3778.54033	0.98734
3776.48342	0.98830
3774.42652	0.98931
3772.36961	0.98983
3770.31270	0.98956
3768.25579	0.98900
3766.19888	0.98891
3764.14197	0.98898
3762.08507	0.98882
3760.02816	0.98839
3757.97125	0.98759
3755.91434	0.98687
3753.85743	0.98655
3751.80053	0.98652
3749.74362	0.98703
3747.68671	0.98775
3745.62980	0.98819
3743.57289	0.98851
3741.51598	0.98840
3739.45908	0.98808
3737.40217	0.98779
3735.34526	0.98814
3733.28835	0.98959
3731.23144	0.99022
3729.17454	0.99003
3727.11763	0.98994
3725.06072	0.98941
3723.00381	0.98890
3720.94690	0.98909
3718.88999	0.98944
3716.83309	0.98958
3714.77618	0.98956
3712.71927	0.98972
3710.66236	0.98996
3708.60545	0.98936
3706.54855	0.98862
3704.49164	0.98878
3702.43473	0.98920
3700.37782	0.98893
3698.32091	0.98840
3696.26400	0.98855
3694.20710	0.98927
3692.15019	0.98966
3690.09328	0.98967
3688.03637	0.98993
3685.97946	0.98991
3683.92256	0.98933
3681.86565	0.98925
3679.80874	0.99010
3677.75183	0.99103
3675.69492	0.99090
3673.63801	0.98950
3671.58111	0.98841
3669.52420	0.98804
3667.46729	0.98807
3665.41038	0.98814
3663.35347	0.98799
3661.29657	0.98789
3659.23966	0.98836
3657.18275	0.98890
3655.12584	0.98868
3653.06893	0.98848
3651.01202	0.98894
3648.95512	0.98956
3646.89821	0.98969
3644.84130	0.98923
3642.78439	0.98832
3640.72748	0.98746
3638.67058	0.98756
3636.61367	0.98843
3634.55676	0.98875
3632.49985	0.98807
3630.44294	0.98720
3628.38603	0.98688
3626.32913	0.98735
3624.27222	0.98827
3622.21531	0.98860
3620.15840	0.98746
3618.10149	0.98609
3616.04459	0.98608
3613.98768	0.98637
3611.93077	0.98596
3609.87386	0.98563
3607.81695	0.98605
3605.76004	0.98657
3603.70314	0.98662
3601.64623	0.98643
3599.58932	0.98608
3597.53241	0.98542
3595.47550	0.98490
3593.41860	0.98483
3591.36169	0.98486
3589.30478	0.98503
3587.24787	0.98511
3585.19096	0.98484
3583.13405	0.98471
3581.07715	0.98432
3579.02024	0.98387
3576.96333	0.98389
3574.90642	0.98371
3572.84951	0.98341
3570.79261	0.98369
3568.73570	0.98399
3566.67879	0.98352
3564.62188	0.98294
3562.56497	0.98304
3560.50806	0.98322
3558.45116	0.98298
3556.39425	0.98280
3554.33734	0.98257
3552.28043	0.98221
3550.22352	0.98225
3548.16662	0.98204
3546.10971	0.98098
3544.05280	0.98020
3541.99589	0.98052
3539.93898	0.98111
3537.88207	0.98121
3535.82517	0.98055
3533.76826	0.97933
3531.71135	0.97860
3529.65444	0.97859
3527.59753	0.97847
3525.54063	0.97816
3523.48372	0.97803
3521.42681	0.97773
3519.36990	0.97698
3517.31299	0.97629
3515.25608	0.97603
3513.19918	0.97603
3511.14227	0.97603
3509.08536	0.97594
3507.02845	0.97613
3504.97154	0.97631
3502.91464	0.97587
3500.85773	0.97506
3498.80082	0.97451
3496.74391	0.97442
3494.68700	0.97416
3492.63009	0.97362
3490.57319	0.97337
3488.51628	0.97333
3486.45937	0.97359
3484.40246	0.97379
3482.34555	0.97289
3480.28865	0.97180
3478.23174	0.97179
3476.17483	0.97193
3474.11792	0.97143
3472.06101	0.97072
3470.00410	0.97011
3467.94720	0.96967
3465.89029	0.96965
3463.83338	0.96997
3461.77647	0.97018
3459.71956	0.97003
3457.66266	0.97014
3455.60575	0.97072
3453.54884	0.97072
3451.49193	0.96969
3449.43502	0.96842
3447.37811	0.96795
3445.32121	0.96848
3443.26430	0.96932
3441.20739	0.96988
3439.15048	0.96962
3437.09357	0.96857
3435.03667	0.96788
3432.97976	0.96785
3430.92285	0.96757
3428.86594	0.96688
3426.80903	0.96664
3424.75212	0.96730
3422.69522	0.96833
3420.63831	0.96843
3418.58140	0.96793
3416.52449	0.96823
3414.46758	0.96859
3412.41068	0.96826
3410.35377	0.96762
3408.29686	0.96700
3406.23995	0.96701
3404.18304	0.96755
3402.12613	0.96779
3400.06923	0.96751
3398.01232	0.96719
3395.95541	0.96725
3393.89850	0.96727
3391.84159	0.96699
3389.78469	0.96706
3387.72778	0.96743
3385.67087	0.96746
3383.61396	0.96709
3381.55705	0.96687
3379.50014	0.96710
3377.44324	0.96761
3375.38633	0.96817
3373.32942	0.96848
3371.27251	0.96827
3369.21560	0.96773
3367.15870	0.96766
3365.10179	0.96809
3363.04488	0.96805
3360.98797	0.96788
3358.93106	0.96815
3356.87415	0.96846
3354.81725	0.96845
3352.76034	0.96786
3350.70343	0.96716
3348.64652	0.96714
3346.58961	0.96783
3344.53271	0.96873
3342.47580	0.96923
3340.41889	0.96907
3338.36198	0.96900
3336.30507	0.96959
3334.24816	0.97021
3332.19126	0.97041
3330.13435	0.97024
3328.07744	0.96954
3326.02053	0.96872
3323.96362	0.96847
3321.90672	0.96874
3319.84981	0.96937
3317.79290	0.96996
3315.73599	0.96979
3313.67908	0.96937
3311.62217	0.96971
3309.56527	0.97015
3307.50836	0.97002
3305.45145	0.96964
3303.39454	0.96935
3301.33763	0.96941
3299.28073	0.96955
3297.22382	0.96964
3295.16691	0.96993
3293.11000	0.97065
3291.05309	0.97164
3288.99618	0.97210
3286.93928	0.97172
3284.88237	0.97124
3282.82546	0.97115
3280.76855	0.97120
3278.71164	0.97119
3276.65474	0.97123
3274.59783	0.97133
3272.54092	0.97131
3270.48401	0.97111
3268.42710	0.97100
3266.37019	0.97144
3264.31329	0.97210
3262.25638	0.97209
3260.19947	0.97168
3258.14256	0.97190
3256.08565	0.97246
3254.02875	0.97262
3251.97184	0.97288
3249.91493	0.97315
3247.85802	0.97289
3245.80111	0.97290
3243.74420	0.97323
3241.68730	0.97310
3239.63039	0.97299
3237.57348	0.97324
3235.51657	0.97335
3233.45966	0.97332
3231.40276	0.97379
3229.34585	0.97492
3227.28894	0.97562
3225.23203	0.97512
3223.17512	0.97456
3221.11821	0.97480
3219.06131	0.97499
3217.00440	0.97504
3214.94749	0.97536
3212.89058	0.97549
3210.83367	0.97555
3208.77677	0.97573
3206.71986	0.97567
3204.66295	0.97573
3202.60604	0.97622
3200.54913	0.97670
3198.49222	0.97696
3196.43532	0.97694
3194.37841	0.97683
3192.32150	0.97698
3190.26459	0.97702
3188.20768	0.97674
3186.15078	0.97668
3184.09387	0.97688
3182.03696	0.97697
3179.98005	0.97699
3177.92314	0.97733
3175.86623	0.97773
3173.80933	0.97768
3171.75242	0.97777
3169.69551	0.97854
3167.63860	0.97923
3165.58169	0.97929
3163.52479	0.97905
3161.46788	0.97882
3159.41097	0.97873
3157.35406	0.97878
3155.29715	0.97897
3153.24024	0.97885
3151.18334	0.97849
3149.12643	0.97868
3147.06952	0.97912
3145.01261	0.97931
3142.95570	0.97923
3140.89880	0.97884
3138.84189	0.97861
3136.78498	0.97848
3134.72807	0.97806
3132.67116	0.97801
3130.61425	0.97877
3128.55735	0.97967
3126.50044	0.98025
3124.44353	0.98069
3122.38662	0.98079
3120.32971	0.98038
3118.27281	0.98015
3116.21590	0.98038
3114.15899	0.98065
3112.10208	0.98072
3110.04517	0.98053
3107.98826	0.98029
3105.93136	0.98051
3103.87445	0.98101
3101.81754	0.98119
3099.76063	0.98115
3097.70372	0.98125
3095.64682	0.98148
3093.58991	0.98141
3091.53300	0.98105
3089.47609	0.98090
3087.41918	0.98103
3085.36227	0.98103
3083.30537	0.98098
3081.24846	0.98160
3079.19155	0.98238
3077.13464	0.98261
3075.07773	0.98275
3073.02083	0.98266
3070.96392	0.98234
3068.90701	0.98241
3066.85010	0.98258
3064.79319	0.98249
3062.73628	0.98241
3060.67938	0.98260
3058.62247	0.98297
3056.56556	0.98311
3054.50865	0.98276
3052.45174	0.98225
3050.39484	0.98199
3048.33793	0.98222
3046.28102	0.98266
3044.22411	0.98265
3042.16720	0.98259
3040.11029	0.98287
3038.05339	0.98296
3035.99648	0.98270
3033.93957	0.98272
3031.88266	0.98324
3029.82575	0.98373
3027.76885	0.98378
3025.71194	0.98342
3023.65503	0.98284
3021.59812	0.98236
3019.54121	0.98233
3017.48430	0.98289
3015.42740	0.98364
3013.37049	0.98404
3011.31358	0.98402
3009.25667	0.98363
3007.19976	0.98324
3005.14286	0.98315
3003.08595	0.98308
3001.02904	0.98300
2998.97213	0.98296
2996.91522	0.98292
2994.85831	0.98314
2992.80141	0.98339
2990.74450	0.98316
2988.68759	0.98282
2986.63068	0.98274
2984.57377	0.98298
2982.51687	0.98338
2980.45996	0.98345
2978.40305	0.98310
2976.34614	0.98265
2974.28923	0.98212
2972.23232	0.98165
2970.17542	0.98146
2968.11851	0.98145
2966.06160	0.98143
2964.00469	0.98138
2961.94778	0.98114
2959.89088	0.98066
2957.83397	0.98020
2955.77706	0.97997
2953.72015	0.97987
2951.66324	0.97965
2949.60633	0.97954
2947.54943	0.97971
2945.49252	0.97963
2943.43561	0.97907
2941.37870	0.97849
2939.32179	0.97826
2937.26489	0.97815
2935.20798	0.97805
2933.15107	0.97828
2931.09416	0.97858
2929.03725	0.97840
2926.98034	0.97760
2924.92344	0.97679
2922.86653	0.97670
2920.80962	0.97698
2918.75271	0.97706
2916.69580	0.97730
2914.63890	0.97766
2912.58199	0.97738
2910.52508	0.97683
2908.46817	0.97663
2906.41126	0.97678
2904.35435	0.97693
2902.29745	0.97655
2900.24054	0.97600
2898.18363	0.97581
2896.12672	0.97573
2894.06981	0.97562
2892.01291	0.97540
2889.95600	0.97511
2887.89909	0.97516
2885.84218	0.97579
2883.78527	0.97633
2881.72836	0.97609
2879.67146	0.97553
2877.61455	0.97552
2875.55764	0.97596
2873.50073	0.97615
2871.44382	0.97628
2869.38692	0.97669
2867.33001	0.97705
2865.27310	0.97734
2863.21619	0.97782
2861.15928	0.97832
2859.10237	0.97834
2857.04547	0.97806
2854.98856	0.97799
2852.93165	0.97799
2850.87474	0.97802
2848.81783	0.97828
2846.76093	0.97890
2844.70402	0.97958
2842.64711	0.97988
2840.59020	0.98007
2838.53329	0.98025
2836.47638	0.98021
2834.41948	0.98010
2832.36257	0.97998
2830.30566	0.98001
2828.24875	0.98027
2826.19184	0.98043
2824.13494	0.98073
2822.07803	0.98124
2820.02112	0.98145
2817.96421	0.98148
2815.90730	0.98153
2813.85039	0.98130
2811.79349	0.98118
2809.73658	0.98153
2807.67967	0.98167
2805.62276	0.98144
2803.56585	0.98158
2801.50895	0.98211
2799.45204	0.98230
2797.39513	0.98194
2795.33822	0.98160
2793.28131	0.98166
2791.22440	0.98185
2789.16750	0.98216
2787.11059	0.98254
2785.05368	0.98260
2782.99677	0.98236
2780.93986	0.98215
2778.88296	0.98229
2776.82605	0.98272
2774.76914	0.98301
2772.71223	0.98289
2770.65532	0.98260
2768.59841	0.98233
2766.54151	0.98212
2764.48460	0.98208
2762.42769	0.98220
2760.37078	0.98229
2758.31387	0.98236
2756.25697	0.98262
2754.20006	0.98302
2752.14315	0.98328
2750.08624	0.98346
2748.02933	0.98360
2745.97242	0.98359
2743.91552	0.98338
2741.85861	0.98304
2739.80170	0.98290
2737.74479	0.98294
2735.68788	0.98280
2733.63098	0.98280
2731.57407	0.98318
2729.51716	0.98328
2727.46025	0.98288
2725.40334	0.98261
2723.34643	0.98273
2721.28953	0.98306
2719.23262	0.98318
2717.17571	0.98285
2715.11880	0.98246
2713.06189	0.98264
2711.00499	0.98305
2708.94808	0.98320
2706.89117	0.98337
2704.83426	0.98328
2702.77735	0.98297
2700.72044	0.98320
2698.66354	0.98371
2696.60663	0.98381
2694.54972	0.98375
2692.49281	0.98364
2690.43590	0.98331
2688.37900	0.98304
2686.32209	0.98308
2684.26518	0.98326
2682.20827	0.98329
2680.15136	0.98318
2678.09445	0.98324
2676.03755	0.98350
2673.98064	0.98363
2671.92373	0.98348
2669.86682	0.98341
2667.80991	0.98370
2665.75301	0.98389
2663.69610	0.98359
2661.63919	0.98316
2659.58228	0.98306
2657.52537	0.98312
2655.46846	0.98311
2653.41156	0.98314
2651.35465	0.98314
2649.29774	0.98305
2647.24083	0.98291
2645.18392	0.98287
2643.12702	0.98314
2641.07011	0.98352
2639.01320	0.98368
2636.95629	0.98344
2634.89938	0.98293
2632.84247	0.98275
2630.78557	0.98299
2628.72866	0.98350
2626.67175	0.98428
2624.61484	0.98470
2622.55793	0.98443
2620.50103	0.98399
2618.44412	0.98364
2616.38721	0.98329
2614.33030	0.98314
2612.27339	0.98321
2610.21648	0.98331
2608.15958	0.98335
2606.10267	0.98356
2604.04576	0.98406
2601.98885	0.98436
2599.93194	0.98430
2597.87504	0.98410
2595.81813	0.98402
2593.76122	0.98422
2591.70431	0.98434
2589.64740	0.98421
2587.59049	0.98415
2585.53359	0.98424
2583.47668	0.98424
2581.41977	0.98419
2579.36286	0.98407
2577.30595	0.98391
2575.24905	0.98397
2573.19214	0.98461
2571.13523	0.98561
2569.07832	0.98604
2567.02141	0.98538
2564.96450	0.98441
2562.90760	0.98432
2560.85069	0.98506
2558.79378	0.98545
2556.73687	0.98505
2554.67996	0.98453
2552.62306	0.98435
2550.56615	0.98431
2548.50924	0.98440
2546.45233	0.98472
2544.39542	0.98509
2542.33851	0.98504
2540.28161	0.98466
2538.22470	0.98457
2536.16779	0.98426
2534.11088	0.98367
2532.05397	0.98387
2529.99707	0.98467
2527.94016	0.98518
2525.88325	0.98538
2523.82634	0.98548
2521.76943	0.98505
2519.71252	0.98434
2517.65562	0.98409
2515.59871	0.98423
2513.54180	0.98471
2511.48489	0.98532
2509.42798	0.98575
2507.37108	0.98573
2505.31417	0.98524
2503.25726	0.98466
2501.20035	0.98414
2499.14344	0.98428
2497.08653	0.98530
2495.02963	0.98589
2492.97272	0.98545
2490.91581	0.98516
2488.85890	0.98533
2486.80199	0.98524
2484.74509	0.98533
2482.68818	0.98584
2480.63127	0.98608
2478.57436	0.98587
2476.51745	0.98536
2474.46054	0.98472
2472.40364	0.98449
2470.34673	0.98481
2468.28982	0.98517
2466.23291	0.98531
2464.17600	0.98562
2462.11910	0.98607
2460.06219	0.98571
2458.00528	0.98468
2455.94837	0.98434
2453.89146	0.98476
2451.83455	0.98507
2449.77765	0.98526
2447.72074	0.98561
2445.66383	0.98586
2443.60692	0.98588
2441.55001	0.98572
2439.49311	0.98537
2437.43620	0.98489
2435.37929	0.98490
2433.32238	0.98543
2431.26547	0.98554
2429.20856	0.98556
2427.15166	0.98582
2425.09475	0.98572
2423.03784	0.98540
2420.98093	0.98559
2418.92402	0.98609
2416.86712	0.98608
2414.81021	0.98556
2412.75330	0.98530
2410.69639	0.98551
2408.63948	0.98559
2406.58257	0.98558
2404.52567	0.98574
2402.46876	0.98564
2400.41185	0.98552
2398.35494	0.98593
2396.29803	0.98674
2394.24113	0.98727
2392.18422	0.98683
2390.12731	0.98600
2388.07040	0.98597
2386.01349	0.98643
2383.95658	0.98643
2381.89968	0.98622
2379.84277	0.98627
2377.78586	0.98633
2375.72895	0.98621
2373.67204	0.98615
2371.61514	0.98617
2369.55823	0.98599
2367.50132	0.98643
2365.44441	0.98748
2363.38750	0.98692
2361.33059	0.98539
2359.27369	0.98550
2357.21678	0.98608
2355.15987	0.98594
2353.10296	0.98635
2351.04605	0.98692
2348.98915	0.98686
2346.93224	0.98667
2344.87533	0.98641
2342.81842	0.98524
2340.76151	0.98426
2338.70460	0.98458
2336.64770	0.98482
2334.59079	0.98496
2332.53388	0.98535
2330.47697	0.98518
2328.42006	0.98423
2326.36316	0.98341
2324.30625	0.98366
2322.24934	0.98448
2320.19243	0.98464
2318.13552	0.98428
2316.07861	0.98415
2314.02171	0.98438
2311.96480	0.98469
2309.90789	0.98478
2307.85098	0.98502
2305.79407	0.98559
2303.73717	0.98582
2301.68026	0.98536
2299.62335	0.98473
2297.56644	0.98453
2295.50953	0.98466
2293.45262	0.98474
2291.39572	0.98467
2289.33881	0.98466
2287.28190	0.98469
2285.22499	0.98443
2283.16808	0.98409
2281.11117	0.98448
2279.05427	0.98542
2276.99736	0.98576
2274.94045	0.98568
2272.88354	0.98567
2270.82663	0.98509
2268.76973	0.98462
2266.71282	0.98558
2264.65591	0.98662
2262.59900	0.98647
2260.54209	0.98630
2258.48518	0.98710
2256.42828	0.98767
2254.37137	0.98692
2252.31446	0.98605
2250.25755	0.98577
2248.20064	0.98603
2246.14374	0.98690
2244.08683	0.98768
2242.02992	0.98746
2239.97301	0.98644
2237.91610	0.98573
2235.85919	0.98580
2233.80229	0.98602
2231.74538	0.98557
2229.68847	0.98479
2227.63156	0.98529
2225.57465	0.98693
2223.51775	0.98795
2221.46084	0.98873
2219.40393	0.98953
2217.34702	0.98928
2215.29011	0.98881
2213.23320	0.98944
2211.17630	0.99086
2209.11939	0.99148
2207.06248	0.99058
2205.00557	0.98981
2202.94866	0.98954
2200.89176	0.98809
2198.83485	0.98596
2196.77794	0.98544
2194.72103	0.98678
2192.66412	0.98786
2190.60721	0.98766
2188.55031	0.98751
2186.49340	0.98850
2184.43649	0.98975
2182.37958	0.98978
2180.32267	0.98827
2178.26577	0.98613
2176.20886	0.98505
2174.15195	0.98514
2172.09504	0.98556
2170.03813	0.98719
2167.98122	0.98855
2165.92432	0.98660
2163.86741	0.98432
2161.81050	0.98645
2159.75359	0.99092
2157.69668	0.99248
2155.63978	0.99129
2153.58287	0.99100
2151.52596	0.99145
2149.46905	0.99082
2147.41214	0.99013
2145.35523	0.98970
2143.29833	0.98915
2141.24142	0.98885
2139.18451	0.98821
2137.12760	0.98743
2135.07069	0.98714
2133.01379	0.98787
2130.95688	0.98896
2128.89997	0.98879
2126.84306	0.98774
2124.78615	0.98703
2122.72924	0.98733
2120.67234	0.98792
2118.61543	0.98779
2116.55852	0.98771
2114.50161	0.98835
2112.44470	0.98924
2110.38780	0.98967
2108.33089	0.98877
2106.27398	0.98671
2104.21707	0.98566
2102.16016	0.98629
2100.10325	0.98678
2098.04635	0.98694
2095.98944	0.98770
2093.93253	0.98829
2091.87562	0.98827
2089.81871	0.98834
2087.76181	0.98840
2085.70490	0.98783
2083.64799	0.98698
2081.59108	0.98665
2079.53417	0.98621
2077.47726	0.98569
2075.42036	0.98621
2073.36345	0.98754
2071.30654	0.98906
2069.24963	0.98939
2067.19272	0.98817
2065.13582	0.98747
2063.07891	0.98778
2061.02200	0.98742
2058.96509	0.98600
2056.90818	0.98507
2054.85127	0.98546
2052.79437	0.98598
2050.73746	0.98585
2048.68055	0.98599
2046.62364	0.98710
2044.56673	0.98817
2042.50983	0.98819
2040.45292	0.98734
2038.39601	0.98476
2036.33910	0.98197
2034.28219	0.98294
2032.22528	0.98616
2030.16838	0.98841
2028.11147	0.98944
2026.05456	0.98874
2023.99765	0.98733
2021.94074	0.98639
2019.88384	0.98477
2017.82693	0.98456
2015.77002	0.98788
2013.71311	0.99132
2011.65620	0.99183
2009.59929	0.98960
2007.54239	0.98758
2005.48548	0.98805
2003.42857	0.98965
2001.37166	0.99138
1999.31475	0.99215
1997.25785	0.99043
1995.20094	0.98727
1993.14403	0.98524
1991.08712	0.98627
1989.03021	0.98869
1986.97330	0.98933
1984.91640	0.98889
1982.85949	0.98901
1980.80258	0.98937
1978.74567	0.98993
1976.68876	0.99090
1974.63186	0.99089
1972.57495	0.98979
1970.51804	0.98883
1968.46113	0.98863
1966.40422	0.98869
1964.34731	0.98794
1962.29041	0.98771
1960.23350	0.98873
1958.17659	0.98898
1956.11968	0.98874
1954.06277	0.98991
1952.00587	0.99121
1949.94896	0.99056
1947.89205	0.98923
1945.83514	0.98918
1943.77823	0.99049
1941.72132	0.99153
1939.66442	0.99074
1937.60751	0.98946
1935.55060	0.98932
1933.49369	0.98945
1931.43678	0.98919
1929.37988	0.98946
1927.32297	0.98951
1925.26606	0.98850
1923.20915	0.98825
1921.15224	0.98904
1919.09533	0.98863
1917.03843	0.98749
1914.98152	0.98779
1912.92461	0.98862
1910.86770	0.98861
1908.81079	0.98867
1906.75389	0.98924
1904.69698	0.98967
1902.64007	0.98996
1900.58316	0.99003
1898.52625	0.99003
1896.46934	0.98987
1894.41244	0.98916
1892.35553	0.98852
1890.29862	0.98852
1888.24171	0.98853
1886.18480	0.98793
1884.12790	0.98733
1882.07099	0.98748
1880.01408	0.98832
1877.95717	0.98940
1875.90026	0.99009
1873.84335	0.98975
1871.78645	0.98883
1869.72954	0.98861
1867.67263	0.98914
1865.61572	0.98929
1863.55881	0.98886
1861.50191	0.98815
1859.44500	0.98778
1857.38809	0.98810
1855.33118	0.98842
1853.27427	0.98845
1851.21736	0.98844
1849.16046	0.98857
1847.10355	0.98884
1845.04664	0.98887
1842.98973	0.98861
1840.93282	0.98838
1838.87592	0.98834
1836.81901	0.98852
1834.76210	0.98885
1832.70519	0.98925
1830.64828	0.98933
1828.59137	0.98910
1826.53447	0.98908
1824.47756	0.98910
1822.42065	0.98882
1820.36374	0.98825
1818.30683	0.98821
1816.24993	0.98903
1814.19302	0.98973
1812.13611	0.98967
1810.07920	0.98922
1808.02229	0.98878
1805.96538	0.98838
1803.90848	0.98815
1801.85157	0.98819
1799.79466	0.98858
1797.73775	0.98921
1795.68084	0.98992
1793.62394	0.99036
1791.56703	0.98987
1789.51012	0.98910
1787.45321	0.98891
1785.39630	0.98890
1783.33939	0.98856
1781.28249	0.98818
1779.22558	0.98802
1777.16867	0.98813
1775.11176	0.98846
1773.05485	0.98840
1770.99795	0.98754
1768.94104	0.98666
1766.88413	0.98604
1764.82722	0.98511
1762.77031	0.98335
1760.71340	0.98085
1758.65650	0.97826
1756.59959	0.97553
1754.54268	0.97302
1752.48577	0.97061
1750.42886	0.96766
1748.37196	0.96477
1746.31505	0.96260
1744.25814	0.96089
1742.20123	0.95931
1740.14432	0.95750
1738.08741	0.95565
1736.03051	0.95400
1733.97360	0.95209
1731.91669	0.95090
1729.85978	0.95080
1727.80287	0.95091
1725.74597	0.95121
1723.68906	0.95188
1721.63215	0.95273
1719.57524	0.95357
1717.51833	0.95453
1715.46142	0.95596
1713.40452	0.95783
1711.34761	0.95988
1709.29070	0.96207
1707.23379	0.96427
1705.17688	0.96615
1703.11998	0.96744
1701.06307	0.96900
1699.00616	0.97131
1696.94925	0.97298
1694.89234	0.97423
1692.83543	0.97551
1690.77853	0.97666
1688.72162	0.97761
1686.66471	0.97822
1684.60780	0.97835
1682.55089	0.97851
1680.49399	0.97899
1678.43708	0.97946
1676.38017	0.97999
1674.32326	0.98046
1672.26635	0.98048
1670.20944	0.98002
1668.15254	0.97978
1666.09563	0.98006
1664.03872	0.98028
1661.98181	0.98032
1659.92490	0.98044
1657.86800	0.98067
1655.81109	0.98097
1653.75418	0.98108
1651.69727	0.98066
1649.64036	0.98023
1647.58345	0.97981
1645.52655	0.97970
1643.46964	0.98010
1641.41273	0.98034
1639.35582	0.98018
1637.29891	0.98010
1635.24201	0.98037
1633.18510	0.98068
1631.12819	0.98091
1629.07128	0.98091
1627.01437	0.98069
1624.95746	0.98054
1622.90056	0.98054
1620.84365	0.98071
1618.78674	0.98084
1616.72983	0.98087
1614.67292	0.98120
1612.61602	0.98164
1610.55911	0.98190
1608.50220	0.98203
1606.44529	0.98229
1604.38838	0.98255
1602.33147	0.98251
1600.27457	0.98234
1598.21766	0.98231
1596.16075	0.98257
1594.10384	0.98285
1592.04693	0.98299
1589.99003	0.98320
1587.93312	0.98339
1585.87621	0.98318
1583.81930	0.98293
1581.76239	0.98316
1579.70548	0.98354
1577.64858	0.98370
1575.59167	0.98362
1573.53476	0.98340
1571.47785	0.98328
1569.42094	0.98343
1567.36404	0.98373
1565.30713	0.98370
1563.25022	0.98338
1561.19331	0.98321
1559.13640	0.98297
1557.07949	0.98250
1555.02259	0.98258
1552.96568	0.98296
1550.90877	0.98337
1548.85186	0.98375
1546.79495	0.98401
1544.73805	0.98411
1542.68114	0.98414
1540.62423	0.98415
1538.56732	0.98404
1536.51041	0.98410
1534.45350	0.98434
1532.39660	0.98437
1530.33969	0.98402
1528.28278	0.98367
1526.22587	0.98366
1524.16896	0.98384
1522.11206	0.98362
1520.05515	0.98317
1517.99824	0.98308
1515.94133	0.98318
1513.88442	0.98327
1511.82751	0.98329
1509.77061	0.98327
1507.71370	0.98304
1505.65679	0.98263
1503.59988	0.98253
1501.54297	0.98264
1499.48607	0.98280
1497.42916	0.98284
1495.37225	0.98263
1493.31534	0.98219
1491.25843	0.98148
1489.20152	0.98068
1487.14462	0.98016
1485.08771	0.97986
1483.03080	0.97969
1480.97389	0.97954
1478.91698	0.97921
1476.86008	0.97862
1474.80317	0.97785
1472.74626	0.97694
1470.68935	0.97590
1468.63244	0.97511
1466.57553	0.97439
1464.51863	0.97351
1462.46172	0.97283
1460.40481	0.97249
1458.34790	0.97203
1456.29099	0.97087
1454.23409	0.96979
1452.17718	0.96913
1450.12027	0.96839
1448.06336	0.96741
1446.00645	0.96660
1443.94954	0.96614
1441.89264	0.96554
1439.83573	0.96468
1437.77882	0.96372
1435.72191	0.96260
1433.66500	0.96161
1431.60810	0.96100
1429.55119	0.96080
1427.49428	0.96083
1425.43737	0.96073
1423.38046	0.96042
1421.32355	0.96010
1419.26665	0.95982
1417.20974	0.95947
1415.15283	0.95928
1413.09592	0.95910
1411.03901	0.95874
1408.98211	0.95840
1406.92520	0.95831
1404.86829	0.95834
1402.81138	0.95848
1400.75447	0.95867
1398.69756	0.95860
1396.64066	0.95821
1394.58375	0.95745
1392.52684	0.95633
1390.46993	0.95514
1388.41302	0.95381
1386.35612	0.95224
1384.29921	0.95082
1382.24230	0.94947
1380.18539	0.94788
1378.12848	0.94625
1376.07157	0.94477
1374.01467	0.94342
1371.95776	0.94249
1369.90085	0.94210
1367.84394	0.94241
1365.78703	0.94340
1363.73013	0.94485
1361.67322	0.94682
1359.61631	0.94891
1357.55940	0.95088
1355.50249	0.95278
1353.44558	0.95421
1351.38868	0.95501
1349.33177	0.95563
1347.27486	0.95621
1345.21795	0.95656
1343.16104	0.95685
1341.10414	0.95718
1339.04723	0.95756
1336.99032	0.95796
1334.93341	0.95829
1332.87650	0.95858
1330.81959	0.95891
1328.76269	0.95924
1326.70578	0.95971
1324.64887	0.96029
1322.59196	0.96054
1320.53505	0.96053
1318.47815	0.96052
1316.42124	0.96055
1314.36433	0.96076
1312.30742	0.96124
1310.25051	0.96170
1308.19360	0.96190
1306.13670	0.96200
1304.07979	0.96226
1302.02288	0.96250
1299.96597	0.96260
1297.90906	0.96272
1295.85216	0.96283
1293.79525	0.96280
1291.73834	0.96259
1289.68143	0.96233
1287.62452	0.96202
1285.56761	0.96138
1283.51071	0.96052
1281.45380	0.95970
1279.39689	0.95878
1277.33998	0.95756
1275.28307	0.95605
1273.22617	0.95445
1271.16926	0.95310
1269.11235	0.95197
1267.05544	0.95060
1264.99853	0.94870
1262.94162	0.94638
1260.88472	0.94393
1258.82781	0.94149
1256.77090	0.93911
1254.71399	0.93677
1252.65708	0.93434
1250.60018	0.93184
1248.54327	0.92919
1246.48636	0.92657
1244.42945	0.92429
1242.37254	0.92221
1240.31563	0.92015
1238.25873	0.91818
1236.20182	0.91662
1234.14491	0.91561
1232.08800	0.91496
1230.03109	0.91466
1227.97419	0.91472
1225.91728	0.91513
1223.86037	0.91620
1221.80346	0.91796
1219.74655	0.92003
1217.68964	0.92247
1215.63274	0.92516
1213.57583	0.92741
1211.51892	0.92899
1209.46201	0.93026
1207.40510	0.93146
1205.34820	0.93267
1203.29129	0.93380
1201.23438	0.93462
1199.17747	0.93504
1197.12056	0.93539
1195.06365	0.93604
1193.00675	0.93685
1190.94984	0.93759
1188.89293	0.93813
1186.83602	0.93825
1184.77911	0.93786
1182.72221	0.93702
1180.66530	0.93574
1178.60839	0.93418
1176.55148	0.93249
1174.49457	0.93048
1172.43766	0.92832
1170.38076	0.92607
1168.32385	0.92341
1166.26694	0.92053
1164.21003	0.91775
1162.15312	0.91513
1160.09622	0.91300
1158.03931	0.91178
1155.98240	0.91130
1153.92549	0.91124
1151.86858	0.91118
1149.81167	0.91092
1147.75477	0.91073
1145.69786	0.91051
1143.64095	0.90995
1141.58404	0.90930
1139.52713	0.90852
1137.47023	0.90705
1135.41332	0.90503
1133.35641	0.90275
1131.29950	0.90025
1129.24259	0.89782
1127.18568	0.89551
1125.12878	0.89311
1123.07187	0.89066
1121.01496	0.88826
1118.95805	0.88594
1116.90114	0.88383
1114.84424	0.88184
1112.78733	0.87983
1110.73042	0.87788
1108.67351	0.87598
1106.61660	0.87420
1104.55969	0.87249
1102.50279	0.87059
1100.44588	0.86857
1098.38897	0.86667
1096.33206	0.86526
1094.27515	0.86384
1092.21825	0.86158
1090.16134	0.85910
1088.10443	0.85718
1086.04752	0.85539
1083.99061	0.85311
1081.93370	0.85047
1079.87680	0.84782
1077.81989	0.84524
1075.76298	0.84273
1073.70607	0.84027
1071.64916	0.83780
1069.59226	0.83546
1067.53535	0.83308
1065.47844	0.83078
1063.42153	0.82921
1061.36462	0.82822
1059.30771	0.82694
1057.25081	0.82535
1055.19390	0.82394
1053.13699	0.82268
1051.08008	0.82136
1049.02317	0.81993
1046.96627	0.81853
1044.90936	0.81743
1042.85245	0.81648
1040.79554	0.81524
1038.73863	0.81370
1036.68172	0.81240
1034.62482	0.81134
1032.56791	0.81004
1030.51100	0.80860
1028.45409	0.80758
1026.39718	0.80722
1024.34028	0.80727
1022.28337	0.80778
1020.22646	0.80880
1018.16955	0.80978
1016.11264	0.81076
1014.05573	0.81233
1011.99883	0.81436
1009.94192	0.81647
1007.88501	0.81878
1005.82810	0.82120
1003.77119	0.82305
1001.71429	0.82432
999.65738	0.82583
997.60047	0.82776
995.54356	0.82982
993.48665	0.83195
991.42974	0.83422
989.37284	0.83659
987.31593	0.83908
985.25902	0.84162
983.20211	0.84436
981.14520	0.84749
979.08830	0.85062
977.03139	0.85346
974.97448	0.85635
972.91757	0.85953
970.86066	0.86265
968.80375	0.86552
966.74685	0.86821
964.68994	0.87074
962.63303	0.87334
960.57612	0.87590
958.51921	0.87822
956.46231	0.88045
954.40540	0.88250
952.34849	0.88430
950.29158	0.88612
948.23467	0.88811
946.17776	0.89006
944.12086	0.89172
942.06395	0.89294
940.00704	0.89363
937.95013	0.89399
935.89322	0.89458
933.83632	0.89535
931.77941	0.89583
929.72250	0.89630
927.66559	0.89724
925.60868	0.89827
923.55177	0.89892
921.49487	0.89910
919.43796	0.89892
917.38105	0.89872
915.32414	0.89882
913.26723	0.89902
911.21033	0.89886
909.15342	0.89827
907.09651	0.89778
905.03960	0.89741
902.98269	0.89679
900.92578	0.89632
898.86888	0.89648
896.81197	0.89722
894.75506	0.89821
892.69815	0.89892
890.64124	0.89940
888.58434	0.90007
886.52743	0.90131
884.47052	0.90350
882.41361	0.90615
880.35670	0.90848
878.29979	0.91012
876.24289	0.91157
874.18598	0.91349
872.12907	0.91563
870.07216	0.91766
868.01525	0.91924
865.95835	0.92044
863.90144	0.92184
861.84453	0.92355
859.78762	0.92522
857.73071	0.92616
855.67380	0.92663
853.61690	0.92743
851.55999	0.92827
849.50308	0.92896
847.44617	0.92933
845.38926	0.92908
843.33236	0.92865
841.27545	0.92851
839.21854	0.92834
837.16163	0.92789
835.10472	0.92763
833.04781	0.92800
830.99091	0.92849
828.93400	0.92821
826.87709	0.92738
824.82018	0.92685
822.76327	0.92681
820.70637	0.92672
818.64946	0.92612
816.59255	0.92528
814.53564	0.92460
812.47873	0.92420
810.42182	0.92414
808.36492	0.92417
806.30801	0.92366
804.25110	0.92307
802.19419	0.92302
800.13728	0.92256
798.08038	0.92175
796.02347	0.92147
793.96656	0.92154
791.90965	0.92178
789.85274	0.92213
787.79583	0.92236
785.73893	0.92258
783.68202	0.92313
781.62511	0.92421
779.56820	0.92535
777.51129	0.92621
775.45439	0.92694
773.39748	0.92753
771.34057	0.92808
769.28366	0.92900
767.22675	0.93022
765.16984	0.93130
763.11294	0.93192
761.05603	0.93199
758.99912	0.93217
756.94221	0.93265
754.88530	0.93269
752.82839	0.93261
750.77149	0.93305
748.71458	0.93352
746.65767	0.93397
744.60076	0.93463
742.54385	0.93464
740.48695	0.93386
738.43004	0.93358
736.37313	0.93386
734.31622	0.93356
732.25931	0.93307
730.20240	0.93326
728.14550	0.93359
726.08859	0.93347
724.03168	0.93301
721.97477	0.93258
719.91786	0.93206
717.86096	0.93131
715.80405	0.93107
713.74714	0.93147
711.69023	0.93120
709.63332	0.92989
707.57641	0.92886
705.51951	0.92853
703.46260	0.92784
701.40569	0.92696
699.34878	0.92669
697.29187	0.92670
695.23497	0.92698
693.17806	0.92744
691.12115	0.92714
689.06424	0.92623
687.00733	0.92576
684.95042	0.92547
682.89352	0.92467
680.83661	0.92334
678.77970	0.92164
676.72279	0.92007
674.66588	0.91896
672.60898	0.91855
670.55207	0.91871
668.49516	0.91843
666.43825	0.91760
664.38134	0.91739
662.32443	0.91788
660.26753	0.91823
658.21062	0.91812
656.15371	0.91844
654.09680	0.91867
652.03989	0.91805
649.98299	0.91744
647.92608	0.91698
645.86917	0.91604
643.81226	0.91529
641.75535	0.91556
639.69844	0.91593
637.64154	0.91539
635.58463	0.91464
633.52772	0.91439
631.47081	0.91414
629.41390	0.91355
627.35700	0.91258
625.30009	0.91195
623.24318	0.91207
621.18627	0.91174
619.12936	0.91061
617.07245	0.90933
615.01555	0.90813
612.95864	0.90705
610.90173	0.90586
608.84482	0.90426
606.78791	0.90268
604.73101	0.90159
602.67410	0.90104
600.61719	0.90135
598.56028	0.90165
596.50337	0.90125
594.44646	0.90150
592.38956	0.90293
590.33265	0.90418
588.27574	0.90427
586.21883	0.90394
584.16192	0.90380
582.10502	0.90293
580.04811	0.90129
577.99120	0.90056
575.93429	0.90114
573.87738	0.90082
571.82047	0.89919
569.76357	0.89769
567.70666	0.89573
565.64975	0.89366
563.59284	0.89352
561.53593	0.89422
559.47903	0.89394
557.42212	0.89350
555.36521	0.89340
553.30830	0.89368
551.25139	0.89405
549.19448	0.89381
547.13758	0.89359
545.08067	0.89356
543.02376	0.89346
540.96685	0.89407
538.90994	0.89422
536.85304	0.89186
534.79613	0.88905
532.73922	0.88768
530.68231	0.88692
528.62540	0.88666
526.56849	0.88671
524.51159	0.88619
522.45468	0.88479
520.39777	0.88233
518.34086	0.87933
516.28395	0.87756
514.22705	0.87680
512.17014	0.87476
510.11323	0.87233
508.05632	0.87141
505.99941	0.86968
503.94250	0.86525
501.88560	0.85938
499.82869	0.85415
497.77178	0.85043
495.71487	0.84754
493.65796	0.84488
491.60106	0.84218
489.54415	0.83891
487.48724	0.83505
485.43033	0.83233
483.37342	0.83134
481.31651	0.82950
479.25961	0.82630
477.20270	0.82394
475.14579	0.82220
473.08888	0.81861
471.03197	0.81422
468.97507	0.81217
466.91816	0.81026
464.86125	0.80660
462.80434	0.80280
460.74743	0.79999
458.69052	0.79902
456.63362	0.79924
454.57671	0.80008
452.51980	0.80183
450.46289	0.80178
448.40598	0.79965
446.34908	0.79984
444.29217	0.80199
442.23526	0.80192
440.17835	0.80027
438.12144	0.79984
436.06453	0.80078
434.00763	0.80192
431.95072	0.80179
429.89381	0.80036
427.83690	0.80228
425.77999	0.80718
423.72309	0.80826
421.66618	0.80537
419.60927	0.80277
417.55236	0.80469
415.49545	0.80867
413.43854	0.80941
411.38164	0.80670
409.32473	0.80487
407.26782	0.80497
405.21091	0.80531
403.15400	0.80766
401.09710	0.80920
399.04019	0.80684
