3996.57260	0.99283
3994.51569	0.99198
3992.45878	0.99106
3990.40188	0.99076
3988.34497	0.99087
3986.28806	0.99100
3984.23115	0.99104
3982.17424	0.99107
3980.11733	0.99076
3978.06043	0.99015
3976.00352	0.99020
3973.94661	0.99096
3971.88970	0.99110
3969.83279	0.99058
3967.77589	0.99065
3965.71898	0.99126
3963.66207	0.99154
3961.60516	0.99134
3959.54825	0.99114
3957.49134	0.99129
3955.43444	0.99171
3953.37753	0.99240
3951.32062	0.99313
3949.26371	0.99295
3947.20680	0.99173
3945.14990	0.99083
3943.09299	0.99131
3941.03608	0.99225
3938.97917	0.99218
3936.92226	0.99177
3934.86535	0.99211
3932.80845	0.99250
3930.75154	0.99206
3928.69463	0.99163
3926.63772	0.99176
3924.58081	0.99201
3922.52391	0.99215
3920.46700	0.99210
3918.41009	0.99163
3916.35318	0.99089
3914.29627	0.99101
3912.23936	0.99187
3910.18246	0.99239
3908.12555	0.99259
3906.06864	0.99248
3904.01173	0.99167
3901.95482	0.99053
3899.89792	0.99004
3897.84101	0.99081
3895.78410	0.99205
3893.72719	0.99279
3891.67028	0.99296
3889.61337	0.99286
3887.55647	0.99270
3885.49956	0.99254
3883.44265	0.99197
3881.38574	0.99107
3879.32883	0.99071
3877.27193	0.99117
3875.21502	0.99154
3873.15811	0.99166
3871.10120	0.99188
3869.04429	0.99231
3866.98738	0.99293
3864.93048	0.99314
3862.87357	0.99327
3860.81666	0.99377
3858.75975	0.99379
3856.70284	0.99356
3854.64594	0.99408
3852.58903	0.99426
3850.53212	0.99294
3848.47521	0.99171
3846.41830	0.99153
3844.36139	0.99190
3842.30449	0.99140
3840.24758	0.99054
3838.19067	0.99066
3836.13376	0.99125
3834.07685	0.99118
3832.01995	0.99054
3829.96304	0.98976
3827.90613	0.98949
3825.84922	0.99031
3823.79231	0.99131
3821.73540	0.99179
3819.67850	0.99248
3817.62159	0.99274
3815.56468	0.99184
3813.50777	0.99109
3811.45086	0.99108
3809.39396	0.99148
3807.33705	0.99263
3805.28014	0.99391
3803.22323	0.99453
3801.16632	0.99454
3799.10941	0.99369
3797.05251	0.99285
3794.99560	0.99233
3792.93869	0.99193
3790.88178	0.99200
3788.82487	0.99217
3786.76796	0.99185
3784.71106	0.99146
3782.65415	0.99143
3780.59724	0.99174
3778.54033	0.99158
3776.48342	0.99101
3774.42652	0.99133
3772.36961	0.99196
3770.31270	0.99143
3768.25579	0.99004
3766.19888	0.98962
3764.14197	0.99055
3762.08507	0.99151
3760.02816	0.99183
3757.97125	0.99210
3755.91434	0.99265
3753.85743	0.99275
3751.80053	0.99224
3749.74362	0.99200
3747.68671	0.99246
3745.62980	0.99318
3743.57289	0.99304
3741.51598	0.99242
3739.45908	0.99213
3737.40217	0.99148
3735.34526	0.99117
3733.28835	0.99189
3731.23144	0.99232
3729.17454	0.99259
3727.11763	0.99290
3725.06072	0.99308
3723.00381	0.99297
3720.94690	0.99227
3718.88999	0.99178
3716.83309	0.99165
3714.77618	0.99152
3712.71927	0.99150
3710.66236	0.99123
3708.60545	0.99109
3706.54855	0.99165
3704.49164	0.99204
3702.43473	0.99152
3700.37782	0.99112
3698.32091	0.99146
3696.26400	0.99149
3694.20710	0.99091
3692.15019	0.99035
3690.09328	0.99064
3688.03637	0.99139
3685.97946	0.99144
3683.92256	0.99132
3681.86565	0.99170
3679.80874	0.99238
3677.75183	0.99314
3675.69492	0.99428
3673.63801	0.99447
3671.58111	0.99328
3669.52420	0.99140
3667.46729	0.98999
3665.41038	0.98994
3663.35347	0.99020
3661.29657	0.98996
3659.23966	0.99003
3657.18275	0.99072
3655.12584	0.99103
3653.06893	0.99087
3651.01202	0.99066
3648.95512	0.99016
3646.89821	0.98979
3644.84130	0.98980
3642.78439	0.98957
3640.72748	0.98904
3638.67058	0.98905
3636.61367	0.98985
3634.55676	0.99022
3632.49985	0.98958
3630.44294	0.98896
3628.38603	0.98883
3626.32913	0.98854
3624.27222	0.98823
3622.21531	0.98811
3620.15840	0.98801
3618.10149	0.98804
3616.04459	0.98815
3613.98768	0.98773
3611.93077	0.98675
3609.87386	0.98605
3607.81695	0.98600
3605.76004	0.98607
3603.70314	0.98585
3601.64623	0.98534
3599.58932	0.98514
3597.53241	0.98534
3595.47550	0.98529
3593.41860	0.98530
3591.36169	0.98517
3589.30478	0.98440
3587.24787	0.98375
3585.19096	0.98367
3583.13405	0.98375
3581.07715	0.98394
3579.02024	0.98396
3576.96333	0.98342
3574.90642	0.98256
3572.84951	0.98214
3570.79261	0.98243
3568.73570	0.98290
3566.67879	0.98239
3564.62188	0.98102
3562.56497	0.98006
3560.50806	0.97938
3558.45116	0.97887
3556.39425	0.97874
3554.33734	0.97864
3552.28043	0.97809
3550.22352	0.97745
3548.16662	0.97701
3546.10971	0.97613
3544.05280	0.97498
3541.99589	0.97451
3539.93898	0.97446
3537.88207	0.97403
3535.82517	0.97310
3533.76826	0.97214
3531.71135	0.97187
3529.65444	0.97224
3527.59753	0.97240
3525.54063	0.97220
3523.48372	0.97172
3521.42681	0.97089
3519.36990	0.97015
3517.31299	0.96944
3515.25608	0.96881
3513.19918	0.96837
3511.14227	0.96768
3509.08536	0.96681
3507.02845	0.96614
3504.97154	0.96579
3502.91464	0.96606
3500.85773	0.96649
3498.80082	0.96636
3496.74391	0.96591
3494.68700	0.96547
3492.63009	0.96521
3490.57319	0.96510
3488.51628	0.96495
3486.45937	0.96494
3484.40246	0.96562
3482.34555	0.96636
3480.28865	0.96586
3478.23174	0.96500
3476.17483	0.96528
3474.11792	0.96599
3472.06101	0.96575
3470.00410	0.96508
3467.94720	0.96490
3465.89029	0.96504
3463.83338	0.96534
3461.77647	0.96599
3459.71956	0.96652
3457.66266	0.96663
3455.60575	0.96685
3453.54884	0.96691
3451.49193	0.96648
3449.43502	0.96641
3447.37811	0.96731
3445.32121	0.96862
3443.26430	0.96916
3441.20739	0.96887
3439.15048	0.96887
3437.09357	0.96949
3435.03667	0.96992
3432.97976	0.96993
3430.92285	0.97014
3428.86594	0.97027
3426.80903	0.97011
3424.75212	0.97047
3422.69522	0.97105
3420.63831	0.97129
3418.58140	0.97168
3416.52449	0.97211
3414.46758	0.97234
3412.41068	0.97283
3410.35377	0.97359
3408.29686	0.97412
3406.23995	0.97429
3404.18304	0.97434
3402.12613	0.97456
3400.06923	0.97500
3398.01232	0.97548
3395.95541	0.97591
3393.89850	0.97617
3391.84159	0.97650
3389.78469	0.97715
3387.72778	0.97741
3385.67087	0.97701
3383.61396	0.97679
3381.55705	0.97707
3379.50014	0.97740
3377.44324	0.97759
3375.38633	0.97788
3373.32942	0.97822
3371.27251	0.97830
3369.21560	0.97828
3367.15870	0.97844
3365.10179	0.97879
3363.04488	0.97927
3360.98797	0.97966
3358.93106	0.97998
3356.87415	0.98016
3354.81725	0.98008
3352.76034	0.97998
3350.70343	0.97994
3348.64652	0.98004
3346.58961	0.98025
3344.53271	0.98022
3342.47580	0.98035
3340.41889	0.98085
3338.36198	0.98137
3336.30507	0.98194
3334.24816	0.98231
3332.19126	0.98204
3330.13435	0.98161
3328.07744	0.98155
3326.02053	0.98178
3323.96362	0.98215
3321.90672	0.98277
3319.84981	0.98363
3317.79290	0.98394
3315.73599	0.98357
3313.67908	0.98340
3311.62217	0.98354
3309.56527	0.98349
3307.50836	0.98331
3305.45145	0.98328
3303.39454	0.98339
3301.33763	0.98333
3299.28073	0.98316
3297.22382	0.98367
3295.16691	0.98486
3293.11000	0.98557
3291.05309	0.98537
3288.99618	0.98498
3286.93928	0.98505
3284.88237	0.98515
3282.82546	0.98473
3280.76855	0.98448
3278.71164	0.98496
3276.65474	0.98544
3274.59783	0.98546
3272.54092	0.98524
3270.48401	0.98506
3268.42710	0.98542
3266.37019	0.98624
3264.31329	0.98665
3262.25638	0.98648
3260.19947	0.98623
3258.14256	0.98595
3256.08565	0.98587
3254.02875	0.98636
3251.97184	0.98683
3249.91493	0.98694
3247.85802	0.98694
3245.80111	0.98677
3243.74420	0.98662
3241.68730	0.98695
3239.63039	0.98755
3237.57348	0.98785
3235.51657	0.98763
3233.45966	0.98708
3231.40276	0.98654
3229.34585	0.98610
3227.28894	0.98597
3225.23203	0.98643
3223.17512	0.98694
3221.11821	0.98699
3219.06131	0.98716
3217.00440	0.98780
3214.94749	0.98852
3212.89058	0.98886
3210.83367	0.98865
3208.77677	0.98838
3206.71986	0.98845
3204.66295	0.98871
3202.60604	0.98890
3200.54913	0.98898
3198.49222	0.98891
3196.43532	0.98883
3194.37841	0.98889
3192.32150	0.98903
3190.26459	0.98923
3188.20768	0.98911
3186.15078	0.98869
3184.09387	0.98877
3182.03696	0.98912
3179.98005	0.98880
3177.92314	0.98811
3175.86623	0.98805
3173.80933	0.98876
3171.75242	0.98913
3169.69551	0.98860
3167.63860	0.98801
3165.58169	0.98788
3163.52479	0.98833
3161.46788	0.98899
3159.41097	0.98909
3157.35406	0.98871
3155.29715	0.98875
3153.24024	0.98949
3151.18334	0.99028
3149.12643	0.99034
3147.06952	0.98944
3145.01261	0.98861
3142.95570	0.98882
3140.89880	0.98925
3138.84189	0.98924
3136.78498	0.98915
3134.72807	0.98910
3132.67116	0.98914
3130.61425	0.98904
3128.55735	0.98880
3126.50044	0.98892
3124.44353	0.98895
3122.38662	0.98867
3120.32971	0.98873
3118.27281	0.98888
3116.21590	0.98856
3114.15899	0.98814
3112.10208	0.98808
3110.04517	0.98833
3107.98826	0.98865
3105.93136	0.98897
3103.87445	0.98930
3101.81754	0.98952
3099.76063	0.98946
3097.70372	0.98915
3095.64682	0.98882
3093.58991	0.98862
3091.53300	0.98867
3089.47609	0.98913
3087.41918	0.98974
3085.36227	0.98979
3083.30537	0.98922
3081.24846	0.98854
3079.19155	0.98817
3077.13464	0.98820
3075.07773	0.98825
3073.02083	0.98828
3070.96392	0.98885
3068.90701	0.98956
3066.85010	0.98944
3064.79319	0.98887
3062.73628	0.98886
3060.67938	0.98934
3058.62247	0.98937
3056.56556	0.98896
3054.50865	0.98901
3052.45174	0.98930
3050.39484	0.98921
3048.33793	0.98905
3046.28102	0.98916
3044.22411	0.98903
3042.16720	0.98855
3040.11029	0.98840
3038.05339	0.98831
3035.99648	0.98783
3033.93957	0.98761
3031.88266	0.98771
3029.82575	0.98785
3027.76885	0.98807
3025.71194	0.98793
3023.65503	0.98739
3021.59812	0.98704
3019.54121	0.98718
3017.48430	0.98773
3015.42740	0.98816
3013.37049	0.98810
3011.31358	0.98779
3009.25667	0.98734
3007.19976	0.98683
3005.14286	0.98638
3003.08595	0.98599
3001.02904	0.98558
2998.97213	0.98534
2996.91522	0.98576
2994.85831	0.98634
2992.80141	0.98623
2990.74450	0.98562
2988.68759	0.98505
2986.63068	0.98477
2984.57377	0.98457
2982.51687	0.98417
2980.45996	0.98361
2978.40305	0.98331
2976.34614	0.98360
2974.28923	0.98368
2972.23232	0.98283
2970.17542	0.98201
2968.11851	0.98189
2966.06160	0.98156
2964.00469	0.98074
2961.94778	0.98025
2959.89088	0.98009
2957.83397	0.97991
2955.77706	0.97978
2953.72015	0.97951
2951.66324	0.97938
2949.60633	0.97959
2947.54943	0.97936
2945.49252	0.97868
2943.43561	0.97819
2941.37870	0.97820
2939.32179	0.97849
2937.26489	0.97842
2935.20798	0.97831
2933.15107	0.97888
2931.09416	0.97964
2929.03725	0.98015
2926.98034	0.98047
2924.92344	0.98048
2922.86653	0.98016
2920.80962	0.97989
2918.75271	0.97993
2916.69580	0.98004
2914.63890	0.98008
2912.58199	0.98000
2910.52508	0.97973
2908.46817	0.97943
2906.41126	0.97947
2904.35435	0.97967
2902.29745	0.97942
2900.24054	0.97885
2898.18363	0.97869
2896.12672	0.97907
2894.06981	0.97933
2892.01291	0.97911
2889.95600	0.97859
2887.89909	0.97807
2885.84218	0.97791
2883.78527	0.97807
2881.72836	0.97831
2879.67146	0.97863
2877.61455	0.97890
2875.55764	0.97929
2873.50073	0.97979
2871.44382	0.98002
2869.38692	0.98028
2867.33001	0.98106
2865.27310	0.98191
2863.21619	0.98229
2861.15928	0.98267
2859.10237	0.98322
2857.04547	0.98358
2854.98856	0.98385
2852.93165	0.98419
2850.87474	0.98466
2848.81783	0.98527
2846.76093	0.98594
2844.70402	0.98650
2842.64711	0.98673
2840.59020	0.98707
2838.53329	0.98743
2836.47638	0.98729
2834.41948	0.98710
2832.36257	0.98728
2830.30566	0.98770
2828.24875	0.98812
2826.19184	0.98845
2824.13494	0.98871
2822.07803	0.98864
2820.02112	0.98792
2817.96421	0.98723
2815.90730	0.98742
2813.85039	0.98786
2811.79349	0.98789
2809.73658	0.98787
2807.67967	0.98805
2805.62276	0.98827
2803.56585	0.98849
2801.50895	0.98871
2799.45204	0.98886
2797.39513	0.98872
2795.33822	0.98841
2793.28131	0.98841
2791.22440	0.98878
2789.16750	0.98920
2787.11059	0.98942
2785.05368	0.98936
2782.99677	0.98916
2780.93986	0.98907
2778.88296	0.98910
2776.82605	0.98922
2774.76914	0.98939
2772.71223	0.98947
2770.65532	0.98953
2768.59841	0.98960
2766.54151	0.98959
2764.48460	0.98935
2762.42769	0.98889
2760.37078	0.98873
2758.31387	0.98911
2756.25697	0.98950
2754.20006	0.98955
2752.14315	0.98937
2750.08624	0.98891
2748.02933	0.98868
2745.97242	0.98911
2743.91552	0.98960
2741.85861	0.98974
2739.80170	0.98960
2737.74479	0.98937
2735.68788	0.98929
2733.63098	0.98933
2731.57407	0.98933
2729.51716	0.98933
2727.46025	0.98950
2725.40334	0.98962
2723.34643	0.98945
2721.28953	0.98946
2719.23262	0.98979
2717.17571	0.99002
2715.11880	0.98990
2713.06189	0.98948
2711.00499	0.98917
2708.94808	0.98904
2706.89117	0.98905
2704.83426	0.98933
2702.77735	0.98942
2700.72044	0.98930
2698.66354	0.98928
2696.60663	0.98943
2694.54972	0.98965
2692.49281	0.98981
2690.43590	0.99003
2688.37900	0.99006
2686.32209	0.98972
2684.26518	0.98950
2682.20827	0.98971
2680.15136	0.98993
2678.09445	0.98969
2676.03755	0.98927
2673.98064	0.98911
2671.92373	0.98929
2669.86682	0.98956
2667.80991	0.98952
2665.75301	0.98944
2663.69610	0.98945
2661.63919	0.98931
2659.58228	0.98935
2657.52537	0.98944
2655.46846	0.98911
2653.41156	0.98883
2651.35465	0.98898
2649.29774	0.98926
2647.24083	0.98919
2645.18392	0.98878
2643.12702	0.98851
2641.07011	0.98868
2639.01320	0.98922
2636.95629	0.98975
2634.89938	0.98984
2632.84247	0.98948
2630.78557	0.98916
2628.72866	0.98917
2626.67175	0.98928
2624.61484	0.98920
2622.55793	0.98924
2620.50103	0.98961
2618.44412	0.98991
2616.38721	0.99002
2614.33030	0.98992
2612.27339	0.98958
2610.21648	0.98967
2608.15958	0.99012
2606.10267	0.99026
2604.04576	0.99021
2601.98885	0.99005
2599.93194	0.98993
2597.87504	0.98966
2595.81813	0.98917
2593.76122	0.98927
2591.70431	0.98957
2589.64740	0.98939
2587.59049	0.98933
2585.53359	0.98982
2583.47668	0.99036
2581.41977	0.99065
2579.36286	0.99073
2577.30595	0.99064
2575.24905	0.99067
2573.19214	0.99108
2571.13523	0.99147
2569.07832	0.99147
2567.02141	0.99140
2564.96450	0.99133
2562.90760	0.99154
2560.85069	0.99216
2558.79378	0.99228
2556.73687	0.99148
2554.67996	0.99079
2552.62306	0.99099
2550.56615	0.99137
2548.50924	0.99128
2546.45233	0.99100
2544.39542	0.99100
2542.33851	0.99136
2540.28161	0.99131
2538.22470	0.99051
2536.16779	0.99012
2534.11088	0.99037
2532.05397	0.99046
2529.99707	0.99062
2527.94016	0.99093
2525.88325	0.99100
2523.82634	0.99108
2521.76943	0.99136
2519.71252	0.99129
2517.65562	0.99096
2515.59871	0.99096
2513.54180	0.99108
2511.48489	0.99118
2509.42798	0.99133
2507.37108	0.99160
2505.31417	0.99168
2503.25726	0.99126
2501.20035	0.99079
2499.14344	0.99051
2497.08653	0.99024
2495.02963	0.99016
2492.97272	0.99055
2490.91581	0.99121
2488.85890	0.99148
2486.80199	0.99109
2484.74509	0.99031
2482.68818	0.98968
2480.63127	0.98976
2478.57436	0.99023
2476.51745	0.99074
2474.46054	0.99122
2472.40364	0.99147
2470.34673	0.99172
2468.28982	0.99148
2466.23291	0.99050
2464.17600	0.98992
2462.11910	0.99039
2460.06219	0.99129
2458.00528	0.99169
2455.94837	0.99144
2453.89146	0.99085
2451.83455	0.99045
2449.77765	0.99098
2447.72074	0.99192
2445.66383	0.99226
2443.60692	0.99215
2441.55001	0.99185
2439.49311	0.99169
2437.43620	0.99184
2435.37929	0.99196
2433.32238	0.99173
2431.26547	0.99120
2429.20856	0.99072
2427.15166	0.99014
2425.09475	0.98944
2423.03784	0.98923
2420.98093	0.98988
2418.92402	0.99113
2416.86712	0.99203
2414.81021	0.99219
2412.75330	0.99201
2410.69639	0.99156
2408.63948	0.99120
2406.58257	0.99116
2404.52567	0.99098
2402.46876	0.99103
2400.41185	0.99180
2398.35494	0.99251
2396.29803	0.99247
2394.24113	0.99225
2392.18422	0.99226
2390.12731	0.99203
2388.07040	0.99168
2386.01349	0.99164
2383.95658	0.99147
2381.89968	0.99106
2379.84277	0.99090
2377.78586	0.99142
2375.72895	0.99247
2373.67204	0.99317
2371.61514	0.99292
2369.55823	0.99217
2367.50132	0.99120
2365.44441	0.98988
2363.38750	0.98922
2361.33059	0.99042
2359.27369	0.99223
2357.21678	0.99211
2355.15987	0.99049
2353.10296	0.98981
2351.04605	0.99044
2348.98915	0.99091
2346.93224	0.99059
2344.87533	0.99027
2342.81842	0.99101
2340.76151	0.99192
2338.70460	0.99153
2336.64770	0.99088
2334.59079	0.99084
2332.53388	0.99070
2330.47697	0.99077
2328.42006	0.99079
2326.36316	0.99032
2324.30625	0.99026
2322.24934	0.99107
2320.19243	0.99195
2318.13552	0.99190
2316.07861	0.99164
2314.02171	0.99222
2311.96480	0.99279
2309.90789	0.99271
2307.85098	0.99209
2305.79407	0.99119
2303.73717	0.99036
2301.68026	0.98972
2299.62335	0.98976
2297.56644	0.99056
2295.50953	0.99107
2293.45262	0.99068
2291.39572	0.98997
2289.33881	0.98942
2287.28190	0.98949
2285.22499	0.99037
2283.16808	0.99127
2281.11117	0.99122
2279.05427	0.99078
2276.99736	0.99108
2274.94045	0.99120
2272.88354	0.99053
2270.82663	0.99001
2268.76973	0.98993
2266.71282	0.99045
2264.65591	0.99136
2262.59900	0.99191
2260.54209	0.99227
2258.48518	0.99212
2256.42828	0.99146
2254.37137	0.99126
2252.31446	0.99141
2250.25755	0.99129
2248.20064	0.99112
2246.14374	0.99146
2244.08683	0.99151
2242.02992	0.99112
2239.97301	0.99154
2237.91610	0.99158
2235.85919	0.99050
2233.80229	0.98997
2231.74538	0.99015
2229.68847	0.99046
2227.63156	0.99089
2225.57465	0.99150
2223.51775	0.99237
2221.46084	0.99295
2219.40393	0.99273
2217.34702	0.99204
2215.29011	0.99187
2213.23320	0.99228
2211.17630	0.99262
2209.11939	0.99321
2207.06248	0.99405
2205.00557	0.99402
2202.94866	0.99296
2200.89176	0.99199
2198.83485	0.99158
2196.77794	0.99250
2194.72103	0.99356
2192.66412	0.99288
2190.60721	0.99139
2188.55031	0.99022
2186.49340	0.99064
2184.43649	0.99187
2182.37958	0.99175
2180.32267	0.99072
2178.26577	0.99061
2176.20886	0.99251
2174.15195	0.99451
2172.09504	0.99454
2170.03813	0.99335
2167.98122	0.99177
2165.92432	0.99005
2163.86741	0.98914
2161.81050	0.99018
2159.75359	0.99377
2157.69668	0.99707
2155.63978	0.99734
2153.58287	0.99625
2151.52596	0.99469
2149.46905	0.99311
2147.41214	0.99268
2145.35523	0.99322
2143.29833	0.99350
2141.24142	0.99330
2139.18451	0.99320
2137.12760	0.99280
2135.07069	0.99220
2133.01379	0.99179
2130.95688	0.99138
2128.89997	0.99116
2126.84306	0.99081
2124.78615	0.99041
2122.72924	0.99058
2120.67234	0.99124
2118.61543	0.99138
2116.55852	0.99009
2114.50161	0.98864
2112.44470	0.98815
2110.38780	0.98794
2108.33089	0.98804
2106.27398	0.98929
2104.21707	0.99099
2102.16016	0.99158
2100.10325	0.99139
2098.04635	0.99117
2095.98944	0.99146
2093.93253	0.99237
2091.87562	0.99257
2089.81871	0.99230
2087.76181	0.99284
2085.70490	0.99295
2083.64799	0.99176
2081.59108	0.99095
2079.53417	0.99142
2077.47726	0.99238
2075.42036	0.99232
2073.36345	0.99159
2071.30654	0.99177
2069.24963	0.99200
2067.19272	0.99139
2065.13582	0.99093
2063.07891	0.99123
2061.02200	0.99155
2058.96509	0.99144
2056.90818	0.99173
2054.85127	0.99196
2052.79437	0.99079
2050.73746	0.98942
2048.68055	0.98971
2046.62364	0.99087
2044.56673	0.99107
2042.50983	0.99039
2040.45292	0.99065
2038.39601	0.99229
2036.33910	0.99361
2034.28219	0.99428
2032.22528	0.99478
2030.16838	0.99440
2028.11147	0.99348
2026.05456	0.99348
2023.99765	0.99539
2021.94074	0.99728
2019.88384	0.99639
2017.82693	0.99436
2015.77002	0.99363
2013.71311	0.99388
2011.65620	0.99427
2009.59929	0.99503
2007.54239	0.99600
2005.48548	0.99568
2003.42857	0.99374
2001.37166	0.99208
1999.31475	0.99166
1997.25785	0.99216
1995.20094	0.99395
1993.14403	0.99566
1991.08712	0.99554
1989.03021	0.99495
1986.97330	0.99457
1984.91640	0.99385
1982.85949	0.99305
1980.80258	0.99314
1978.74567	0.99504
1976.68876	0.99683
1974.63186	0.99686
1972.57495	0.99596
1970.51804	0.99439
1968.46113	0.99326
1966.40422	0.99338
1964.34731	0.99428
1962.29041	0.99465
1960.23350	0.99406
1958.17659	0.99347
1956.11968	0.99297
1954.06277	0.99301
1952.00587	0.99391
1949.94896	0.99483
1947.89205	0.99483
1945.83514	0.99391
1943.77823	0.99333
1941.72132	0.99338
1939.66442	0.99312
1937.60751	0.99244
1935.55060	0.99186
1933.49369	0.99166
1931.43678	0.99209
1929.37988	0.99264
1927.32297	0.99274
1925.26606	0.99296
1923.20915	0.99333
1921.15224	0.99341
1919.09533	0.99359
1917.03843	0.99384
1914.98152	0.99326
1912.92461	0.99235
1910.86770	0.99234
1908.81079	0.99244
1906.75389	0.99206
1904.69698	0.99220
1902.64007	0.99272
1900.58316	0.99286
1898.52625	0.99281
1896.46934	0.99282
1894.41244	0.99263
1892.35553	0.99227
1890.29862	0.99239
1888.24171	0.99297
1886.18480	0.99318
1884.12790	0.99304
1882.07099	0.99303
1880.01408	0.99312
1877.95717	0.99279
1875.90026	0.99272
1873.84335	0.99306
1871.78645	0.99312
1869.72954	0.99334
1867.67263	0.99342
1865.61572	0.99290
1863.55881	0.99248
1861.50191	0.99242
1859.44500	0.99254
1857.38809	0.99288
1855.33118	0.99325
1853.27427	0.99330
1851.21736	0.99276
1849.16046	0.99211
1847.10355	0.99186
1845.04664	0.99182
1842.98973	0.99202
1840.93282	0.99234
1838.87592	0.99235
1836.81901	0.99189
1834.76210	0.99145
1832.70519	0.99116
1830.64828	0.99045
1828.59137	0.98964
1826.53447	0.98936
1824.47756	0.98948
1822.42065	0.98997
1820.36374	0.99043
1818.30683	0.99037
1816.24993	0.98978
1814.19302	0.98895
1812.13611	0.98840
1810.07920	0.98806
1808.02229	0.98776
1805.96538	0.98771
1803.90848	0.98774
1801.85157	0.98711
1799.79466	0.98608
1797.73775	0.98545
1795.68084	0.98500
1793.62394	0.98440
1791.56703	0.98360
1789.51012	0.98256
1787.45321	0.98127
1785.39630	0.97970
1783.33939	0.97783
1781.28249	0.97584
1779.22558	0.97329
1777.16867	0.97018
1775.11176	0.96656
1773.05485	0.96121
1770.99795	0.95320
1768.94104	0.94392
1766.88413	0.93328
1764.82722	0.92125
1762.77031	0.90640
1760.71340	0.88895
1758.65650	0.87312
1756.59959	0.85779
1754.54268	0.84440
1752.48577	0.83352
1750.42886	0.82159
1748.37196	0.80987
1746.31505	0.80119
1744.25814	0.79473
1742.20123	0.78970
1740.14432	0.78607
1738.08741	0.78498
1736.03051	0.78643
1733.97360	0.78903
1731.91669	0.79352
1729.85978	0.80020
1727.80287	0.80850
1725.74597	0.81813
1723.68906	0.82909
1721.63215	0.84014
1719.57524	0.85156
1717.51833	0.86559
1715.46142	0.88022
1713.40452	0.89253
1711.34761	0.90349
1709.29070	0.91347
1707.23379	0.92264
1705.17688	0.93119
1703.11998	0.93813
1701.06307	0.94410
1699.00616	0.94948
1696.94925	0.95369
1694.89234	0.95788
1692.83543	0.96102
1690.77853	0.96308
1688.72162	0.96500
1686.66471	0.96670
1684.60780	0.96812
1682.55089	0.96957
1680.49399	0.97117
1678.43708	0.97243
1676.38017	0.97318
1674.32326	0.97352
1672.26635	0.97351
1670.20944	0.97364
1668.15254	0.97434
1666.09563	0.97489
1664.03872	0.97499
1661.98181	0.97510
1659.92490	0.97527
1657.86800	0.97539
1655.81109	0.97554
1653.75418	0.97551
1651.69727	0.97512
1649.64036	0.97500
1647.58345	0.97504
1645.52655	0.97518
1643.46964	0.97514
1641.41273	0.97503
1639.35582	0.97526
1637.29891	0.97561
1635.24201	0.97590
1633.18510	0.97632
1631.12819	0.97666
1629.07128	0.97692
1627.01437	0.97741
1624.95746	0.97808
1622.90056	0.97863
1620.84365	0.97901
1618.78674	0.97929
1616.72983	0.97961
1614.67292	0.98027
1612.61602	0.98106
1610.55911	0.98158
1608.50220	0.98187
1606.44529	0.98210
1604.38838	0.98238
1602.33147	0.98276
1600.27457	0.98319
1598.21766	0.98364
1596.16075	0.98404
1594.10384	0.98416
1592.04693	0.98418
1589.99003	0.98429
1587.93312	0.98436
1585.87621	0.98447
1583.81930	0.98464
1581.76239	0.98469
1579.70548	0.98465
1577.64858	0.98467
1575.59167	0.98457
1573.53476	0.98429
1571.47785	0.98414
1569.42094	0.98431
1567.36404	0.98460
1565.30713	0.98465
1563.25022	0.98477
1561.19331	0.98537
1559.13640	0.98616
1557.07949	0.98592
1555.02259	0.98542
1552.96568	0.98509
1550.90877	0.98479
1548.85186	0.98460
1546.79495	0.98475
1544.73805	0.98515
1542.68114	0.98529
1540.62423	0.98490
1538.56732	0.98478
1536.51041	0.98502
1534.45350	0.98516
1532.39660	0.98500
1530.33969	0.98469
1528.28278	0.98458
1526.22587	0.98479
1524.16896	0.98508
1522.11206	0.98504
1520.05515	0.98472
1517.99824	0.98464
1515.94133	0.98468
1513.88442	0.98474
1511.82751	0.98477
1509.77061	0.98473
1507.71370	0.98468
1505.65679	0.98464
1503.59988	0.98456
1501.54297	0.98436
1499.48607	0.98405
1497.42916	0.98379
1495.37225	0.98374
1493.31534	0.98384
1491.25843	0.98396
1489.20152	0.98395
1487.14462	0.98343
1485.08771	0.98262
1483.03080	0.98198
1480.97389	0.98148
1478.91698	0.98108
1476.86008	0.98053
1474.80317	0.97949
1472.74626	0.97784
1470.68935	0.97606
1468.63244	0.97458
1466.57553	0.97272
1464.51863	0.97027
1462.46172	0.96840
1460.40481	0.96728
1458.34790	0.96580
1456.29099	0.96329
1454.23409	0.96120
1452.17718	0.95975
1450.12027	0.95809
1448.06336	0.95602
1446.00645	0.95411
1443.94954	0.95269
1441.89264	0.95117
1439.83573	0.94931
1437.77882	0.94726
1435.72191	0.94518
1433.66500	0.94401
1431.60810	0.94381
1429.55119	0.94433
1427.49428	0.94543
1425.43737	0.94676
1423.38046	0.94812
1421.32355	0.94948
1419.26665	0.95081
1417.20974	0.95168
1415.15283	0.95224
1413.09592	0.95281
1411.03901	0.95322
1408.98211	0.95361
1406.92520	0.95425
1404.86829	0.95469
1402.81138	0.95460
1400.75447	0.95400
1398.69756	0.95270
1396.64066	0.95056
1394.58375	0.94722
1392.52684	0.94297
1390.46993	0.93831
1388.41302	0.93199
1386.35612	0.92339
1384.29921	0.91459
1382.24230	0.90615
1380.18539	0.89739
1378.12848	0.88884
1376.07157	0.88085
1374.01467	0.87307
1371.95776	0.86702
1369.90085	0.86434
1367.84394	0.86521
1365.78703	0.86974
1363.73013	0.87839
1361.67322	0.89135
1359.61631	0.90577
1357.55940	0.91905
1355.50249	0.93032
1353.44558	0.93896
1351.38868	0.94503
1349.33177	0.94929
1347.27486	0.95218
1345.21795	0.95394
1343.16104	0.95508
1341.10414	0.95609
1339.04723	0.95698
1336.99032	0.95737
1334.93341	0.95715
1332.87650	0.95691
1330.81959	0.95688
1328.76269	0.95664
1326.70578	0.95611
1324.64887	0.95560
1322.59196	0.95523
1320.53505	0.95485
1318.47815	0.95443
1316.42124	0.95407
1314.36433	0.95388
1312.30742	0.95401
1310.25051	0.95429
1308.19360	0.95441
1306.13670	0.95426
1304.07979	0.95393
1302.02288	0.95346
1299.96597	0.95267
1297.90906	0.95144
1295.85216	0.94983
1293.79525	0.94796
1291.73834	0.94589
1289.68143	0.94354
1287.62452	0.94096
1285.56761	0.93813
1283.51071	0.93465
1281.45380	0.93039
1279.39689	0.92579
1277.33998	0.92093
1275.28307	0.91574
1273.22617	0.91000
1271.16926	0.90357
1269.11235	0.89686
1267.05544	0.88996
1264.99853	0.88246
1262.94162	0.87431
1260.88472	0.86571
1258.82781	0.85668
1256.77090	0.84717
1254.71399	0.83725
1252.65708	0.82694
1250.60018	0.81654
1248.54327	0.80623
1246.48636	0.79562
1244.42945	0.78480
1242.37254	0.77400
1240.31563	0.76314
1238.25873	0.75236
1236.20182	0.74207
1234.14491	0.73245
1232.08800	0.72349
1230.03109	0.71547
1227.97419	0.70893
1225.91728	0.70408
1223.86037	0.70111
1221.80346	0.70066
1219.74655	0.70293
1217.68964	0.70788
1215.63274	0.71577
1213.57583	0.72681
1211.51892	0.74096
1209.46201	0.75789
1207.40510	0.77706
1205.34820	0.79762
1203.29129	0.81864
1201.23438	0.83903
1199.17747	0.85751
1197.12056	0.87348
1195.06365	0.88688
1193.00675	0.89737
1190.94984	0.90489
1188.89293	0.90982
1186.83602	0.91247
1184.77911	0.91315
1182.72221	0.91209
1180.66530	0.90972
1178.60839	0.90668
1176.55148	0.90356
1174.49457	0.90041
1172.43766	0.89695
1170.38076	0.89341
1168.32385	0.89047
1166.26694	0.88843
1164.21003	0.88738
1162.15312	0.88739
1160.09622	0.88836
1158.03931	0.89033
1155.98240	0.89313
1153.92549	0.89613
1151.86858	0.89885
1149.81167	0.90109
1147.75477	0.90275
1145.69786	0.90361
1143.64095	0.90359
1141.58404	0.90277
1139.52713	0.90112
1137.47023	0.89870
1135.41332	0.89550
1133.35641	0.89165
1131.29950	0.88767
1129.24259	0.88401
1127.18568	0.88064
1125.12878	0.87740
1123.07187	0.87472
1121.01496	0.87308
1118.95805	0.87229
1116.90114	0.87174
1114.84424	0.87106
1112.78733	0.87015
1110.73042	0.86903
1108.67351	0.86766
1106.61660	0.86584
1104.55969	0.86364
1102.50279	0.86126
1100.44588	0.85855
1098.38897	0.85521
1096.33206	0.85124
1094.27515	0.84668
1092.21825	0.84130
1090.16134	0.83526
1088.10443	0.82892
1086.04752	0.82227
1083.99061	0.81519
1081.93370	0.80786
1079.87680	0.80053
1077.81989	0.79345
1075.76298	0.78666
1073.70607	0.78042
1071.64916	0.77495
1069.59226	0.76969
1067.53535	0.76437
1065.47844	0.75923
1063.42153	0.75400
1061.36462	0.74839
1059.30771	0.74257
1057.25081	0.73667
1055.19390	0.73065
1053.13699	0.72444
1051.08008	0.71821
1049.02317	0.71240
1046.96627	0.70730
1044.90936	0.70261
1042.85245	0.69785
1040.79554	0.69315
1038.73863	0.68871
1036.68172	0.68451
1034.62482	0.68102
1032.56791	0.67905
1030.51100	0.67916
1028.45409	0.68165
1026.39718	0.68673
1024.34028	0.69412
1022.28337	0.70324
1020.22646	0.71355
1018.16955	0.72433
1016.11264	0.73511
1014.05573	0.74590
1011.99883	0.75684
1009.94192	0.76768
1007.88501	0.77797
1005.82810	0.78764
1003.77119	0.79694
1001.71429	0.80598
999.65738	0.81461
997.60047	0.82244
995.54356	0.82931
993.48665	0.83550
991.42974	0.84101
989.37284	0.84561
987.31593	0.84972
985.25902	0.85385
983.20211	0.85780
981.14520	0.86145
979.08830	0.86536
977.03139	0.87001
974.97448	0.87543
972.91757	0.88122
970.86066	0.88676
968.80375	0.89194
966.74685	0.89699
964.68994	0.90155
962.63303	0.90519
960.57612	0.90809
958.51921	0.91037
956.46231	0.91217
954.40540	0.91376
952.34849	0.91524
950.29158	0.91667
948.23467	0.91827
946.17776	0.91998
944.12086	0.92162
942.06395	0.92296
940.00704	0.92388
937.95013	0.92437
935.89322	0.92423
933.83632	0.92385
931.77941	0.92354
929.72250	0.92251
927.66559	0.92062
925.60868	0.91876
923.55177	0.91708
921.49487	0.91544
919.43796	0.91389
917.38105	0.91240
915.32414	0.91086
913.26723	0.90912
911.21033	0.90705
909.15342	0.90497
907.09651	0.90367
905.03960	0.90344
902.98269	0.90371
900.92578	0.90397
898.86888	0.90437
896.81197	0.90565
894.75506	0.90796
892.69815	0.91061
890.64124	0.91320
888.58434	0.91589
886.52743	0.91873
884.47052	0.92159
882.41361	0.92423
880.35670	0.92676
878.29979	0.92961
876.24289	0.93278
874.18598	0.93619
872.12907	0.93959
870.07216	0.94268
868.01525	0.94520
865.95835	0.94737
863.90144	0.94975
861.84453	0.95224
859.78762	0.95390
857.73071	0.95442
855.67380	0.95448
853.61690	0.95450
851.55999	0.95453
849.50308	0.95416
847.44617	0.95328
845.38926	0.95260
843.33236	0.95212
841.27545	0.95122
839.21854	0.95028
837.16163	0.95027
835.10472	0.95137
833.04781	0.95332
830.99091	0.95549
828.93400	0.95736
826.87709	0.95907
824.82018	0.96054
822.76327	0.96182
820.70637	0.96312
818.64946	0.96408
816.59255	0.96433
814.53564	0.96448
812.47873	0.96510
810.42182	0.96569
808.36492	0.96593
806.30801	0.96592
804.25110	0.96571
802.19419	0.96559
800.13728	0.96577
798.08038	0.96626
796.02347	0.96715
793.96656	0.96808
791.90965	0.96834
789.85274	0.96826
787.79583	0.96834
785.73893	0.96833
783.68202	0.96814
781.62511	0.96767
779.56820	0.96733
777.51129	0.96785
775.45439	0.96871
773.39748	0.96910
771.34057	0.96894
769.28366	0.96824
767.22675	0.96746
765.16984	0.96725
763.11294	0.96766
761.05603	0.96832
758.99912	0.96866
756.94221	0.96852
754.88530	0.96856
752.82839	0.96894
750.77149	0.96889
748.71458	0.96813
746.65767	0.96773
744.60076	0.96802
742.54385	0.96830
740.48695	0.96855
738.43004	0.96867
736.37313	0.96774
734.31622	0.96606
732.25931	0.96527
730.20240	0.96518
728.14550	0.96460
726.08859	0.96366
724.03168	0.96274
721.97477	0.96195
719.91786	0.96123
717.86096	0.96001
715.80405	0.95864
713.74714	0.95794
711.69023	0.95776
709.63332	0.95762
707.57641	0.95727
705.51951	0.95674
703.46260	0.95582
701.40569	0.95477
699.34878	0.95395
697.29187	0.95284
695.23497	0.95114
693.17806	0.94910
691.12115	0.94734
689.06424	0.94649
687.00733	0.94625
684.95042	0.94553
682.89352	0.94430
680.83661	0.94360
678.77970	0.94350
676.72279	0.94360
674.66588	0.94409
672.60898	0.94490
670.55207	0.94549
668.49516	0.94530
666.43825	0.94465
664.38134	0.94457
662.32443	0.94431
660.26753	0.94337
658.21062	0.94222
656.15371	0.94111
654.09680	0.93975
652.03989	0.93767
649.98299	0.93556
647.92608	0.93429
645.86917	0.93323
643.81226	0.93201
641.75535	0.93043
639.69844	0.92784
637.64154	0.92516
635.58463	0.92317
633.52772	0.92130
631.47081	0.91983
629.41390	0.91900
627.35700	0.91793
625.30009	0.91638
623.24318	0.91526
621.18627	0.91444
619.12936	0.91270
617.07245	0.91008
615.01555	0.90643
612.95864	0.90124
610.90173	0.89496
608.84482	0.88813
606.78791	0.88162
604.73101	0.87707
602.67410	0.87605
600.61719	0.87889
598.56028	0.88397
596.50337	0.88901
594.44646	0.89370
592.38956	0.89903
590.33265	0.90439
588.27574	0.90861
586.21883	0.91140
584.16192	0.91295
582.10502	0.91464
580.04811	0.91638
577.99120	0.91595
575.93429	0.91463
573.87738	0.91446
571.82047	0.91437
569.76357	0.91378
567.70666	0.91224
565.64975	0.90941
563.59284	0.90717
561.53593	0.90769
559.47903	0.90943
557.42212	0.90967
555.36521	0.90928
553.30830	0.90945
551.25139	0.90942
549.19448	0.90957
547.13758	0.91126
545.08067	0.91340
543.02376	0.91412
540.96685	0.91351
538.90994	0.91326
536.85304	0.91364
534.79613	0.91273
532.73922	0.91129
530.68231	0.91086
528.62540	0.91047
526.56849	0.91003
524.51159	0.90990
522.45468	0.90986
520.39777	0.91052
518.34086	0.91089
516.28395	0.91008
514.22705	0.90852
512.17014	0.90583
510.11323	0.90383
508.05632	0.90415
505.99941	0.90516
503.94250	0.90510
501.88560	0.90376
499.82869	0.90124
497.77178	0.89861
495.71487	0.89784
493.65796	0.89763
491.60106	0.89620
489.54415	0.89536
487.48724	0.89680
485.43033	0.89893
483.37342	0.89742
481.31651	0.89306
479.25961	0.89087
477.20270	0.89147
475.14579	0.89290
473.08888	0.89391
471.03197	0.89360
468.97507	0.89253
466.91816	0.89074
464.86125	0.88790
462.80434	0.88531
460.74743	0.88412
458.69052	0.88369
456.63362	0.88314
454.57671	0.88230
452.51980	0.88174
450.46289	0.88308
448.40598	0.88487
446.34908	0.88366
444.29217	0.88070
442.23526	0.88029
440.17835	0.88323
438.12144	0.88611
436.06453	0.88658
434.00763	0.88585
431.95072	0.88539
429.89381	0.88624
427.83690	0.88994
425.77999	0.89304
423.72309	0.89297
421.66618	0.89357
419.60927	0.89459
417.55236	0.89388
415.49545	0.89529
413.43854	0.89822
411.38164	0.89872
409.32473	0.89765
407.26782	0.89680
405.21091	0.89543
403.15400	0.89551
401.09710	0.89577
399.04019	0.89305
