3996.57260	0.97995
3994.51569	0.98007
3992.45878	0.98004
3990.40188	0.98011
3988.34497	0.98027
3986.28806	0.98007
3984.23115	0.97965
3982.17424	0.97946
3980.11733	0.97983
3978.06043	0.98031
3976.00352	0.98013
3973.94661	0.97971
3971.88970	0.97962
3969.83279	0.97986
3967.77589	0.98039
3965.71898	0.98064
3963.66207	0.98029
3961.60516	0.97968
3959.54825	0.97942
3957.49134	0.97984
3955.43444	0.98052
3953.37753	0.98097
3951.32062	0.98090
3949.26371	0.98033
3947.20680	0.98025
3945.14990	0.98120
3943.09299	0.98165
3941.03608	0.98045
3938.97917	0.97883
3936.92226	0.97854
3934.86535	0.97954
3932.80845	0.98023
3930.75154	0.97983
3928.69463	0.97944
3926.63772	0.97977
3924.58081	0.98002
3922.52391	0.97993
3920.46700	0.98022
3918.41009	0.98094
3916.35318	0.98139
3914.29627	0.98117
3912.23936	0.98093
3910.18246	0.98088
3908.12555	0.98084
3906.06864	0.98127
3904.01173	0.98183
3901.95482	0.98154
3899.89792	0.98110
3897.84101	0.98110
3895.78410	0.98107
3893.72719	0.98115
3891.67028	0.98123
3889.61337	0.98088
3887.55647	0.98041
3885.49956	0.97976
3883.44265	0.97951
3881.38574	0.98016
3879.32883	0.98089
3877.27193	0.98131
3875.21502	0.98121
3873.15811	0.98061
3871.10120	0.98041
3869.04429	0.98112
3866.98738	0.98204
3864.93048	0.98187
3862.87357	0.98085
3860.81666	0.98046
3858.75975	0.98076
3856.70284	0.98161
3854.64594	0.98292
3852.58903	0.98286
3850.53212	0.98154
3848.47521	0.98085
3846.41830	0.98067
3844.36139	0.98044
3842.30449	0.98037
3840.24758	0.98122
3838.19067	0.98203
3836.13376	0.98160
3834.07685	0.98108
3832.01995	0.98111
3829.96304	0.98146
3827.90613	0.98166
3825.84922	0.98135
3823.79231	0.98103
3821.73540	0.98097
3819.67850	0.98123
3817.62159	0.98168
3815.56468	0.98125
3813.50777	0.98035
3811.45086	0.98010
3809.39396	0.98055
3807.33705	0.98113
3805.28014	0.98107
3803.22323	0.98085
3801.16632	0.98100
3799.10941	0.98103
3797.05251	0.98061
3794.99560	0.98030
3792.93869	0.98061
3790.88178	0.98116
3788.82487	0.98171
3786.76796	0.98210
3784.71106	0.98189
3782.65415	0.98159
3780.59724	0.98126
3778.54033	0.98024
3776.48342	0.97970
3774.42652	0.97980
3772.36961	0.97979
3770.31270	0.98000
3768.25579	0.98040
3766.19888	0.98066
3764.14197	0.98063
3762.08507	0.98036
3760.02816	0.97997
3757.97125	0.97993
3755.91434	0.98062
3753.85743	0.98146
3751.80053	0.98203
3749.74362	0.98187
3747.68671	0.98160
3745.62980	0.98232
3743.57289	0.98254
3741.51598	0.98141
3739.45908	0.98071
3737.40217	0.98074
3735.34526	0.98105
3733.28835	0.98161
3731.23144	0.98196
3729.17454	0.98216
3727.11763	0.98295
3725.06072	0.98368
3723.00381	0.98344
3720.94690	0.98270
3718.88999	0.98209
3716.83309	0.98201
3714.77618	0.98225
3712.71927	0.98228
3710.66236	0.98222
3708.60545	0.98231
3706.54855	0.98230
3704.49164	0.98218
3702.43473	0.98163
3700.37782	0.98084
3698.32091	0.98075
3696.26400	0.98120
3694.20710	0.98134
3692.15019	0.98108
3690.09328	0.98115
3688.03637	0.98131
3685.97946	0.98100
3683.92256	0.98070
3681.86565	0.98071
3679.80874	0.98120
3677.75183	0.98184
3675.69492	0.98187
3673.63801	0.98151
3671.58111	0.98111
3669.52420	0.98069
3667.46729	0.98077
3665.41038	0.98104
3663.35347	0.98128
3661.29657	0.98155
3659.23966	0.98168
3657.18275	0.98130
3655.12584	0.98032
3653.06893	0.97964
3651.01202	0.97962
3648.95512	0.97991
3646.89821	0.97994
3644.84130	0.97959
3642.78439	0.97897
3640.72748	0.97832
3638.67058	0.97825
3636.61367	0.97882
3634.55676	0.97925
3632.49985	0.97932
3630.44294	0.97919
3628.38603	0.97855
3626.32913	0.97832
3624.27222	0.97843
3622.21531	0.97799
3620.15840	0.97744
3618.10149	0.97763
3616.04459	0.97828
3613.98768	0.97875
3611.93077	0.97887
3609.87386	0.97860
3607.81695	0.97764
3605.76004	0.97658
3603.70314	0.97607
3601.64623	0.97587
3599.58932	0.97586
3597.53241	0.97581
3595.47550	0.97561
3593.41860	0.97589
3591.36169	0.97662
3589.30478	0.97694
3587.24787	0.97659
3585.19096	0.97573
3583.13405	0.97487
3581.07715	0.97465
3579.02024	0.97457
3576.96333	0.97390
3574.90642	0.97265
3572.84951	0.97140
3570.79261	0.97099
3568.73570	0.97134
3566.67879	0.97147
3564.62188	0.97127
3562.56497	0.97118
3560.50806	0.97049
3558.45116	0.96932
3556.39425	0.96829
3554.33734	0.96743
3552.28043	0.96721
3550.22352	0.96756
3548.16662	0.96759
3546.10971	0.96739
3544.05280	0.96740
3541.99589	0.96753
3539.93898	0.96723
3537.88207	0.96637
3535.82517	0.96559
3533.76826	0.96490
3531.71135	0.96392
3529.65444	0.96305
3527.59753	0.96265
3525.54063	0.96266
3523.48372	0.96308
3521.42681	0.96348
3519.36990	0.96314
3517.31299	0.96227
3515.25608	0.96133
3513.19918	0.96069
3511.14227	0.96035
3509.08536	0.95977
3507.02845	0.95921
3504.97154	0.95898
3502.91464	0.95885
3500.85773	0.95872
3498.80082	0.95835
3496.74391	0.95797
3494.68700	0.95800
3492.63009	0.95791
3490.57319	0.95733
3488.51628	0.95683
3486.45937	0.95691
3484.40246	0.95708
3482.34555	0.95671
3480.28865	0.95602
3478.23174	0.95544
3476.17483	0.95531
3474.11792	0.95572
3472.06101	0.95605
3470.00410	0.95556
3467.94720	0.95482
3465.89029	0.95454
3463.83338	0.95429
3461.77647	0.95401
3459.71956	0.95411
3457.66266	0.95465
3455.60575	0.95524
3453.54884	0.95530
3451.49193	0.95515
3449.43502	0.95500
3447.37811	0.95456
3445.32121	0.95453
3443.26430	0.95493
3441.20739	0.95510
3439.15048	0.95525
3437.09357	0.95541
3435.03667	0.95583
3432.97976	0.95656
3430.92285	0.95647
3428.86594	0.95570
3426.80903	0.95541
3424.75212	0.95537
3422.69522	0.95545
3420.63831	0.95577
3418.58140	0.95611
3416.52449	0.95673
3414.46758	0.95740
3412.41068	0.95755
3410.35377	0.95760
3408.29686	0.95792
3406.23995	0.95768
3404.18304	0.95730
3402.12613	0.95788
3400.06923	0.95841
3398.01232	0.95799
3395.95541	0.95764
3393.89850	0.95812
3391.84159	0.95875
3389.78469	0.95896
3387.72778	0.95909
3385.67087	0.95952
3383.61396	0.95980
3381.55705	0.95920
3379.50014	0.95834
3377.44324	0.95837
3375.38633	0.95900
3373.32942	0.95941
3371.27251	0.95973
3369.21560	0.96003
3367.15870	0.96027
3365.10179	0.96050
3363.04488	0.96068
3360.98797	0.96103
3358.93106	0.96163
3356.87415	0.96209
3354.81725	0.96238
3352.76034	0.96279
3350.70343	0.96292
3348.64652	0.96250
3346.58961	0.96232
3344.53271	0.96290
3342.47580	0.96348
3340.41889	0.96353
3338.36198	0.96358
3336.30507	0.96384
3334.24816	0.96386
3332.19126	0.96363
3330.13435	0.96350
3328.07744	0.96369
3326.02053	0.96423
3323.96362	0.96445
3321.90672	0.96405
3319.84981	0.96411
3317.79290	0.96485
3315.73599	0.96528
3313.67908	0.96513
3311.62217	0.96521
3309.56527	0.96558
3307.50836	0.96573
3305.45145	0.96608
3303.39454	0.96660
3301.33763	0.96671
3299.28073	0.96660
3297.22382	0.96635
3295.16691	0.96616
3293.11000	0.96656
3291.05309	0.96731
3288.99618	0.96767
3286.93928	0.96768
3284.88237	0.96780
3282.82546	0.96779
3280.76855	0.96755
3278.71164	0.96715
3276.65474	0.96701
3274.59783	0.96762
3272.54092	0.96790
3270.48401	0.96758
3268.42710	0.96786
3266.37019	0.96849
3264.31329	0.96875
3262.25638	0.96900
3260.19947	0.96927
3258.14256	0.96918
3256.08565	0.96870
3254.02875	0.96841
3251.97184	0.96857
3249.91493	0.96889
3247.85802	0.96949
3245.80111	0.96992
3243.74420	0.96953
3241.68730	0.96896
3239.63039	0.96912
3237.57348	0.96970
3235.51657	0.97034
3233.45966	0.97092
3231.40276	0.97124
3229.34585	0.97160
3227.28894	0.97198
3225.23203	0.97192
3223.17512	0.97143
3221.11821	0.97104
3219.06131	0.97111
3217.00440	0.97127
3214.94749	0.97096
3212.89058	0.97053
3210.83367	0.97040
3208.77677	0.97040
3206.71986	0.97067
3204.66295	0.97138
3202.60604	0.97199
3200.54913	0.97213
3198.49222	0.97212
3196.43532	0.97249
3194.37841	0.97290
3192.32150	0.97279
3190.26459	0.97255
3188.20768	0.97253
3186.15078	0.97260
3184.09387	0.97281
3182.03696	0.97340
3179.98005	0.97394
3177.92314	0.97384
3175.86623	0.97361
3173.80933	0.97357
3171.75242	0.97314
3169.69551	0.97273
3167.63860	0.97296
3165.58169	0.97330
3163.52479	0.97339
3161.46788	0.97340
3159.41097	0.97368
3157.35406	0.97414
3155.29715	0.97427
3153.24024	0.97419
3151.18334	0.97427
3149.12643	0.97440
3147.06952	0.97472
3145.01261	0.97521
3142.95570	0.97512
3140.89880	0.97464
3138.84189	0.97478
3136.78498	0.97536
3134.72807	0.97556
3132.67116	0.97537
3130.61425	0.97508
3128.55735	0.97474
3126.50044	0.97453
3124.44353	0.97461
3122.38662	0.97489
3120.32971	0.97504
3118.27281	0.97495
3116.21590	0.97510
3114.15899	0.97555
3112.10208	0.97550
3110.04517	0.97512
3107.98826	0.97500
3105.93136	0.97512
3103.87445	0.97561
3101.81754	0.97610
3099.76063	0.97619
3097.70372	0.97604
3095.64682	0.97574
3093.58991	0.97553
3091.53300	0.97566
3089.47609	0.97589
3087.41918	0.97590
3085.36227	0.97589
3083.30537	0.97615
3081.24846	0.97659
3079.19155	0.97700
3077.13464	0.97721
3075.07773	0.97696
3073.02083	0.97626
3070.96392	0.97588
3068.90701	0.97584
3066.85010	0.97562
3064.79319	0.97549
3062.73628	0.97577
3060.67938	0.97634
3058.62247	0.97648
3056.56556	0.97573
3054.50865	0.97489
3052.45174	0.97452
3050.39484	0.97466
3048.33793	0.97537
3046.28102	0.97599
3044.22411	0.97607
3042.16720	0.97592
3040.11029	0.97606
3038.05339	0.97641
3035.99648	0.97641
3033.93957	0.97610
3031.88266	0.97589
3029.82575	0.97571
3027.76885	0.97544
3025.71194	0.97542
3023.65503	0.97577
3021.59812	0.97578
3019.54121	0.97539
3017.48430	0.97550
3015.42740	0.97605
3013.37049	0.97619
3011.31358	0.97592
3009.25667	0.97587
3007.19976	0.97586
3005.14286	0.97561
3003.08595	0.97553
3001.02904	0.97543
2998.97213	0.97508
2996.91522	0.97481
2994.85831	0.97466
2992.80141	0.97439
2990.74450	0.97401
2988.68759	0.97380
2986.63068	0.97364
2984.57377	0.97351
2982.51687	0.97377
2980.45996	0.97416
2978.40305	0.97395
2976.34614	0.97303
2974.28923	0.97210
2972.23232	0.97162
2970.17542	0.97138
2968.11851	0.97132
2966.06160	0.97130
2964.00469	0.97118
2961.94778	0.97087
2959.89088	0.97039
2957.83397	0.97011
2955.77706	0.96985
2953.72015	0.96953
2951.66324	0.96939
2949.60633	0.96943
2947.54943	0.96970
2945.49252	0.96962
2943.43561	0.96909
2941.37870	0.96891
2939.32179	0.96887
2937.26489	0.96863
2935.20798	0.96844
2933.15107	0.96836
2931.09416	0.96840
2929.03725	0.96851
2926.98034	0.96854
2924.92344	0.96847
2922.86653	0.96814
2920.80962	0.96795
2918.75271	0.96810
2916.69580	0.96825
2914.63890	0.96825
2912.58199	0.96807
2910.52508	0.96791
2908.46817	0.96811
2906.41126	0.96836
2904.35435	0.96825
2902.29745	0.96800
2900.24054	0.96776
2898.18363	0.96751
2896.12672	0.96730
2894.06981	0.96687
2892.01291	0.96630
2889.95600	0.96619
2887.89909	0.96646
2885.84218	0.96631
2883.78527	0.96615
2881.72836	0.96678
2879.67146	0.96730
2877.61455	0.96718
2875.55764	0.96704
2873.50073	0.96727
2871.44382	0.96784
2869.38692	0.96811
2867.33001	0.96803
2865.27310	0.96837
2863.21619	0.96892
2861.15928	0.96896
2859.10237	0.96881
2857.04547	0.96914
2854.98856	0.96973
2852.93165	0.97007
2850.87474	0.97031
2848.81783	0.97088
2846.76093	0.97152
2844.70402	0.97183
2842.64711	0.97200
2840.59020	0.97227
2838.53329	0.97285
2836.47638	0.97330
2834.41948	0.97304
2832.36257	0.97285
2830.30566	0.97308
2828.24875	0.97310
2826.19184	0.97295
2824.13494	0.97308
2822.07803	0.97335
2820.02112	0.97358
2817.96421	0.97397
2815.90730	0.97424
2813.85039	0.97404
2811.79349	0.97381
2809.73658	0.97384
2807.67967	0.97390
2805.62276	0.97402
2803.56585	0.97410
2801.50895	0.97402
2799.45204	0.97445
2797.39513	0.97520
2795.33822	0.97525
2793.28131	0.97485
2791.22440	0.97483
2789.16750	0.97518
2787.11059	0.97535
2785.05368	0.97511
2782.99677	0.97489
2780.93986	0.97504
2778.88296	0.97526
2776.82605	0.97534
2774.76914	0.97535
2772.71223	0.97509
2770.65532	0.97479
2768.59841	0.97492
2766.54151	0.97513
2764.48460	0.97497
2762.42769	0.97473
2760.37078	0.97492
2758.31387	0.97535
2756.25697	0.97556
2754.20006	0.97554
2752.14315	0.97554
2750.08624	0.97559
2748.02933	0.97548
2745.97242	0.97522
2743.91552	0.97507
2741.85861	0.97497
2739.80170	0.97483
2737.74479	0.97479
2735.68788	0.97488
2733.63098	0.97506
2731.57407	0.97540
2729.51716	0.97564
2727.46025	0.97572
2725.40334	0.97592
2723.34643	0.97606
2721.28953	0.97569
2719.23262	0.97509
2717.17571	0.97497
2715.11880	0.97537
2713.06189	0.97579
2711.00499	0.97588
2708.94808	0.97588
2706.89117	0.97594
2704.83426	0.97587
2702.77735	0.97587
2700.72044	0.97605
2698.66354	0.97605
2696.60663	0.97585
2694.54972	0.97568
2692.49281	0.97580
2690.43590	0.97597
2688.37900	0.97585
2686.32209	0.97581
2684.26518	0.97604
2682.20827	0.97607
2680.15136	0.97565
2678.09445	0.97516
2676.03755	0.97514
2673.98064	0.97561
2671.92373	0.97607
2669.86682	0.97613
2667.80991	0.97588
2665.75301	0.97566
2663.69610	0.97575
2661.63919	0.97594
2659.58228	0.97579
2657.52537	0.97548
2655.46846	0.97538
2653.41156	0.97546
2651.35465	0.97562
2649.29774	0.97571
2647.24083	0.97546
2645.18392	0.97510
2643.12702	0.97511
2641.07011	0.97549
2639.01320	0.97580
2636.95629	0.97590
2634.89938	0.97593
2632.84247	0.97582
2630.78557	0.97579
2628.72866	0.97600
2626.67175	0.97612
2624.61484	0.97631
2622.55793	0.97671
2620.50103	0.97665
2618.44412	0.97623
2616.38721	0.97593
2614.33030	0.97569
2612.27339	0.97586
2610.21648	0.97632
2608.15958	0.97665
2606.10267	0.97689
2604.04576	0.97684
2601.98885	0.97644
2599.93194	0.97632
2597.87504	0.97663
2595.81813	0.97696
2593.76122	0.97704
2591.70431	0.97699
2589.64740	0.97711
2587.59049	0.97738
2585.53359	0.97764
2583.47668	0.97753
2581.41977	0.97676
2579.36286	0.97624
2577.30595	0.97657
2575.24905	0.97652
2573.19214	0.97589
2571.13523	0.97591
2569.07832	0.97674
2567.02141	0.97757
2564.96450	0.97762
2562.90760	0.97709
2560.85069	0.97702
2558.79378	0.97737
2556.73687	0.97761
2554.67996	0.97764
2552.62306	0.97756
2550.56615	0.97796
2548.50924	0.97858
2546.45233	0.97873
2544.39542	0.97873
2542.33851	0.97869
2540.28161	0.97859
2538.22470	0.97819
2536.16779	0.97736
2534.11088	0.97717
2532.05397	0.97797
2529.99707	0.97857
2527.94016	0.97847
2525.88325	0.97808
2523.82634	0.97788
2521.76943	0.97778
2519.71252	0.97721
2517.65562	0.97675
2515.59871	0.97720
2513.54180	0.97784
2511.48489	0.97800
2509.42798	0.97786
2507.37108	0.97807
2505.31417	0.97889
2503.25726	0.97925
2501.20035	0.97870
2499.14344	0.97817
2497.08653	0.97799
2495.02963	0.97803
2492.97272	0.97818
2490.91581	0.97817
2488.85890	0.97784
2486.80199	0.97736
2484.74509	0.97725
2482.68818	0.97754
2480.63127	0.97793
2478.57436	0.97836
2476.51745	0.97853
2474.46054	0.97856
2472.40364	0.97853
2470.34673	0.97830
2468.28982	0.97813
2466.23291	0.97792
2464.17600	0.97773
2462.11910	0.97788
2460.06219	0.97810
2458.00528	0.97823
2455.94837	0.97874
2453.89146	0.97917
2451.83455	0.97893
2449.77765	0.97865
2447.72074	0.97861
2445.66383	0.97843
2443.60692	0.97804
2441.55001	0.97785
2439.49311	0.97825
2437.43620	0.97844
2435.37929	0.97794
2433.32238	0.97759
2431.26547	0.97764
2429.20856	0.97808
2427.15166	0.97874
2425.09475	0.97875
2423.03784	0.97832
2420.98093	0.97817
2418.92402	0.97796
2416.86712	0.97792
2414.81021	0.97859
2412.75330	0.97905
2410.69639	0.97882
2408.63948	0.97836
2406.58257	0.97815
2404.52567	0.97857
2402.46876	0.97891
2400.41185	0.97866
2398.35494	0.97812
2396.29803	0.97777
2394.24113	0.97786
2392.18422	0.97801
2390.12731	0.97799
2388.07040	0.97802
2386.01349	0.97810
2383.95658	0.97816
2381.89968	0.97811
2379.84277	0.97801
2377.78586	0.97817
2375.72895	0.97852
2373.67204	0.97841
2371.61514	0.97792
2369.55823	0.97834
2367.50132	0.98009
2365.44441	0.98115
2363.38750	0.98044
2361.33059	0.98013
2359.27369	0.98055
2357.21678	0.97953
2355.15987	0.97770
2353.10296	0.97722
2351.04605	0.97779
2348.98915	0.97854
2346.93224	0.97950
2344.87533	0.97992
2342.81842	0.97911
2340.76151	0.97842
2338.70460	0.97872
2336.64770	0.97918
2334.59079	0.97907
2332.53388	0.97885
2330.47697	0.97857
2328.42006	0.97762
2326.36316	0.97650
2324.30625	0.97608
2322.24934	0.97621
2320.19243	0.97646
2318.13552	0.97699
2316.07861	0.97789
2314.02171	0.97860
2311.96480	0.97831
2309.90789	0.97768
2307.85098	0.97796
2305.79407	0.97852
2303.73717	0.97814
2301.68026	0.97730
2299.62335	0.97712
2297.56644	0.97731
2295.50953	0.97735
2293.45262	0.97746
2291.39572	0.97750
2289.33881	0.97736
2287.28190	0.97740
2285.22499	0.97773
2283.16808	0.97819
2281.11117	0.97823
2279.05427	0.97744
2276.99736	0.97663
2274.94045	0.97680
2272.88354	0.97729
2270.82663	0.97725
2268.76973	0.97771
2266.71282	0.97865
2264.65591	0.97895
2262.59900	0.97895
2260.54209	0.97861
2258.48518	0.97749
2256.42828	0.97695
2254.37137	0.97833
2252.31446	0.97964
2250.25755	0.97936
2248.20064	0.97894
2246.14374	0.97933
2244.08683	0.97994
2242.02992	0.97963
2239.97301	0.97809
2237.91610	0.97671
2235.85919	0.97660
2233.80229	0.97760
2231.74538	0.97921
2229.68847	0.98004
2227.63156	0.97923
2225.57465	0.97870
2223.51775	0.97994
2221.46084	0.98107
2219.40393	0.98045
2217.34702	0.97909
2215.29011	0.97838
2213.23320	0.97853
2211.17630	0.97965
2209.11939	0.98157
2207.06248	0.98261
2205.00557	0.98213
2202.94866	0.98071
2200.89176	0.97940
2198.83485	0.97883
2196.77794	0.97898
2194.72103	0.97975
2192.66412	0.97963
2190.60721	0.97979
2188.55031	0.98131
2186.49340	0.98104
2184.43649	0.97929
2182.37958	0.97891
2180.32267	0.97959
2178.26577	0.98038
2176.20886	0.98143
2174.15195	0.98159
2172.09504	0.97964
2170.03813	0.97805
2167.98122	0.97886
2165.92432	0.97890
2163.86741	0.97658
2161.81050	0.97618
2159.75359	0.97932
2157.69668	0.98205
2155.63978	0.98262
2153.58287	0.98166
2151.52596	0.97973
2149.46905	0.97927
2147.41214	0.98126
2145.35523	0.98282
2143.29833	0.98255
2141.24142	0.98196
2139.18451	0.98186
2137.12760	0.98203
2135.07069	0.98184
2133.01379	0.98127
2130.95688	0.98094
2128.89997	0.98107
2126.84306	0.98086
2124.78615	0.98002
2122.72924	0.97971
2120.67234	0.97967
2118.61543	0.97934
2116.55852	0.97916
2114.50161	0.97920
2112.44470	0.97941
2110.38780	0.97944
2108.33089	0.97889
2106.27398	0.97868
2104.21707	0.97946
2102.16016	0.98000
2100.10325	0.97994
2098.04635	0.98048
2095.98944	0.98169
2093.93253	0.98219
2091.87562	0.98173
2089.81871	0.98140
2087.76181	0.98125
2085.70490	0.98118
2083.64799	0.98152
2081.59108	0.98157
2079.53417	0.98053
2077.47726	0.97937
2075.42036	0.97994
2073.36345	0.98179
2071.30654	0.98242
2069.24963	0.98111
2067.19272	0.97977
2065.13582	0.97953
2063.07891	0.97954
2061.02200	0.98016
2058.96509	0.98176
2056.90818	0.98176
2054.85127	0.97981
2052.79437	0.97886
2050.73746	0.97947
2048.68055	0.98033
2046.62364	0.98089
2044.56673	0.98043
2042.50983	0.97829
2040.45292	0.97653
2038.39601	0.97802
2036.33910	0.98118
2034.28219	0.98291
2032.22528	0.98367
2030.16838	0.98371
2028.11147	0.98173
2026.05456	0.98021
2023.99765	0.98123
2021.94074	0.98160
2019.88384	0.98084
2017.82693	0.98152
2015.77002	0.98180
2013.71311	0.98110
2011.65620	0.98254
2009.59929	0.98410
2007.54239	0.98406
2005.48548	0.98492
2003.42857	0.98520
2001.37166	0.98390
1999.31475	0.98264
1997.25785	0.98217
1995.20094	0.98242
1993.14403	0.98281
1991.08712	0.98346
1989.03021	0.98437
1986.97330	0.98489
1984.91640	0.98412
1982.85949	0.98257
1980.80258	0.98138
1978.74567	0.98100
1976.68876	0.98171
1974.63186	0.98146
1972.57495	0.97896
1970.51804	0.97764
1968.46113	0.97993
1966.40422	0.98266
1964.34731	0.98259
1962.29041	0.98183
1960.23350	0.98301
1958.17659	0.98479
1956.11968	0.98528
1954.06277	0.98424
1952.00587	0.98257
1949.94896	0.98127
1947.89205	0.98077
1945.83514	0.98134
1943.77823	0.98288
1941.72132	0.98436
1939.66442	0.98390
1937.60751	0.98226
1935.55060	0.98207
1933.49369	0.98308
1931.43678	0.98340
1929.37988	0.98318
1927.32297	0.98326
1925.26606	0.98342
1923.20915	0.98371
1921.15224	0.98380
1919.09533	0.98288
1917.03843	0.98153
1914.98152	0.98118
1912.92461	0.98191
1910.86770	0.98267
1908.81079	0.98280
1906.75389	0.98252
1904.69698	0.98239
1902.64007	0.98292
1900.58316	0.98356
1898.52625	0.98322
1896.46934	0.98236
1894.41244	0.98235
1892.35553	0.98281
1890.29862	0.98303
1888.24171	0.98323
1886.18480	0.98340
1884.12790	0.98337
1882.07099	0.98287
1880.01408	0.98240
1877.95717	0.98277
1875.90026	0.98373
1873.84335	0.98428
1871.78645	0.98409
1869.72954	0.98369
1867.67263	0.98348
1865.61572	0.98397
1863.55881	0.98471
1861.50191	0.98486
1859.44500	0.98447
1857.38809	0.98414
1855.33118	0.98423
1853.27427	0.98436
1851.21736	0.98406
1849.16046	0.98392
1847.10355	0.98397
1845.04664	0.98344
1842.98973	0.98299
1840.93282	0.98312
1838.87592	0.98339
1836.81901	0.98378
1834.76210	0.98408
1832.70519	0.98379
1830.64828	0.98320
1828.59137	0.98290
1826.53447	0.98291
1824.47756	0.98308
1822.42065	0.98345
1820.36374	0.98345
1818.30683	0.98297
1816.24993	0.98290
1814.19302	0.98322
1812.13611	0.98335
1810.07920	0.98306
1808.02229	0.98290
1805.96538	0.98299
1803.90848	0.98277
1801.85157	0.98239
1799.79466	0.98210
1797.73775	0.98195
1795.68084	0.98234
1793.62394	0.98255
1791.56703	0.98169
1789.51012	0.98095
1787.45321	0.98079
1785.39630	0.98067
1783.33939	0.98054
1781.28249	0.98020
1779.22558	0.97910
1777.16867	0.97752
1775.11176	0.97601
1773.05485	0.97390
1770.99795	0.97032
1768.94104	0.96579
1766.88413	0.96026
1764.82722	0.95385
1762.77031	0.94555
1760.71340	0.93496
1758.65650	0.92496
1756.59959	0.91517
1754.54268	0.90604
1752.48577	0.89768
1750.42886	0.88811
1748.37196	0.87913
1746.31505	0.87287
1744.25814	0.86791
1742.20123	0.86327
1740.14432	0.85901
1738.08741	0.85645
1736.03051	0.85553
1733.97360	0.85413
1731.91669	0.85335
1729.85978	0.85439
1727.80287	0.85632
1725.74597	0.85901
1723.68906	0.86275
1721.63215	0.86736
1719.57524	0.87245
1717.51833	0.87841
1715.46142	0.88556
1713.40452	0.89308
1711.34761	0.90035
1709.29070	0.90737
1707.23379	0.91449
1705.17688	0.92148
1703.11998	0.92729
1701.06307	0.93278
1699.00616	0.93809
1696.94925	0.94210
1694.89234	0.94564
1692.83543	0.94831
1690.77853	0.95029
1688.72162	0.95206
1686.66471	0.95386
1684.60780	0.95568
1682.55089	0.95691
1680.49399	0.95809
1678.43708	0.95934
1676.38017	0.96021
1674.32326	0.96089
1672.26635	0.96153
1670.20944	0.96214
1668.15254	0.96268
1666.09563	0.96306
1664.03872	0.96329
1661.98181	0.96326
1659.92490	0.96330
1657.86800	0.96363
1655.81109	0.96388
1653.75418	0.96333
1651.69727	0.96272
1649.64036	0.96332
1647.58345	0.96394
1645.52655	0.96402
1643.46964	0.96409
1641.41273	0.96439
1639.35582	0.96482
1637.29891	0.96523
1635.24201	0.96533
1633.18510	0.96529
1631.12819	0.96563
1629.07128	0.96630
1627.01437	0.96682
1624.95746	0.96684
1622.90056	0.96692
1620.84365	0.96742
1618.78674	0.96801
1616.72983	0.96869
1614.67292	0.96931
1612.61602	0.96957
1610.55911	0.96985
1608.50220	0.97038
1606.44529	0.97101
1604.38838	0.97162
1602.33147	0.97205
1600.27457	0.97233
1598.21766	0.97273
1596.16075	0.97310
1594.10384	0.97320
1592.04693	0.97325
1589.99003	0.97349
1587.93312	0.97378
1585.87621	0.97398
1583.81930	0.97420
1581.76239	0.97450
1579.70548	0.97477
1577.64858	0.97494
1575.59167	0.97481
1573.53476	0.97454
1571.47785	0.97444
1569.42094	0.97464
1567.36404	0.97517
1565.30713	0.97562
1563.25022	0.97576
1561.19331	0.97563
1559.13640	0.97502
1557.07949	0.97491
1555.02259	0.97546
1552.96568	0.97567
1550.90877	0.97561
1548.85186	0.97572
1546.79495	0.97611
1544.73805	0.97655
1542.68114	0.97671
1540.62423	0.97633
1538.56732	0.97604
1536.51041	0.97638
1534.45350	0.97666
1532.39660	0.97645
1530.33969	0.97618
1528.28278	0.97624
1526.22587	0.97652
1524.16896	0.97646
1522.11206	0.97590
1520.05515	0.97591
1517.99824	0.97652
1515.94133	0.97692
1513.88442	0.97709
1511.82751	0.97723
1509.77061	0.97747
1507.71370	0.97742
1505.65679	0.97673
1503.59988	0.97683
1501.54297	0.97736
1499.48607	0.97747
1497.42916	0.97709
1495.37225	0.97685
1493.31534	0.97701
1491.25843	0.97708
1489.20152	0.97678
1487.14462	0.97663
1485.08771	0.97670
1483.03080	0.97651
1480.97389	0.97611
1478.91698	0.97580
1476.86008	0.97539
1474.80317	0.97468
1472.74626	0.97363
1470.68935	0.97258
1468.63244	0.97173
1466.57553	0.97048
1464.51863	0.96870
1462.46172	0.96729
1460.40481	0.96638
1458.34790	0.96517
1456.29099	0.96359
1454.23409	0.96261
1452.17718	0.96183
1450.12027	0.96082
1448.06336	0.95954
1446.00645	0.95819
1443.94954	0.95694
1441.89264	0.95581
1439.83573	0.95482
1437.77882	0.95337
1435.72191	0.95142
1433.66500	0.95033
1431.60810	0.94977
1429.55119	0.94962
1427.49428	0.95028
1425.43737	0.95112
1423.38046	0.95177
1421.32355	0.95251
1419.26665	0.95313
1417.20974	0.95341
1415.15283	0.95385
1413.09592	0.95450
1411.03901	0.95517
1408.98211	0.95569
1406.92520	0.95586
1404.86829	0.95577
1402.81138	0.95582
1400.75447	0.95588
1398.69756	0.95548
1396.64066	0.95460
1394.58375	0.95293
1392.52684	0.95047
1390.46993	0.94758
1388.41302	0.94352
1386.35612	0.93820
1384.29921	0.93283
1382.24230	0.92710
1380.18539	0.92067
1378.12848	0.91447
1376.07157	0.90900
1374.01467	0.90410
1371.95776	0.90056
1369.90085	0.89893
1367.84394	0.89935
1365.78703	0.90218
1363.73013	0.90746
1361.67322	0.91485
1359.61631	0.92292
1357.55940	0.93056
1355.50249	0.93722
1353.44558	0.94250
1351.38868	0.94648
1349.33177	0.94930
1347.27486	0.95124
1345.21795	0.95272
1343.16104	0.95380
1341.10414	0.95459
1339.04723	0.95535
1336.99032	0.95591
1334.93341	0.95591
1332.87650	0.95569
1330.81959	0.95580
1328.76269	0.95595
1326.70578	0.95573
1324.64887	0.95537
1322.59196	0.95517
1320.53505	0.95522
1318.47815	0.95525
1316.42124	0.95510
1314.36433	0.95507
1312.30742	0.95522
1310.25051	0.95544
1308.19360	0.95574
1306.13670	0.95595
1304.07979	0.95607
1302.02288	0.95612
1299.96597	0.95596
1297.90906	0.95548
1295.85216	0.95461
1293.79525	0.95352
1291.73834	0.95232
1289.68143	0.95074
1287.62452	0.94874
1285.56761	0.94652
1283.51071	0.94420
1281.45380	0.94173
1279.39689	0.93905
1277.33998	0.93593
1275.28307	0.93213
1273.22617	0.92779
1271.16926	0.92316
1269.11235	0.91821
1267.05544	0.91306
1264.99853	0.90769
1262.94162	0.90180
1260.88472	0.89523
1258.82781	0.88811
1256.77090	0.88100
1254.71399	0.87409
1252.65708	0.86695
1250.60018	0.85935
1248.54327	0.85162
1246.48636	0.84431
1244.42945	0.83743
1242.37254	0.83029
1240.31563	0.82283
1238.25873	0.81587
1236.20182	0.80939
1234.14491	0.80296
1232.08800	0.79685
1230.03109	0.79147
1227.97419	0.78720
1225.91728	0.78451
1223.86037	0.78376
1221.80346	0.78508
1219.74655	0.78855
1217.68964	0.79440
1215.63274	0.80250
1213.57583	0.81243
1211.51892	0.82371
1209.46201	0.83567
1207.40510	0.84761
1205.34820	0.85936
1203.29129	0.87080
1201.23438	0.88176
1199.17747	0.89186
1197.12056	0.90070
1195.06365	0.90857
1193.00675	0.91540
1190.94984	0.92053
1188.89293	0.92404
1186.83602	0.92664
1184.77911	0.92827
1182.72221	0.92854
1180.66530	0.92774
1178.60839	0.92629
1176.55148	0.92425
1174.49457	0.92157
1172.43766	0.91860
1170.38076	0.91588
1168.32385	0.91341
1166.26694	0.91111
1164.21003	0.90890
1162.15312	0.90718
1160.09622	0.90666
1158.03931	0.90716
1155.98240	0.90840
1153.92549	0.91053
1151.86858	0.91296
1149.81167	0.91483
1147.75477	0.91636
1145.69786	0.91789
1143.64095	0.91899
1141.58404	0.91898
1139.52713	0.91788
1137.47023	0.91623
1135.41332	0.91425
1133.35641	0.91175
1131.29950	0.90891
1129.24259	0.90607
1127.18568	0.90328
1125.12878	0.90051
1123.07187	0.89817
1121.01496	0.89646
1118.95805	0.89509
1116.90114	0.89389
1114.84424	0.89287
1112.78733	0.89193
1110.73042	0.89101
1108.67351	0.89011
1106.61660	0.88891
1104.55969	0.88724
1102.50279	0.88535
1100.44588	0.88338
1098.38897	0.88121
1096.33206	0.87837
1094.27515	0.87486
1092.21825	0.87108
1090.16134	0.86679
1088.10443	0.86181
1086.04752	0.85655
1083.99061	0.85114
1081.93370	0.84550
1079.87680	0.83967
1077.81989	0.83378
1075.76298	0.82812
1073.70607	0.82290
1071.64916	0.81789
1069.59226	0.81327
1067.53535	0.80932
1065.47844	0.80540
1063.42153	0.80117
1061.36462	0.79709
1059.30771	0.79322
1057.25081	0.78918
1055.19390	0.78471
1053.13699	0.77999
1051.08008	0.77521
1049.02317	0.77051
1046.96627	0.76620
1044.90936	0.76198
1042.85245	0.75741
1040.79554	0.75290
1038.73863	0.74878
1036.68172	0.74475
1034.62482	0.74087
1032.56791	0.73772
1030.51100	0.73565
1028.45409	0.73516
1026.39718	0.73646
1024.34028	0.73909
1022.28337	0.74256
1020.22646	0.74651
1018.16955	0.75120
1016.11264	0.75686
1014.05573	0.76310
1011.99883	0.76934
1009.94192	0.77524
1007.88501	0.78102
1005.82810	0.78692
1003.77119	0.79288
1001.71429	0.79864
999.65738	0.80405
997.60047	0.80935
995.54356	0.81471
993.48665	0.81998
991.42974	0.82498
989.37284	0.82947
987.31593	0.83323
985.25902	0.83670
983.20211	0.84039
981.14520	0.84399
979.08830	0.84761
977.03139	0.85168
974.97448	0.85591
972.91757	0.86005
970.86066	0.86431
968.80375	0.86875
966.74685	0.87327
964.68994	0.87769
962.63303	0.88158
960.57612	0.88480
958.51921	0.88772
956.46231	0.89048
954.40540	0.89302
952.34849	0.89537
950.29158	0.89779
948.23467	0.90011
946.17776	0.90171
944.12086	0.90266
942.06395	0.90355
940.00704	0.90494
937.95013	0.90663
935.89322	0.90773
933.83632	0.90778
931.77941	0.90745
929.72250	0.90751
927.66559	0.90769
925.60868	0.90787
923.55177	0.90792
921.49487	0.90704
919.43796	0.90568
917.38105	0.90489
915.32414	0.90426
913.26723	0.90321
911.21033	0.90189
909.15342	0.90041
907.09651	0.89887
905.03960	0.89779
902.98269	0.89761
900.92578	0.89813
898.86888	0.89847
896.81197	0.89847
894.75506	0.89883
892.69815	0.89992
890.64124	0.90135
888.58434	0.90238
886.52743	0.90358
884.47052	0.90568
882.41361	0.90832
880.35670	0.91102
878.29979	0.91335
876.24289	0.91554
874.18598	0.91840
872.12907	0.92174
870.07216	0.92463
868.01525	0.92689
865.95835	0.92865
863.90144	0.92995
861.84453	0.93080
859.78762	0.93163
857.73071	0.93278
855.67380	0.93362
853.61690	0.93384
851.55999	0.93394
849.50308	0.93399
847.44617	0.93380
845.38926	0.93355
843.33236	0.93353
841.27545	0.93358
839.21854	0.93382
837.16163	0.93435
835.10472	0.93481
833.04781	0.93547
830.99091	0.93640
828.93400	0.93728
826.87709	0.93851
824.82018	0.94007
822.76327	0.94123
820.70637	0.94175
818.64946	0.94179
816.59255	0.94161
814.53564	0.94148
812.47873	0.94160
810.42182	0.94216
808.36492	0.94332
806.30801	0.94439
804.25110	0.94477
802.19419	0.94523
800.13728	0.94602
798.08038	0.94643
796.02347	0.94627
793.96656	0.94584
791.90965	0.94575
789.85274	0.94637
787.79583	0.94717
785.73893	0.94749
783.68202	0.94748
781.62511	0.94742
779.56820	0.94754
777.51129	0.94779
775.45439	0.94797
773.39748	0.94819
771.34057	0.94878
769.28366	0.94940
767.22675	0.94923
765.16984	0.94888
763.11294	0.94904
761.05603	0.94918
758.99912	0.94923
756.94221	0.94935
754.88530	0.94938
752.82839	0.94961
750.77149	0.95007
748.71458	0.95007
746.65767	0.94938
744.60076	0.94883
742.54385	0.94885
740.48695	0.94873
738.43004	0.94858
736.37313	0.94881
734.31622	0.94896
732.25931	0.94857
730.20240	0.94786
728.14550	0.94727
726.08859	0.94673
724.03168	0.94639
721.97477	0.94618
719.91786	0.94567
717.86096	0.94521
715.80405	0.94503
713.74714	0.94443
711.69023	0.94344
709.63332	0.94308
707.57641	0.94298
705.51951	0.94200
703.46260	0.94069
701.40569	0.94011
699.34878	0.94032
697.29187	0.94005
695.23497	0.93859
693.17806	0.93713
691.12115	0.93597
689.06424	0.93447
687.00733	0.93284
684.95042	0.93179
682.89352	0.93109
680.83661	0.93030
678.77970	0.93014
676.72279	0.93065
674.66588	0.93054
672.60898	0.93006
670.55207	0.93024
668.49516	0.93039
666.43825	0.92982
664.38134	0.92928
662.32443	0.92884
660.26753	0.92868
658.21062	0.92881
656.15371	0.92845
654.09680	0.92729
652.03989	0.92575
649.98299	0.92432
647.92608	0.92336
645.86917	0.92249
643.81226	0.92135
641.75535	0.91974
639.69844	0.91743
637.64154	0.91499
635.58463	0.91312
633.52772	0.91170
631.47081	0.91029
629.41390	0.90942
627.35700	0.90898
625.30009	0.90800
623.24318	0.90677
621.18627	0.90566
619.12936	0.90397
617.07245	0.90150
615.01555	0.89887
612.95864	0.89593
610.90173	0.89197
608.84482	0.88732
606.78791	0.88316
604.73101	0.88077
602.67410	0.88079
600.61719	0.88195
598.56028	0.88306
596.50337	0.88517
594.44646	0.88904
592.38956	0.89326
590.33265	0.89611
588.27574	0.89808
586.21883	0.89997
584.16192	0.90053
582.10502	0.90000
580.04811	0.89994
577.99120	0.89984
575.93429	0.89948
573.87738	0.89902
571.82047	0.89798
569.76357	0.89695
567.70666	0.89632
565.64975	0.89606
563.59284	0.89596
561.53593	0.89482
559.47903	0.89322
557.42212	0.89232
555.36521	0.89209
553.30830	0.89284
551.25139	0.89512
549.19448	0.89774
547.13758	0.89866
545.08067	0.89756
543.02376	0.89501
540.96685	0.89348
538.90994	0.89476
536.85304	0.89657
534.79613	0.89647
532.73922	0.89486
530.68231	0.89305
528.62540	0.89124
526.56849	0.89053
524.51159	0.89132
522.45468	0.89184
520.39777	0.89196
518.34086	0.89175
516.28395	0.89090
514.22705	0.88989
512.17014	0.88902
510.11323	0.88940
508.05632	0.89077
505.99941	0.89016
503.94250	0.88713
501.88560	0.88543
499.82869	0.88638
497.77178	0.88738
495.71487	0.88761
493.65796	0.88703
491.60106	0.88556
489.54415	0.88473
487.48724	0.88446
485.43033	0.88378
483.37342	0.88346
481.31651	0.88342
479.25961	0.88350
477.20270	0.88285
475.14579	0.88018
473.08888	0.87776
471.03197	0.87619
468.97507	0.87388
466.91816	0.87314
464.86125	0.87511
462.80434	0.87740
460.74743	0.87884
458.69052	0.87969
456.63362	0.87905
454.57671	0.87653
452.51980	0.87387
450.46289	0.87197
448.40598	0.87078
446.34908	0.87165
444.29217	0.87330
442.23526	0.87403
440.17835	0.87539
438.12144	0.87665
436.06453	0.87607
434.00763	0.87392
431.95072	0.87210
429.89381	0.87182
427.83690	0.87385
425.77999	0.87669
423.72309	0.87710
421.66618	0.87722
419.60927	0.87697
417.55236	0.87352
415.49545	0.87340
413.43854	0.87551
411.38164	0.87474
409.32473	0.87573
407.26782	0.88151
405.21091	0.88616
403.15400	0.88681
401.09710	0.88246
399.04019	0.87300
