3996.57260	0.99379
3994.51569	0.99446
3992.45878	0.99470
3990.40188	0.99455
3988.34497	0.99398
3986.28806	0.99330
3984.23115	0.99319
3982.17424	0.99364
3980.11733	0.99388
3978.06043	0.99360
3976.00352	0.99334
3973.94661	0.99334
3971.88970	0.99319
3969.83279	0.99278
3967.77589	0.99262
3965.71898	0.99267
3963.66207	0.99264
3961.60516	0.99294
3959.54825	0.99367
3957.49134	0.99415
3955.43444	0.99427
3953.37753	0.99441
3951.32062	0.99437
3949.26371	0.99420
3947.20680	0.99420
3945.14990	0.99396
3943.09299	0.99366
3941.03608	0.99359
3938.97917	0.99330
3936.92226	0.99327
3934.86535	0.99417
3932.80845	0.99504
3930.75154	0.99467
3928.69463	0.99332
3926.63772	0.99190
3924.58081	0.99132
3922.52391	0.99163
3920.46700	0.99251
3918.41009	0.99372
3916.35318	0.99432
3914.29627	0.99408
3912.23936	0.99368
3910.18246	0.99352
3908.12555	0.99345
3906.06864	0.99360
3904.01173	0.99389
3901.95482	0.99364
3899.89792	0.99320
3897.84101	0.99337
3895.78410	0.99395
3893.72719	0.99412
3891.67028	0.99390
3889.61337	0.99407
3887.55647	0.99434
3885.49956	0.99408
3883.44265	0.99333
3881.38574	0.99263
3879.32883	0.99247
3877.27193	0.99269
3875.21502	0.99281
3873.15811	0.99324
3871.10120	0.99378
3869.04429	0.99389
3866.98738	0.99381
3864.93048	0.99350
3862.87357	0.99354
3860.81666	0.99428
3858.75975	0.99491
3856.70284	0.99529
3854.64594	0.99573
3852.58903	0.99562
3850.53212	0.99471
3848.47521	0.99379
3846.41830	0.99316
3844.36139	0.99302
3842.30449	0.99297
3840.24758	0.99260
3838.19067	0.99276
3836.13376	0.99353
3834.07685	0.99374
3832.01995	0.99349
3829.96304	0.99326
3827.90613	0.99299
3825.84922	0.99299
3823.79231	0.99313
3821.73540	0.99310
3819.67850	0.99344
3817.62159	0.99347
3815.56468	0.99312
3813.50777	0.99380
3811.45086	0.99473
3809.39396	0.99470
3807.33705	0.99406
3805.28014	0.99387
3803.22323	0.99455
3801.16632	0.99530
3799.10941	0.99498
3797.05251	0.99419
3794.99560	0.99345
3792.93869	0.99279
3790.88178	0.99252
3788.82487	0.99278
3786.76796	0.99328
3784.71106	0.99368
3782.65415	0.99353
3780.59724	0.99303
3778.54033	0.99333
3776.48342	0.99428
3774.42652	0.99466
3772.36961	0.99440
3770.31270	0.99377
3768.25579	0.99321
3766.19888	0.99323
3764.14197	0.99337
3762.08507	0.99318
3760.02816	0.99344
3757.97125	0.99434
3755.91434	0.99468
3753.85743	0.99476
3751.80053	0.99520
3749.74362	0.99502
3747.68671	0.99446
3745.62980	0.99420
3743.57289	0.99366
3741.51598	0.99323
3739.45908	0.99338
3737.40217	0.99378
3735.34526	0.99441
3733.28835	0.99432
3731.23144	0.99305
3729.17454	0.99239
3727.11763	0.99278
3725.06072	0.99352
3723.00381	0.99401
3720.94690	0.99419
3718.88999	0.99403
3716.83309	0.99356
3714.77618	0.99323
3712.71927	0.99292
3710.66236	0.99257
3708.60545	0.99282
3706.54855	0.99360
3704.49164	0.99439
3702.43473	0.99456
3700.37782	0.99409
3698.32091	0.99388
3696.26400	0.99441
3694.20710	0.99521
3692.15019	0.99563
3690.09328	0.99534
3688.03637	0.99494
3685.97946	0.99444
3683.92256	0.99366
3681.86565	0.99371
3679.80874	0.99468
3677.75183	0.99561
3675.69492	0.99586
3673.63801	0.99510
3671.58111	0.99392
3669.52420	0.99269
3667.46729	0.99222
3665.41038	0.99273
3663.35347	0.99316
3661.29657	0.99286
3659.23966	0.99269
3657.18275	0.99314
3655.12584	0.99324
3653.06893	0.99307
3651.01202	0.99355
3648.95512	0.99429
3646.89821	0.99402
3644.84130	0.99317
3642.78439	0.99227
3640.72748	0.99145
3638.67058	0.99083
3636.61367	0.99025
3634.55676	0.98989
3632.49985	0.99010
3630.44294	0.99075
3628.38603	0.99111
3626.32913	0.99107
3624.27222	0.99134
3622.21531	0.99209
3620.15840	0.99245
3618.10149	0.99126
3616.04459	0.98989
3613.98768	0.98926
3611.93077	0.98861
3609.87386	0.98770
3607.81695	0.98718
3605.76004	0.98753
3603.70314	0.98835
3601.64623	0.98920
3599.58932	0.98901
3597.53241	0.98745
3595.47550	0.98648
3593.41860	0.98696
3591.36169	0.98772
3589.30478	0.98862
3587.24787	0.98947
3585.19096	0.98859
3583.13405	0.98656
3581.07715	0.98556
3579.02024	0.98603
3576.96333	0.98634
3574.90642	0.98604
3572.84951	0.98607
3570.79261	0.98639
3568.73570	0.98656
3566.67879	0.98615
3564.62188	0.98542
3562.56497	0.98513
3560.50806	0.98505
3558.45116	0.98464
3556.39425	0.98421
3554.33734	0.98424
3552.28043	0.98399
3550.22352	0.98320
3548.16662	0.98245
3546.10971	0.98183
3544.05280	0.98163
3541.99589	0.98158
3539.93898	0.98135
3537.88207	0.98147
3535.82517	0.98128
3533.76826	0.97995
3531.71135	0.97897
3529.65444	0.97955
3527.59753	0.98084
3525.54063	0.98166
3523.48372	0.98141
3521.42681	0.98016
3519.36990	0.97903
3517.31299	0.97873
3515.25608	0.97894
3513.19918	0.97911
3511.14227	0.97873
3509.08536	0.97789
3507.02845	0.97719
3504.97154	0.97686
3502.91464	0.97685
3500.85773	0.97691
3498.80082	0.97699
3496.74391	0.97701
3494.68700	0.97677
3492.63009	0.97655
3490.57319	0.97617
3488.51628	0.97525
3486.45937	0.97456
3484.40246	0.97459
3482.34555	0.97482
3480.28865	0.97497
3478.23174	0.97493
3476.17483	0.97468
3474.11792	0.97436
3472.06101	0.97391
3470.00410	0.97358
3467.94720	0.97395
3465.89029	0.97451
3463.83338	0.97428
3461.77647	0.97356
3459.71956	0.97280
3457.66266	0.97265
3455.60575	0.97332
3453.54884	0.97361
3451.49193	0.97320
3449.43502	0.97265
3447.37811	0.97215
3445.32121	0.97226
3443.26430	0.97292
3441.20739	0.97328
3439.15048	0.97323
3437.09357	0.97300
3435.03667	0.97274
3432.97976	0.97254
3430.92285	0.97249
3428.86594	0.97252
3426.80903	0.97230
3424.75212	0.97223
3422.69522	0.97273
3420.63831	0.97311
3418.58140	0.97271
3416.52449	0.97223
3414.46758	0.97274
3412.41068	0.97396
3410.35377	0.97423
3408.29686	0.97333
3406.23995	0.97271
3404.18304	0.97281
3402.12613	0.97333
3400.06923	0.97385
3398.01232	0.97376
3395.95541	0.97323
3393.89850	0.97294
3391.84159	0.97293
3389.78469	0.97268
3387.72778	0.97238
3385.67087	0.97249
3383.61396	0.97279
3381.55705	0.97294
3379.50014	0.97295
3377.44324	0.97312
3375.38633	0.97372
3373.32942	0.97443
3371.27251	0.97481
3369.21560	0.97515
3367.15870	0.97556
3365.10179	0.97522
3363.04488	0.97425
3360.98797	0.97388
3358.93106	0.97413
3356.87415	0.97423
3354.81725	0.97434
3352.76034	0.97488
3350.70343	0.97549
3348.64652	0.97561
3346.58961	0.97526
3344.53271	0.97481
3342.47580	0.97476
3340.41889	0.97512
3338.36198	0.97559
3336.30507	0.97591
3334.24816	0.97561
3332.19126	0.97539
3330.13435	0.97592
3328.07744	0.97636
3326.02053	0.97642
3323.96362	0.97629
3321.90672	0.97590
3319.84981	0.97571
3317.79290	0.97601
3315.73599	0.97639
3313.67908	0.97650
3311.62217	0.97660
3309.56527	0.97693
3307.50836	0.97704
3305.45145	0.97726
3303.39454	0.97806
3301.33763	0.97853
3299.28073	0.97826
3297.22382	0.97794
3295.16691	0.97779
3293.11000	0.97763
3291.05309	0.97741
3288.99618	0.97728
3286.93928	0.97775
3284.88237	0.97841
3282.82546	0.97856
3280.76855	0.97872
3278.71164	0.97900
3276.65474	0.97866
3274.59783	0.97819
3272.54092	0.97841
3270.48401	0.97915
3268.42710	0.97977
3266.37019	0.97969
3264.31329	0.97925
3262.25638	0.97901
3260.19947	0.97904
3258.14256	0.97949
3256.08565	0.98004
3254.02875	0.98026
3251.97184	0.98026
3249.91493	0.98050
3247.85802	0.98105
3245.80111	0.98148
3243.74420	0.98156
3241.68730	0.98128
3239.63039	0.98097
3237.57348	0.98100
3235.51657	0.98107
3233.45966	0.98109
3231.40276	0.98129
3229.34585	0.98156
3227.28894	0.98186
3225.23203	0.98191
3223.17512	0.98197
3221.11821	0.98247
3219.06131	0.98304
3217.00440	0.98325
3214.94749	0.98272
3212.89058	0.98188
3210.83367	0.98216
3208.77677	0.98306
3206.71986	0.98334
3204.66295	0.98370
3202.60604	0.98419
3200.54913	0.98425
3198.49222	0.98425
3196.43532	0.98404
3194.37841	0.98341
3192.32150	0.98307
3190.26459	0.98337
3188.20768	0.98364
3186.15078	0.98371
3184.09387	0.98397
3182.03696	0.98421
3179.98005	0.98435
3177.92314	0.98463
3175.86623	0.98491
3173.80933	0.98495
3171.75242	0.98460
3169.69551	0.98441
3167.63860	0.98512
3165.58169	0.98591
3163.52479	0.98594
3161.46788	0.98556
3159.41097	0.98511
3157.35406	0.98482
3155.29715	0.98494
3153.24024	0.98538
3151.18334	0.98584
3149.12643	0.98628
3147.06952	0.98650
3145.01261	0.98633
3142.95570	0.98632
3140.89880	0.98670
3138.84189	0.98670
3136.78498	0.98641
3134.72807	0.98661
3132.67116	0.98690
3130.61425	0.98681
3128.55735	0.98654
3126.50044	0.98643
3124.44353	0.98663
3122.38662	0.98708
3120.32971	0.98734
3118.27281	0.98724
3116.21590	0.98749
3114.15899	0.98795
3112.10208	0.98796
3110.04517	0.98771
3107.98826	0.98736
3105.93136	0.98713
3103.87445	0.98730
3101.81754	0.98749
3099.76063	0.98764
3097.70372	0.98789
3095.64682	0.98788
3093.58991	0.98759
3091.53300	0.98743
3089.47609	0.98752
3087.41918	0.98775
3085.36227	0.98811
3083.30537	0.98840
3081.24846	0.98847
3079.19155	0.98833
3077.13464	0.98825
3075.07773	0.98842
3073.02083	0.98878
3070.96392	0.98888
3068.90701	0.98846
3066.85010	0.98831
3064.79319	0.98874
3062.73628	0.98885
3060.67938	0.98855
3058.62247	0.98857
3056.56556	0.98894
3054.50865	0.98939
3052.45174	0.98964
3050.39484	0.98952
3048.33793	0.98952
3046.28102	0.98968
3044.22411	0.98946
3042.16720	0.98908
3040.11029	0.98912
3038.05339	0.98924
3035.99648	0.98929
3033.93957	0.98945
3031.88266	0.98957
3029.82575	0.99009
3027.76885	0.99059
3025.71194	0.99022
3023.65503	0.98968
3021.59812	0.98960
3019.54121	0.98952
3017.48430	0.98923
3015.42740	0.98896
3013.37049	0.98891
3011.31358	0.98917
3009.25667	0.98960
3007.19976	0.98961
3005.14286	0.98900
3003.08595	0.98857
3001.02904	0.98875
2998.97213	0.98902
2996.91522	0.98914
2994.85831	0.98932
2992.80141	0.98948
2990.74450	0.98934
2988.68759	0.98896
2986.63068	0.98876
2984.57377	0.98871
2982.51687	0.98887
2980.45996	0.98923
2978.40305	0.98907
2976.34614	0.98819
2974.28923	0.98725
2972.23232	0.98686
2970.17542	0.98702
2968.11851	0.98720
2966.06160	0.98697
2964.00469	0.98662
2961.94778	0.98663
2959.89088	0.98693
2957.83397	0.98721
2955.77706	0.98734
2953.72015	0.98710
2951.66324	0.98666
2949.60633	0.98658
2947.54943	0.98651
2945.49252	0.98609
2943.43561	0.98580
2941.37870	0.98582
2939.32179	0.98572
2937.26489	0.98558
2935.20798	0.98557
2933.15107	0.98545
2931.09416	0.98538
2929.03725	0.98556
2926.98034	0.98576
2924.92344	0.98583
2922.86653	0.98565
2920.80962	0.98547
2918.75271	0.98559
2916.69580	0.98555
2914.63890	0.98500
2912.58199	0.98449
2910.52508	0.98462
2908.46817	0.98479
2906.41126	0.98443
2904.35435	0.98426
2902.29745	0.98451
2900.24054	0.98455
2898.18363	0.98437
2896.12672	0.98410
2894.06981	0.98384
2892.01291	0.98377
2889.95600	0.98370
2887.89909	0.98346
2885.84218	0.98327
2883.78527	0.98344
2881.72836	0.98343
2879.67146	0.98293
2877.61455	0.98277
2875.55764	0.98313
2873.50073	0.98350
2871.44382	0.98373
2869.38692	0.98385
2867.33001	0.98407
2865.27310	0.98471
2863.21619	0.98526
2861.15928	0.98529
2859.10237	0.98555
2857.04547	0.98641
2854.98856	0.98715
2852.93165	0.98729
2850.87474	0.98713
2848.81783	0.98718
2846.76093	0.98730
2844.70402	0.98752
2842.64711	0.98786
2840.59020	0.98785
2838.53329	0.98771
2836.47638	0.98787
2834.41948	0.98805
2832.36257	0.98817
2830.30566	0.98828
2828.24875	0.98812
2826.19184	0.98801
2824.13494	0.98835
2822.07803	0.98879
2820.02112	0.98903
2817.96421	0.98919
2815.90730	0.98920
2813.85039	0.98915
2811.79349	0.98937
2809.73658	0.98959
2807.67967	0.98927
2805.62276	0.98887
2803.56585	0.98893
2801.50895	0.98919
2799.45204	0.98932
2797.39513	0.98940
2795.33822	0.98952
2793.28131	0.98934
2791.22440	0.98893
2789.16750	0.98893
2787.11059	0.98934
2785.05368	0.98964
2782.99677	0.98964
2780.93986	0.98945
2778.88296	0.98926
2776.82605	0.98951
2774.76914	0.99003
2772.71223	0.99017
2770.65532	0.99006
2768.59841	0.99016
2766.54151	0.99020
2764.48460	0.98995
2762.42769	0.98987
2760.37078	0.99009
2758.31387	0.99018
2756.25697	0.98997
2754.20006	0.98960
2752.14315	0.98944
2750.08624	0.98974
2748.02933	0.99020
2745.97242	0.99048
2743.91552	0.99051
2741.85861	0.99020
2739.80170	0.98980
2737.74479	0.98959
2735.68788	0.98951
2733.63098	0.98951
2731.57407	0.98929
2729.51716	0.98893
2727.46025	0.98893
2725.40334	0.98932
2723.34643	0.98969
2721.28953	0.98976
2719.23262	0.98947
2717.17571	0.98917
2715.11880	0.98932
2713.06189	0.98974
2711.00499	0.99015
2708.94808	0.99062
2706.89117	0.99066
2704.83426	0.99005
2702.77735	0.98961
2700.72044	0.98977
2698.66354	0.99008
2696.60663	0.99015
2694.54972	0.99013
2692.49281	0.99015
2690.43590	0.99015
2688.37900	0.99019
2686.32209	0.99021
2684.26518	0.99016
2682.20827	0.99029
2680.15136	0.99053
2678.09445	0.99046
2676.03755	0.99009
2673.98064	0.98993
2671.92373	0.99034
2669.86682	0.99067
2667.80991	0.99034
2665.75301	0.98994
2663.69610	0.98981
2661.63919	0.98969
2659.58228	0.98967
2657.52537	0.98988
2655.46846	0.98989
2653.41156	0.98953
2651.35465	0.98925
2649.29774	0.98927
2647.24083	0.98937
2645.18392	0.98950
2643.12702	0.98972
2641.07011	0.98973
2639.01320	0.98935
2636.95629	0.98944
2634.89938	0.99038
2632.84247	0.99117
2630.78557	0.99109
2628.72866	0.99029
2626.67175	0.98972
2624.61484	0.99016
2622.55793	0.99091
2620.50103	0.99084
2618.44412	0.99036
2616.38721	0.99046
2614.33030	0.99090
2612.27339	0.99092
2610.21648	0.99069
2608.15958	0.99052
2606.10267	0.99042
2604.04576	0.99038
2601.98885	0.99023
2599.93194	0.99007
2597.87504	0.99024
2595.81813	0.99063
2593.76122	0.99076
2591.70431	0.99061
2589.64740	0.99039
2587.59049	0.98991
2585.53359	0.98957
2583.47668	0.98969
2581.41977	0.98998
2579.36286	0.99015
2577.30595	0.99013
2575.24905	0.99016
2573.19214	0.99036
2571.13523	0.99098
2569.07832	0.99157
2567.02141	0.99121
2564.96450	0.99089
2562.90760	0.99136
2560.85069	0.99159
2558.79378	0.99123
2556.73687	0.99073
2554.67996	0.99035
2552.62306	0.99051
2550.56615	0.99145
2548.50924	0.99228
2546.45233	0.99228
2544.39542	0.99193
2542.33851	0.99155
2540.28161	0.99101
2538.22470	0.99101
2536.16779	0.99159
2534.11088	0.99157
2532.05397	0.99118
2529.99707	0.99115
2527.94016	0.99147
2525.88325	0.99189
2523.82634	0.99189
2521.76943	0.99160
2519.71252	0.99137
2517.65562	0.99097
2515.59871	0.99052
2513.54180	0.99062
2511.48489	0.99085
2509.42798	0.99049
2507.37108	0.99042
2505.31417	0.99107
2503.25726	0.99108
2501.20035	0.99036
2499.14344	0.98994
2497.08653	0.99021
2495.02963	0.99093
2492.97272	0.99154
2490.91581	0.99171
2488.85890	0.99175
2486.80199	0.99210
2484.74509	0.99232
2482.68818	0.99230
2480.63127	0.99229
2478.57436	0.99191
2476.51745	0.99141
2474.46054	0.99123
2472.40364	0.99118
2470.34673	0.99120
2468.28982	0.99142
2466.23291	0.99158
2464.17600	0.99168
2462.11910	0.99198
2460.06219	0.99228
2458.00528	0.99233
2455.94837	0.99219
2453.89146	0.99200
2451.83455	0.99195
2449.77765	0.99209
2447.72074	0.99210
2445.66383	0.99219
2443.60692	0.99243
2441.55001	0.99217
2439.49311	0.99178
2437.43620	0.99176
2435.37929	0.99180
2433.32238	0.99207
2431.26547	0.99239
2429.20856	0.99190
2427.15166	0.99123
2425.09475	0.99111
2423.03784	0.99123
2420.98093	0.99165
2418.92402	0.99178
2416.86712	0.99138
2414.81021	0.99135
2412.75330	0.99202
2410.69639	0.99273
2408.63948	0.99258
2406.58257	0.99176
2404.52567	0.99149
2402.46876	0.99167
2400.41185	0.99178
2398.35494	0.99227
2396.29803	0.99272
2394.24113	0.99267
2392.18422	0.99262
2390.12731	0.99262
2388.07040	0.99259
2386.01349	0.99259
2383.95658	0.99228
2381.89968	0.99184
2379.84277	0.99190
2377.78586	0.99226
2375.72895	0.99264
2373.67204	0.99308
2371.61514	0.99338
2369.55823	0.99323
2367.50132	0.99259
2365.44441	0.99235
2363.38750	0.99259
2361.33059	0.99243
2359.27369	0.99189
2357.21678	0.99116
2355.15987	0.99034
2353.10296	0.99020
2351.04605	0.99087
2348.98915	0.99127
2346.93224	0.99121
2344.87533	0.99146
2342.81842	0.99177
2340.76151	0.99158
2338.70460	0.99153
2336.64770	0.99142
2334.59079	0.99123
2332.53388	0.99147
2330.47697	0.99169
2328.42006	0.99161
2326.36316	0.99105
2324.30625	0.99021
2322.24934	0.99001
2320.19243	0.99019
2318.13552	0.99031
2316.07861	0.99041
2314.02171	0.99053
2311.96480	0.99106
2309.90789	0.99144
2307.85098	0.99138
2305.79407	0.99140
2303.73717	0.99133
2301.68026	0.99116
2299.62335	0.99123
2297.56644	0.99136
2295.50953	0.99106
2293.45262	0.99028
2291.39572	0.98949
2289.33881	0.98941
2287.28190	0.99040
2285.22499	0.99161
2283.16808	0.99204
2281.11117	0.99176
2279.05427	0.99118
2276.99736	0.99066
2274.94045	0.99079
2272.88354	0.99133
2270.82663	0.99173
2268.76973	0.99200
2266.71282	0.99214
2264.65591	0.99197
2262.59900	0.99146
2260.54209	0.99106
2258.48518	0.99114
2256.42828	0.99103
2254.37137	0.99073
2252.31446	0.99165
2250.25755	0.99275
2248.20064	0.99248
2246.14374	0.99228
2244.08683	0.99268
2242.02992	0.99256
2239.97301	0.99175
2237.91610	0.99125
2235.85919	0.99174
2233.80229	0.99255
2231.74538	0.99317
2229.68847	0.99368
2227.63156	0.99336
2225.57465	0.99220
2223.51775	0.99182
2221.46084	0.99220
2219.40393	0.99231
2217.34702	0.99296
2215.29011	0.99433
2213.23320	0.99484
2211.17630	0.99404
2209.11939	0.99270
2207.06248	0.99137
2205.00557	0.99055
2202.94866	0.98992
2200.89176	0.98906
2198.83485	0.98875
2196.77794	0.98965
2194.72103	0.99071
2192.66412	0.99037
2190.60721	0.98938
2188.55031	0.98933
2186.49340	0.98997
2184.43649	0.99055
2182.37958	0.99105
2180.32267	0.99157
2178.26577	0.99179
2176.20886	0.99196
2174.15195	0.99230
2172.09504	0.99214
2170.03813	0.99129
2167.98122	0.99049
2165.92432	0.99016
2163.86741	0.98947
2161.81050	0.98994
2159.75359	0.99465
2157.69668	0.99951
2155.63978	0.99933
2153.58287	0.99675
2151.52596	0.99482
2149.46905	0.99350
2147.41214	0.99219
2145.35523	0.99181
2143.29833	0.99289
2141.24142	0.99428
2139.18451	0.99470
2137.12760	0.99426
2135.07069	0.99470
2133.01379	0.99568
2130.95688	0.99561
2128.89997	0.99450
2126.84306	0.99311
2124.78615	0.99226
2122.72924	0.99228
2120.67234	0.99294
2118.61543	0.99339
2116.55852	0.99307
2114.50161	0.99247
2112.44470	0.99179
2110.38780	0.99071
2108.33089	0.99020
2106.27398	0.99114
2104.21707	0.99239
2102.16016	0.99279
2100.10325	0.99235
2098.04635	0.99202
2095.98944	0.99240
2093.93253	0.99288
2091.87562	0.99351
2089.81871	0.99431
2087.76181	0.99393
2085.70490	0.99246
2083.64799	0.99169
2081.59108	0.99199
2079.53417	0.99235
2077.47726	0.99150
2075.42036	0.98982
2073.36345	0.98965
2071.30654	0.99081
2069.24963	0.99130
2067.19272	0.99188
2065.13582	0.99369
2063.07891	0.99490
2061.02200	0.99464
2058.96509	0.99369
2056.90818	0.99275
2054.85127	0.99304
2052.79437	0.99380
2050.73746	0.99220
2048.68055	0.98969
2046.62364	0.99066
2044.56673	0.99313
2042.50983	0.99378
2040.45292	0.99303
2038.39601	0.99088
2036.33910	0.98859
2034.28219	0.98825
2032.22528	0.99030
2030.16838	0.99283
2028.11147	0.99318
2026.05456	0.99242
2023.99765	0.99246
2021.94074	0.99290
2019.88384	0.99438
2017.82693	0.99563
2015.77002	0.99432
2013.71311	0.99310
2011.65620	0.99362
2009.59929	0.99480
2007.54239	0.99662
2005.48548	0.99772
2003.42857	0.99656
2001.37166	0.99435
1999.31475	0.99288
1997.25785	0.99307
1995.20094	0.99404
1993.14403	0.99420
1991.08712	0.99414
1989.03021	0.99424
1986.97330	0.99392
1984.91640	0.99371
1982.85949	0.99406
1980.80258	0.99425
1978.74567	0.99423
1976.68876	0.99488
1974.63186	0.99480
1972.57495	0.99333
1970.51804	0.99360
1968.46113	0.99544
1966.40422	0.99520
1964.34731	0.99407
1962.29041	0.99454
1960.23350	0.99582
1958.17659	0.99667
1956.11968	0.99663
1954.06277	0.99581
1952.00587	0.99472
1949.94896	0.99422
1947.89205	0.99394
1945.83514	0.99329
1943.77823	0.99254
1941.72132	0.99162
1939.66442	0.99155
1937.60751	0.99312
1935.55060	0.99523
1933.49369	0.99614
1931.43678	0.99517
1929.37988	0.99366
1927.32297	0.99314
1925.26606	0.99333
1923.20915	0.99313
1921.15224	0.99236
1919.09533	0.99164
1917.03843	0.99188
1914.98152	0.99299
1912.92461	0.99374
1910.86770	0.99373
1908.81079	0.99345
1906.75389	0.99326
1904.69698	0.99348
1902.64007	0.99421
1900.58316	0.99453
1898.52625	0.99441
1896.46934	0.99435
1894.41244	0.99454
1892.35553	0.99506
1890.29862	0.99531
1888.24171	0.99494
1886.18480	0.99423
1884.12790	0.99366
1882.07099	0.99384
1880.01408	0.99440
1877.95717	0.99424
1875.90026	0.99377
1873.84335	0.99403
1871.78645	0.99477
1869.72954	0.99504
1867.67263	0.99425
1865.61572	0.99362
1863.55881	0.99388
1861.50191	0.99412
1859.44500	0.99365
1857.38809	0.99339
1855.33118	0.99433
1853.27427	0.99533
1851.21736	0.99518
1849.16046	0.99429
1847.10355	0.99358
1845.04664	0.99329
1842.98973	0.99318
1840.93282	0.99327
1838.87592	0.99330
1836.81901	0.99318
1834.76210	0.99356
1832.70519	0.99433
1830.64828	0.99484
1828.59137	0.99494
1826.53447	0.99444
1824.47756	0.99342
1822.42065	0.99298
1820.36374	0.99337
1818.30683	0.99381
1816.24993	0.99366
1814.19302	0.99303
1812.13611	0.99271
1810.07920	0.99290
1808.02229	0.99328
1805.96538	0.99357
1803.90848	0.99366
1801.85157	0.99365
1799.79466	0.99329
1797.73775	0.99262
1795.68084	0.99227
1793.62394	0.99232
1791.56703	0.99262
1789.51012	0.99293
1787.45321	0.99289
1785.39630	0.99269
1783.33939	0.99255
1781.28249	0.99217
1779.22558	0.99133
1777.16867	0.99057
1775.11176	0.99030
1773.05485	0.99005
1770.99795	0.98910
1768.94104	0.98743
1766.88413	0.98505
1764.82722	0.98249
1762.77031	0.97997
1760.71340	0.97682
1758.65650	0.97313
1756.59959	0.96898
1754.54268	0.96529
1752.48577	0.96242
1750.42886	0.95895
1748.37196	0.95467
1746.31505	0.95138
1744.25814	0.94919
1742.20123	0.94725
1740.14432	0.94525
1738.08741	0.94345
1736.03051	0.94215
1733.97360	0.94047
1731.91669	0.93877
1729.85978	0.93816
1727.80287	0.93819
1725.74597	0.93838
1723.68906	0.93899
1721.63215	0.94041
1719.57524	0.94229
1717.51833	0.94412
1715.46142	0.94606
1713.40452	0.94874
1711.34761	0.95218
1709.29070	0.95600
1707.23379	0.95963
1705.17688	0.96280
1703.11998	0.96537
1701.06307	0.96768
1699.00616	0.97024
1696.94925	0.97273
1694.89234	0.97470
1692.83543	0.97602
1690.77853	0.97719
1688.72162	0.97860
1686.66471	0.98016
1684.60780	0.98155
1682.55089	0.98204
1680.49399	0.98190
1678.43708	0.98205
1676.38017	0.98277
1674.32326	0.98311
1672.26635	0.98266
1670.20944	0.98249
1668.15254	0.98269
1666.09563	0.98277
1664.03872	0.98271
1661.98181	0.98237
1659.92490	0.98212
1657.86800	0.98216
1655.81109	0.98214
1653.75418	0.98198
1651.69727	0.98217
1649.64036	0.98238
1647.58345	0.98233
1645.52655	0.98216
1643.46964	0.98215
1641.41273	0.98254
1639.35582	0.98305
1637.29891	0.98324
1635.24201	0.98294
1633.18510	0.98252
1631.12819	0.98238
1629.07128	0.98248
1627.01437	0.98277
1624.95746	0.98320
1622.90056	0.98368
1620.84365	0.98399
1618.78674	0.98434
1616.72983	0.98475
1614.67292	0.98512
1612.61602	0.98563
1610.55911	0.98595
1608.50220	0.98579
1606.44529	0.98566
1604.38838	0.98581
1602.33147	0.98608
1600.27457	0.98650
1598.21766	0.98691
1596.16075	0.98720
1594.10384	0.98746
1592.04693	0.98756
1589.99003	0.98753
1587.93312	0.98765
1585.87621	0.98789
1583.81930	0.98803
1581.76239	0.98804
1579.70548	0.98805
1577.64858	0.98827
1575.59167	0.98849
1573.53476	0.98832
1571.47785	0.98801
1569.42094	0.98779
1567.36404	0.98782
1565.30713	0.98797
1563.25022	0.98821
1561.19331	0.98864
1559.13640	0.98912
1557.07949	0.98888
1555.02259	0.98853
1552.96568	0.98854
1550.90877	0.98865
1548.85186	0.98863
1546.79495	0.98880
1544.73805	0.98908
1542.68114	0.98880
1540.62423	0.98839
1538.56732	0.98863
1536.51041	0.98878
1534.45350	0.98866
1532.39660	0.98834
1530.33969	0.98837
1528.28278	0.98862
1526.22587	0.98848
1524.16896	0.98838
1522.11206	0.98861
1520.05515	0.98859
1517.99824	0.98832
1515.94133	0.98784
1513.88442	0.98753
1511.82751	0.98758
1509.77061	0.98770
1507.71370	0.98770
1505.65679	0.98746
1503.59988	0.98737
1501.54297	0.98747
1499.48607	0.98747
1497.42916	0.98723
1495.37225	0.98696
1493.31534	0.98712
1491.25843	0.98751
1489.20152	0.98712
1487.14462	0.98609
1485.08771	0.98566
1483.03080	0.98541
1480.97389	0.98456
1478.91698	0.98364
1476.86008	0.98332
1474.80317	0.98321
1472.74626	0.98260
1470.68935	0.98157
1468.63244	0.98082
1466.57553	0.98027
1464.51863	0.97961
1462.46172	0.97898
1460.40481	0.97853
1458.34790	0.97787
1456.29099	0.97649
1454.23409	0.97525
1452.17718	0.97452
1450.12027	0.97392
1448.06336	0.97326
1446.00645	0.97246
1443.94954	0.97166
1441.89264	0.97094
1439.83573	0.97026
1437.77882	0.96953
1435.72191	0.96843
1433.66500	0.96740
1431.60810	0.96706
1429.55119	0.96717
1427.49428	0.96703
1425.43737	0.96682
1423.38046	0.96696
1421.32355	0.96723
1419.26665	0.96722
1417.20974	0.96695
1415.15283	0.96696
1413.09592	0.96710
1411.03901	0.96699
1408.98211	0.96692
1406.92520	0.96716
1404.86829	0.96746
1402.81138	0.96772
1400.75447	0.96773
1398.69756	0.96715
1396.64066	0.96626
1394.58375	0.96528
1392.52684	0.96414
1390.46993	0.96277
1388.41302	0.96102
1386.35612	0.95892
1384.29921	0.95671
1382.24230	0.95439
1380.18539	0.95197
1378.12848	0.94968
1376.07157	0.94759
1374.01467	0.94560
1371.95776	0.94426
1369.90085	0.94409
1367.84394	0.94476
1365.78703	0.94590
1363.73013	0.94755
1361.67322	0.95006
1359.61631	0.95331
1357.55940	0.95645
1355.50249	0.95888
1353.44558	0.96069
1351.38868	0.96216
1349.33177	0.96340
1347.27486	0.96426
1345.21795	0.96483
1343.16104	0.96540
1341.10414	0.96595
1339.04723	0.96655
1336.99032	0.96718
1334.93341	0.96736
1332.87650	0.96726
1330.81959	0.96744
1328.76269	0.96772
1326.70578	0.96779
1324.64887	0.96781
1322.59196	0.96804
1320.53505	0.96839
1318.47815	0.96846
1316.42124	0.96817
1314.36433	0.96801
1312.30742	0.96828
1310.25051	0.96878
1308.19360	0.96917
1306.13670	0.96938
1304.07979	0.96962
1302.02288	0.96983
1299.96597	0.96978
1297.90906	0.96967
1295.85216	0.96954
1293.79525	0.96919
1291.73834	0.96864
1289.68143	0.96786
1287.62452	0.96682
1285.56761	0.96582
1283.51071	0.96493
1281.45380	0.96381
1279.39689	0.96239
1277.33998	0.96097
1275.28307	0.95954
1273.22617	0.95791
1271.16926	0.95599
1269.11235	0.95380
1267.05544	0.95155
1264.99853	0.94937
1262.94162	0.94699
1260.88472	0.94425
1258.82781	0.94142
1256.77090	0.93865
1254.71399	0.93574
1252.65708	0.93275
1250.60018	0.92986
1248.54327	0.92711
1246.48636	0.92453
1244.42945	0.92207
1242.37254	0.91954
1240.31563	0.91688
1238.25873	0.91431
1236.20182	0.91216
1234.14491	0.91041
1232.08800	0.90890
1230.03109	0.90758
1227.97419	0.90641
1225.91728	0.90561
1223.86037	0.90578
1221.80346	0.90706
1219.74655	0.90913
1217.68964	0.91186
1215.63274	0.91515
1213.57583	0.91866
1211.51892	0.92208
1209.46201	0.92537
1207.40510	0.92858
1205.34820	0.93154
1203.29129	0.93428
1201.23438	0.93690
1199.17747	0.93925
1197.12056	0.94122
1195.06365	0.94300
1193.00675	0.94474
1190.94984	0.94605
1188.89293	0.94690
1186.83602	0.94754
1184.77911	0.94761
1182.72221	0.94694
1180.66530	0.94593
1178.60839	0.94479
1176.55148	0.94352
1174.49457	0.94202
1172.43766	0.94037
1170.38076	0.93888
1168.32385	0.93736
1166.26694	0.93537
1164.21003	0.93333
1162.15312	0.93185
1160.09622	0.93086
1158.03931	0.93021
1155.98240	0.92986
1153.92549	0.92969
1151.86858	0.92963
1149.81167	0.92976
1147.75477	0.93021
1145.69786	0.93067
1143.64095	0.93051
1141.58404	0.92985
1139.52713	0.92925
1137.47023	0.92861
1135.41332	0.92764
1133.35641	0.92627
1131.29950	0.92455
1129.24259	0.92287
1127.18568	0.92141
1125.12878	0.91972
1123.07187	0.91802
1121.01496	0.91695
1118.95805	0.91602
1116.90114	0.91456
1114.84424	0.91298
1112.78733	0.91156
1110.73042	0.91014
1108.67351	0.90901
1106.61660	0.90804
1104.55969	0.90661
1102.50279	0.90504
1100.44588	0.90392
1098.38897	0.90286
1096.33206	0.90187
1094.27515	0.90092
1092.21825	0.89939
1090.16134	0.89760
1088.10443	0.89579
1086.04752	0.89352
1083.99061	0.89115
1081.93370	0.88911
1079.87680	0.88728
1077.81989	0.88543
1075.76298	0.88317
1073.70607	0.88076
1071.64916	0.87876
1069.59226	0.87701
1067.53535	0.87509
1065.47844	0.87316
1063.42153	0.87161
1061.36462	0.87046
1059.30771	0.86927
1057.25081	0.86802
1055.19390	0.86682
1053.13699	0.86525
1051.08008	0.86350
1049.02317	0.86211
1046.96627	0.86079
1044.90936	0.85899
1042.85245	0.85716
1040.79554	0.85588
1038.73863	0.85457
1036.68172	0.85291
1034.62482	0.85130
1032.56791	0.84982
1030.51100	0.84846
1028.45409	0.84748
1026.39718	0.84689
1024.34028	0.84674
1022.28337	0.84689
1020.22646	0.84707
1018.16955	0.84766
1016.11264	0.84878
1014.05573	0.85026
1011.99883	0.85199
1009.94192	0.85357
1007.88501	0.85500
1005.82810	0.85652
1003.77119	0.85783
1001.71429	0.85897
999.65738	0.86042
997.60047	0.86206
995.54356	0.86360
993.48665	0.86501
991.42974	0.86655
989.37284	0.86858
987.31593	0.87096
985.25902	0.87334
983.20211	0.87543
981.14520	0.87733
979.08830	0.87948
977.03139	0.88180
974.97448	0.88410
972.91757	0.88660
970.86066	0.88929
968.80375	0.89170
966.74685	0.89402
964.68994	0.89666
962.63303	0.89938
960.57612	0.90176
958.51921	0.90364
956.46231	0.90532
954.40540	0.90732
952.34849	0.90964
950.29158	0.91177
948.23467	0.91339
946.17776	0.91455
944.12086	0.91571
942.06395	0.91678
940.00704	0.91737
937.95013	0.91790
935.89322	0.91848
933.83632	0.91884
931.77941	0.91920
929.72250	0.91953
927.66559	0.91970
925.60868	0.92005
923.55177	0.92031
921.49487	0.92023
919.43796	0.92045
917.38105	0.92094
915.32414	0.92097
913.26723	0.92038
911.21033	0.91964
909.15342	0.91928
907.09651	0.91900
905.03960	0.91879
902.98269	0.91875
900.92578	0.91826
898.86888	0.91770
896.81197	0.91781
894.75506	0.91844
892.69815	0.91947
890.64124	0.92077
888.58434	0.92233
886.52743	0.92417
884.47052	0.92595
882.41361	0.92755
880.35670	0.92939
878.29979	0.93123
876.24289	0.93242
874.18598	0.93362
872.12907	0.93564
870.07216	0.93791
868.01525	0.93990
865.95835	0.94161
863.90144	0.94269
861.84453	0.94324
859.78762	0.94375
857.73071	0.94448
855.67380	0.94538
853.61690	0.94587
851.55999	0.94561
849.50308	0.94533
847.44617	0.94551
845.38926	0.94571
843.33236	0.94552
841.27545	0.94516
839.21854	0.94508
837.16163	0.94521
835.10472	0.94537
833.04781	0.94533
830.99091	0.94505
828.93400	0.94520
826.87709	0.94559
824.82018	0.94577
822.76327	0.94612
820.70637	0.94596
818.64946	0.94500
816.59255	0.94438
814.53564	0.94431
812.47873	0.94424
810.42182	0.94401
808.36492	0.94394
806.30801	0.94403
804.25110	0.94413
802.19419	0.94407
800.13728	0.94362
798.08038	0.94337
796.02347	0.94343
793.96656	0.94360
791.90965	0.94432
789.85274	0.94512
787.79583	0.94553
785.73893	0.94617
783.68202	0.94697
781.62511	0.94744
779.56820	0.94755
777.51129	0.94762
775.45439	0.94819
773.39748	0.94880
771.34057	0.94881
769.28366	0.94873
767.22675	0.94896
765.16984	0.94966
763.11294	0.95074
761.05603	0.95122
758.99912	0.95088
756.94221	0.95074
754.88530	0.95104
752.82839	0.95108
750.77149	0.95090
748.71458	0.95074
746.65767	0.95064
744.60076	0.95055
742.54385	0.95035
740.48695	0.95058
738.43004	0.95084
736.37313	0.95014
734.31622	0.94944
732.25931	0.94936
730.20240	0.94913
728.14550	0.94916
726.08859	0.94978
724.03168	0.94975
721.97477	0.94861
719.91786	0.94751
717.86096	0.94696
715.80405	0.94627
713.74714	0.94557
711.69023	0.94511
709.63332	0.94492
707.57641	0.94544
705.51951	0.94600
703.46260	0.94569
701.40569	0.94467
699.34878	0.94362
697.29187	0.94321
695.23497	0.94302
693.17806	0.94246
691.12115	0.94123
689.06424	0.93979
687.00733	0.93915
684.95042	0.93903
682.89352	0.93867
680.83661	0.93785
678.77970	0.93693
676.72279	0.93637
674.66588	0.93601
672.60898	0.93575
670.55207	0.93654
668.49516	0.93784
666.43825	0.93710
664.38134	0.93593
662.32443	0.93609
660.26753	0.93689
658.21062	0.93682
656.15371	0.93583
654.09680	0.93486
652.03989	0.93441
649.98299	0.93417
647.92608	0.93354
645.86917	0.93318
643.81226	0.93351
641.75535	0.93361
639.69844	0.93256
637.64154	0.93095
635.58463	0.93012
633.52772	0.93052
631.47081	0.93113
629.41390	0.93061
627.35700	0.92908
625.30009	0.92698
623.24318	0.92507
621.18627	0.92437
619.12936	0.92490
617.07245	0.92505
615.01555	0.92376
612.95864	0.92232
610.90173	0.92147
608.84482	0.92041
606.78791	0.91880
604.73101	0.91709
602.67410	0.91611
600.61719	0.91598
598.56028	0.91597
596.50337	0.91681
594.44646	0.91870
592.38956	0.91907
590.33265	0.91749
588.27574	0.91680
586.21883	0.91774
584.16192	0.91875
582.10502	0.91919
580.04811	0.91871
577.99120	0.91678
575.93429	0.91445
573.87738	0.91352
571.82047	0.91421
569.76357	0.91554
567.70666	0.91585
565.64975	0.91440
563.59284	0.91302
561.53593	0.91243
559.47903	0.91171
557.42212	0.91138
555.36521	0.91171
553.30830	0.91237
551.25139	0.91299
549.19448	0.91348
547.13758	0.91445
545.08067	0.91473
543.02376	0.91425
540.96685	0.91564
538.90994	0.91662
536.85304	0.91471
534.79613	0.91350
532.73922	0.91360
530.68231	0.91267
528.62540	0.91066
526.56849	0.90864
524.51159	0.90757
522.45468	0.90723
520.39777	0.90669
518.34086	0.90579
516.28395	0.90444
514.22705	0.90346
512.17014	0.90373
510.11323	0.90254
508.05632	0.89879
505.99941	0.89606
503.94250	0.89508
501.88560	0.89329
499.82869	0.89032
497.77178	0.88791
495.71487	0.88687
493.65796	0.88608
491.60106	0.88482
489.54415	0.88412
487.48724	0.88362
485.43033	0.88365
483.37342	0.88416
481.31651	0.88235
479.25961	0.87875
477.20270	0.87617
475.14579	0.87507
473.08888	0.87294
471.03197	0.86940
468.97507	0.86788
466.91816	0.86760
464.86125	0.86691
462.80434	0.86682
460.74743	0.86704
458.69052	0.86686
456.63362	0.86559
454.57671	0.86260
452.51980	0.85941
450.46289	0.85837
448.40598	0.85947
446.34908	0.86204
444.29217	0.86566
442.23526	0.86727
440.17835	0.86474
438.12144	0.86189
436.06453	0.86239
434.00763	0.86332
431.95072	0.86295
429.89381	0.86413
427.83690	0.86457
425.77999	0.86118
423.72309	0.85752
421.66618	0.85731
419.60927	0.85941
417.55236	0.86330
415.49545	0.86730
413.43854	0.86820
411.38164	0.86662
409.32473	0.86446
407.26782	0.86286
405.21091	0.86429
403.15400	0.86705
401.09710	0.86833
399.04019	0.87076
