3996.57260	0.98541
3994.51569	0.98516
3992.45878	0.98554
3990.40188	0.98652
3988.34497	0.98651
3986.28806	0.98569
3984.23115	0.98534
3982.17424	0.98528
3980.11733	0.98527
3978.06043	0.98537
3976.00352	0.98517
3973.94661	0.98466
3971.88970	0.98438
3969.83279	0.98449
3967.77589	0.98486
3965.71898	0.98521
3963.66207	0.98533
3961.60516	0.98570
3959.54825	0.98608
3957.49134	0.98563
3955.43444	0.98502
3953.37753	0.98525
3951.32062	0.98595
3949.26371	0.98623
3947.20680	0.98589
3945.14990	0.98536
3943.09299	0.98497
3941.03608	0.98518
3938.97917	0.98582
3936.92226	0.98583
3934.86535	0.98511
3932.80845	0.98469
3930.75154	0.98486
3928.69463	0.98484
3926.63772	0.98445
3924.58081	0.98467
3922.52391	0.98549
3920.46700	0.98580
3918.41009	0.98496
3916.35318	0.98378
3914.29627	0.98389
3912.23936	0.98481
3910.18246	0.98523
3908.12555	0.98534
3906.06864	0.98572
3904.01173	0.98590
3901.95482	0.98531
3899.89792	0.98456
3897.84101	0.98431
3895.78410	0.98445
3893.72719	0.98469
3891.67028	0.98495
3889.61337	0.98526
3887.55647	0.98537
3885.49956	0.98515
3883.44265	0.98507
3881.38574	0.98532
3879.32883	0.98567
3877.27193	0.98587
3875.21502	0.98586
3873.15811	0.98577
3871.10120	0.98575
3869.04429	0.98595
3866.98738	0.98632
3864.93048	0.98656
3862.87357	0.98614
3860.81666	0.98518
3858.75975	0.98478
3856.70284	0.98541
3854.64594	0.98635
3852.58903	0.98606
3850.53212	0.98529
3848.47521	0.98485
3846.41830	0.98440
3844.36139	0.98457
3842.30449	0.98572
3840.24758	0.98668
3838.19067	0.98666
3836.13376	0.98617
3834.07685	0.98564
3832.01995	0.98521
3829.96304	0.98530
3827.90613	0.98583
3825.84922	0.98606
3823.79231	0.98599
3821.73540	0.98591
3819.67850	0.98540
3817.62159	0.98468
3815.56468	0.98448
3813.50777	0.98509
3811.45086	0.98587
3809.39396	0.98618
3807.33705	0.98616
3805.28014	0.98661
3803.22323	0.98737
3801.16632	0.98734
3799.10941	0.98616
3797.05251	0.98515
3794.99560	0.98523
3792.93869	0.98573
3790.88178	0.98584
3788.82487	0.98601
3786.76796	0.98632
3784.71106	0.98619
3782.65415	0.98596
3780.59724	0.98583
3778.54033	0.98541
3776.48342	0.98496
3774.42652	0.98491
3772.36961	0.98522
3770.31270	0.98556
3768.25579	0.98540
3766.19888	0.98508
3764.14197	0.98510
3762.08507	0.98528
3760.02816	0.98560
3757.97125	0.98624
3755.91434	0.98718
3753.85743	0.98777
3751.80053	0.98726
3749.74362	0.98656
3747.68671	0.98649
3745.62980	0.98616
3743.57289	0.98580
3741.51598	0.98587
3739.45908	0.98567
3737.40217	0.98530
3735.34526	0.98511
3733.28835	0.98486
3731.23144	0.98499
3729.17454	0.98569
3727.11763	0.98612
3725.06072	0.98564
3723.00381	0.98475
3720.94690	0.98437
3718.88999	0.98462
3716.83309	0.98518
3714.77618	0.98615
3712.71927	0.98699
3710.66236	0.98664
3708.60545	0.98585
3706.54855	0.98520
3704.49164	0.98485
3702.43473	0.98472
3700.37782	0.98440
3698.32091	0.98427
3696.26400	0.98436
3694.20710	0.98454
3692.15019	0.98528
3690.09328	0.98654
3688.03637	0.98702
3685.97946	0.98628
3683.92256	0.98555
3681.86565	0.98576
3679.80874	0.98652
3677.75183	0.98694
3675.69492	0.98689
3673.63801	0.98586
3671.58111	0.98403
3669.52420	0.98293
3667.46729	0.98366
3665.41038	0.98498
3663.35347	0.98594
3661.29657	0.98628
3659.23966	0.98606
3657.18275	0.98550
3655.12584	0.98476
3653.06893	0.98478
3651.01202	0.98542
3648.95512	0.98525
3646.89821	0.98491
3644.84130	0.98500
3642.78439	0.98449
3640.72748	0.98356
3638.67058	0.98323
3636.61367	0.98366
3634.55676	0.98431
3632.49985	0.98513
3630.44294	0.98589
3628.38603	0.98570
3626.32913	0.98477
3624.27222	0.98393
3622.21531	0.98349
3620.15840	0.98383
3618.10149	0.98432
3616.04459	0.98397
3613.98768	0.98298
3611.93077	0.98176
3609.87386	0.98147
3607.81695	0.98268
3605.76004	0.98377
3603.70314	0.98397
3601.64623	0.98370
3599.58932	0.98331
3597.53241	0.98323
3595.47550	0.98322
3593.41860	0.98287
3591.36169	0.98299
3589.30478	0.98390
3587.24787	0.98399
3585.19096	0.98290
3583.13405	0.98224
3581.07715	0.98196
3579.02024	0.98127
3576.96333	0.98067
3574.90642	0.98103
3572.84951	0.98168
3570.79261	0.98178
3568.73570	0.98171
3566.67879	0.98210
3564.62188	0.98247
3562.56497	0.98241
3560.50806	0.98212
3558.45116	0.98151
3556.39425	0.98076
3554.33734	0.97994
3552.28043	0.97917
3550.22352	0.97898
3548.16662	0.97933
3546.10971	0.97964
3544.05280	0.97955
3541.99589	0.97940
3539.93898	0.97943
3537.88207	0.97909
3535.82517	0.97832
3533.76826	0.97790
3531.71135	0.97817
3529.65444	0.97877
3527.59753	0.97876
3525.54063	0.97804
3523.48372	0.97769
3521.42681	0.97824
3519.36990	0.97873
3517.31299	0.97806
3515.25608	0.97691
3513.19918	0.97676
3511.14227	0.97708
3509.08536	0.97666
3507.02845	0.97593
3504.97154	0.97535
3502.91464	0.97493
3500.85773	0.97495
3498.80082	0.97473
3496.74391	0.97410
3494.68700	0.97437
3492.63009	0.97535
3490.57319	0.97561
3488.51628	0.97520
3486.45937	0.97507
3484.40246	0.97537
3482.34555	0.97534
3480.28865	0.97518
3478.23174	0.97564
3476.17483	0.97569
3474.11792	0.97499
3472.06101	0.97522
3470.00410	0.97624
3467.94720	0.97667
3465.89029	0.97657
3463.83338	0.97645
3461.77647	0.97635
3459.71956	0.97597
3457.66266	0.97537
3455.60575	0.97540
3453.54884	0.97626
3451.49193	0.97685
3449.43502	0.97685
3447.37811	0.97700
3445.32121	0.97727
3443.26430	0.97714
3441.20739	0.97702
3439.15048	0.97719
3437.09357	0.97735
3435.03667	0.97753
3432.97976	0.97768
3430.92285	0.97777
3428.86594	0.97788
3426.80903	0.97822
3424.75212	0.97875
3422.69522	0.97903
3420.63831	0.97898
3418.58140	0.97847
3416.52449	0.97779
3414.46758	0.97792
3412.41068	0.97867
3410.35377	0.97908
3408.29686	0.97922
3406.23995	0.97944
3404.18304	0.97977
3402.12613	0.98004
3400.06923	0.98014
3398.01232	0.98018
3395.95541	0.98009
3393.89850	0.97990
3391.84159	0.97967
3389.78469	0.97941
3387.72778	0.97964
3385.67087	0.98052
3383.61396	0.98101
3381.55705	0.98069
3379.50014	0.98048
3377.44324	0.98080
3375.38633	0.98097
3373.32942	0.98035
3371.27251	0.97954
3369.21560	0.97954
3367.15870	0.97998
3365.10179	0.98042
3363.04488	0.98104
3360.98797	0.98130
3358.93106	0.98087
3356.87415	0.98011
3354.81725	0.97984
3352.76034	0.98053
3350.70343	0.98137
3348.64652	0.98162
3346.58961	0.98161
3344.53271	0.98166
3342.47580	0.98155
3340.41889	0.98152
3338.36198	0.98186
3336.30507	0.98199
3334.24816	0.98167
3332.19126	0.98180
3330.13435	0.98260
3328.07744	0.98290
3326.02053	0.98233
3323.96362	0.98176
3321.90672	0.98185
3319.84981	0.98217
3317.79290	0.98206
3315.73599	0.98188
3313.67908	0.98204
3311.62217	0.98222
3309.56527	0.98210
3307.50836	0.98185
3305.45145	0.98164
3303.39454	0.98169
3301.33763	0.98194
3299.28073	0.98209
3297.22382	0.98222
3295.16691	0.98236
3293.11000	0.98245
3291.05309	0.98238
3288.99618	0.98227
3286.93928	0.98240
3284.88237	0.98248
3282.82546	0.98235
3280.76855	0.98231
3278.71164	0.98227
3276.65474	0.98233
3274.59783	0.98281
3272.54092	0.98322
3270.48401	0.98299
3268.42710	0.98244
3266.37019	0.98229
3264.31329	0.98276
3262.25638	0.98344
3260.19947	0.98363
3258.14256	0.98342
3256.08565	0.98299
3254.02875	0.98247
3251.97184	0.98237
3249.91493	0.98269
3247.85802	0.98340
3245.80111	0.98401
3243.74420	0.98390
3241.68730	0.98361
3239.63039	0.98354
3237.57348	0.98361
3235.51657	0.98368
3233.45966	0.98342
3231.40276	0.98312
3229.34585	0.98308
3227.28894	0.98316
3225.23203	0.98318
3223.17512	0.98303
3221.11821	0.98282
3219.06131	0.98290
3217.00440	0.98343
3214.94749	0.98392
3212.89058	0.98379
3210.83367	0.98320
3208.77677	0.98243
3206.71986	0.98184
3204.66295	0.98229
3202.60604	0.98354
3200.54913	0.98419
3198.49222	0.98404
3196.43532	0.98379
3194.37841	0.98365
3192.32150	0.98340
3190.26459	0.98282
3188.20768	0.98236
3186.15078	0.98260
3184.09387	0.98297
3182.03696	0.98288
3179.98005	0.98287
3177.92314	0.98344
3175.86623	0.98425
3173.80933	0.98458
3171.75242	0.98450
3169.69551	0.98448
3167.63860	0.98434
3165.58169	0.98385
3163.52479	0.98330
3161.46788	0.98286
3159.41097	0.98265
3157.35406	0.98279
3155.29715	0.98308
3153.24024	0.98309
3151.18334	0.98281
3149.12643	0.98287
3147.06952	0.98351
3145.01261	0.98420
3142.95570	0.98458
3140.89880	0.98427
3138.84189	0.98343
3136.78498	0.98301
3134.72807	0.98295
3132.67116	0.98293
3130.61425	0.98326
3128.55735	0.98378
3126.50044	0.98415
3124.44353	0.98422
3122.38662	0.98401
3120.32971	0.98384
3118.27281	0.98388
3116.21590	0.98397
3114.15899	0.98399
3112.10208	0.98397
3110.04517	0.98391
3107.98826	0.98383
3105.93136	0.98392
3103.87445	0.98427
3101.81754	0.98452
3099.76063	0.98418
3097.70372	0.98356
3095.64682	0.98331
3093.58991	0.98335
3091.53300	0.98344
3089.47609	0.98362
3087.41918	0.98365
3085.36227	0.98344
3083.30537	0.98333
3081.24846	0.98368
3079.19155	0.98420
3077.13464	0.98427
3075.07773	0.98399
3073.02083	0.98366
3070.96392	0.98355
3068.90701	0.98378
3066.85010	0.98388
3064.79319	0.98380
3062.73628	0.98395
3060.67938	0.98427
3058.62247	0.98428
3056.56556	0.98385
3054.50865	0.98358
3052.45174	0.98354
3050.39484	0.98318
3048.33793	0.98289
3046.28102	0.98299
3044.22411	0.98306
3042.16720	0.98306
3040.11029	0.98293
3038.05339	0.98281
3035.99648	0.98294
3033.93957	0.98295
3031.88266	0.98272
3029.82575	0.98241
3027.76885	0.98221
3025.71194	0.98238
3023.65503	0.98263
3021.59812	0.98250
3019.54121	0.98224
3017.48430	0.98225
3015.42740	0.98234
3013.37049	0.98238
3011.31358	0.98228
3009.25667	0.98203
3007.19976	0.98194
3005.14286	0.98210
3003.08595	0.98218
3001.02904	0.98197
2998.97213	0.98178
2996.91522	0.98176
2994.85831	0.98157
2992.80141	0.98134
2990.74450	0.98141
2988.68759	0.98150
2986.63068	0.98138
2984.57377	0.98125
2982.51687	0.98126
2980.45996	0.98132
2978.40305	0.98122
2976.34614	0.98100
2974.28923	0.98087
2972.23232	0.98054
2970.17542	0.97998
2968.11851	0.97972
2966.06160	0.97969
2964.00469	0.97941
2961.94778	0.97915
2959.89088	0.97926
2957.83397	0.97927
2955.77706	0.97895
2953.72015	0.97855
2951.66324	0.97837
2949.60633	0.97839
2947.54943	0.97842
2945.49252	0.97839
2943.43561	0.97815
2941.37870	0.97805
2939.32179	0.97824
2937.26489	0.97839
2935.20798	0.97851
2933.15107	0.97885
2931.09416	0.97929
2929.03725	0.97963
2926.98034	0.97974
2924.92344	0.97959
2922.86653	0.97933
2920.80962	0.97930
2918.75271	0.97970
2916.69580	0.97987
2914.63890	0.97960
2912.58199	0.97942
2910.52508	0.97922
2908.46817	0.97880
2906.41126	0.97859
2904.35435	0.97856
2902.29745	0.97830
2900.24054	0.97806
2898.18363	0.97826
2896.12672	0.97852
2894.06981	0.97852
2892.01291	0.97855
2889.95600	0.97854
2887.89909	0.97838
2885.84218	0.97839
2883.78527	0.97846
2881.72836	0.97843
2879.67146	0.97851
2877.61455	0.97878
2875.55764	0.97914
2873.50073	0.97933
2871.44382	0.97921
2869.38692	0.97904
2867.33001	0.97929
2865.27310	0.97995
2863.21619	0.98049
2861.15928	0.98045
2859.10237	0.98008
2857.04547	0.98009
2854.98856	0.98023
2852.93165	0.98050
2850.87474	0.98110
2848.81783	0.98162
2846.76093	0.98208
2844.70402	0.98225
2842.64711	0.98190
2840.59020	0.98162
2838.53329	0.98192
2836.47638	0.98236
2834.41948	0.98242
2832.36257	0.98239
2830.30566	0.98265
2828.24875	0.98306
2826.19184	0.98310
2824.13494	0.98267
2822.07803	0.98237
2820.02112	0.98253
2817.96421	0.98253
2815.90730	0.98204
2813.85039	0.98175
2811.79349	0.98201
2809.73658	0.98247
2807.67967	0.98276
2805.62276	0.98272
2803.56585	0.98282
2801.50895	0.98325
2799.45204	0.98337
2797.39513	0.98315
2795.33822	0.98302
2793.28131	0.98325
2791.22440	0.98359
2789.16750	0.98355
2787.11059	0.98336
2785.05368	0.98345
2782.99677	0.98381
2780.93986	0.98395
2778.88296	0.98370
2776.82605	0.98350
2774.76914	0.98351
2772.71223	0.98340
2770.65532	0.98337
2768.59841	0.98359
2766.54151	0.98369
2764.48460	0.98356
2762.42769	0.98332
2760.37078	0.98311
2758.31387	0.98314
2756.25697	0.98332
2754.20006	0.98330
2752.14315	0.98321
2750.08624	0.98340
2748.02933	0.98375
2745.97242	0.98374
2743.91552	0.98342
2741.85861	0.98327
2739.80170	0.98343
2737.74479	0.98372
2735.68788	0.98383
2733.63098	0.98362
2731.57407	0.98325
2729.51716	0.98302
2727.46025	0.98300
2725.40334	0.98293
2723.34643	0.98274
2721.28953	0.98275
2719.23262	0.98307
2717.17571	0.98324
2715.11880	0.98315
2713.06189	0.98314
2711.00499	0.98328
2708.94808	0.98333
2706.89117	0.98327
2704.83426	0.98322
2702.77735	0.98330
2700.72044	0.98338
2698.66354	0.98335
2696.60663	0.98325
2694.54972	0.98332
2692.49281	0.98357
2690.43590	0.98365
2688.37900	0.98350
2686.32209	0.98338
2684.26518	0.98354
2682.20827	0.98387
2680.15136	0.98401
2678.09445	0.98400
2676.03755	0.98391
2673.98064	0.98371
2671.92373	0.98349
2669.86682	0.98333
2667.80991	0.98336
2665.75301	0.98350
2663.69610	0.98362
2661.63919	0.98372
2659.58228	0.98360
2657.52537	0.98339
2655.46846	0.98342
2653.41156	0.98340
2651.35465	0.98318
2649.29774	0.98300
2647.24083	0.98304
2645.18392	0.98322
2643.12702	0.98353
2641.07011	0.98397
2639.01320	0.98407
2636.95629	0.98377
2634.89938	0.98368
2632.84247	0.98376
2630.78557	0.98380
2628.72866	0.98390
2626.67175	0.98382
2624.61484	0.98361
2622.55793	0.98367
2620.50103	0.98392
2618.44412	0.98420
2616.38721	0.98429
2614.33030	0.98411
2612.27339	0.98425
2610.21648	0.98477
2608.15958	0.98479
2606.10267	0.98407
2604.04576	0.98357
2601.98885	0.98365
2599.93194	0.98411
2597.87504	0.98466
2595.81813	0.98474
2593.76122	0.98450
2591.70431	0.98428
2589.64740	0.98425
2587.59049	0.98445
2585.53359	0.98486
2583.47668	0.98529
2581.41977	0.98517
2579.36286	0.98466
2577.30595	0.98437
2575.24905	0.98441
2573.19214	0.98438
2571.13523	0.98419
2569.07832	0.98439
2567.02141	0.98496
2564.96450	0.98520
2562.90760	0.98482
2560.85069	0.98436
2558.79378	0.98457
2556.73687	0.98535
2554.67996	0.98578
2552.62306	0.98559
2550.56615	0.98516
2548.50924	0.98483
2546.45233	0.98460
2544.39542	0.98424
2542.33851	0.98433
2540.28161	0.98484
2538.22470	0.98488
2536.16779	0.98454
2534.11088	0.98432
2532.05397	0.98424
2529.99707	0.98425
2527.94016	0.98447
2525.88325	0.98465
2523.82634	0.98476
2521.76943	0.98480
2519.71252	0.98469
2517.65562	0.98482
2515.59871	0.98495
2513.54180	0.98489
2511.48489	0.98499
2509.42798	0.98512
2507.37108	0.98522
2505.31417	0.98515
2503.25726	0.98518
2501.20035	0.98581
2499.14344	0.98637
2497.08653	0.98625
2495.02963	0.98596
2492.97272	0.98583
2490.91581	0.98541
2488.85890	0.98488
2486.80199	0.98507
2484.74509	0.98570
2482.68818	0.98593
2480.63127	0.98573
2478.57436	0.98524
2476.51745	0.98485
2474.46054	0.98495
2472.40364	0.98512
2470.34673	0.98525
2468.28982	0.98523
2466.23291	0.98486
2464.17600	0.98478
2462.11910	0.98499
2460.06219	0.98486
2458.00528	0.98468
2455.94837	0.98475
2453.89146	0.98495
2451.83455	0.98502
2449.77765	0.98487
2447.72074	0.98478
2445.66383	0.98493
2443.60692	0.98519
2441.55001	0.98537
2439.49311	0.98511
2437.43620	0.98505
2435.37929	0.98549
2433.32238	0.98556
2431.26547	0.98544
2429.20856	0.98547
2427.15166	0.98524
2425.09475	0.98461
2423.03784	0.98377
2420.98093	0.98343
2418.92402	0.98352
2416.86712	0.98377
2414.81021	0.98457
2412.75330	0.98537
2410.69639	0.98554
2408.63948	0.98545
2406.58257	0.98532
2404.52567	0.98497
2402.46876	0.98472
2400.41185	0.98463
2398.35494	0.98430
2396.29803	0.98399
2394.24113	0.98400
2392.18422	0.98441
2390.12731	0.98495
2388.07040	0.98522
2386.01349	0.98525
2383.95658	0.98523
2381.89968	0.98517
2379.84277	0.98482
2377.78586	0.98474
2375.72895	0.98498
2373.67204	0.98455
2371.61514	0.98408
2369.55823	0.98417
2367.50132	0.98446
2365.44441	0.98447
2363.38750	0.98456
2361.33059	0.98538
2359.27369	0.98563
2357.21678	0.98476
2355.15987	0.98418
2353.10296	0.98434
2351.04605	0.98495
2348.98915	0.98557
2346.93224	0.98542
2344.87533	0.98489
2342.81842	0.98491
2340.76151	0.98474
2338.70460	0.98424
2336.64770	0.98445
2334.59079	0.98541
2332.53388	0.98585
2330.47697	0.98544
2328.42006	0.98487
2326.36316	0.98449
2324.30625	0.98445
2322.24934	0.98470
2320.19243	0.98454
2318.13552	0.98377
2316.07861	0.98365
2314.02171	0.98443
2311.96480	0.98495
2309.90789	0.98519
2307.85098	0.98520
2305.79407	0.98455
2303.73717	0.98407
2301.68026	0.98428
2299.62335	0.98475
2297.56644	0.98517
2295.50953	0.98531
2293.45262	0.98526
2291.39572	0.98544
2289.33881	0.98564
2287.28190	0.98530
2285.22499	0.98496
2283.16808	0.98506
2281.11117	0.98534
2279.05427	0.98575
2276.99736	0.98590
2274.94045	0.98555
2272.88354	0.98539
2270.82663	0.98600
2268.76973	0.98663
2266.71282	0.98625
2264.65591	0.98564
2262.59900	0.98557
2260.54209	0.98545
2258.48518	0.98521
2256.42828	0.98550
2254.37137	0.98615
2252.31446	0.98622
2250.25755	0.98614
2248.20064	0.98651
2246.14374	0.98683
2244.08683	0.98687
2242.02992	0.98676
2239.97301	0.98714
2237.91610	0.98805
2235.85919	0.98822
2233.80229	0.98691
2231.74538	0.98568
2229.68847	0.98604
2227.63156	0.98772
2225.57465	0.98959
2223.51775	0.98965
2221.46084	0.98773
2219.40393	0.98634
2217.34702	0.98675
2215.29011	0.98767
2213.23320	0.98779
2211.17630	0.98734
2209.11939	0.98655
2207.06248	0.98490
2205.00557	0.98381
2202.94866	0.98458
2200.89176	0.98610
2198.83485	0.98705
2196.77794	0.98689
2194.72103	0.98620
2192.66412	0.98563
2190.60721	0.98623
2188.55031	0.98736
2186.49340	0.98731
2184.43649	0.98666
2182.37958	0.98654
2180.32267	0.98675
2178.26577	0.98689
2176.20886	0.98784
2174.15195	0.98859
2172.09504	0.98748
2170.03813	0.98615
2167.98122	0.98581
2165.92432	0.98491
2163.86741	0.98420
2161.81050	0.98568
2159.75359	0.98578
2157.69668	0.98441
2155.63978	0.98582
2153.58287	0.98735
2151.52596	0.98700
2149.46905	0.98656
2147.41214	0.98556
2145.35523	0.98391
2143.29833	0.98471
2141.24142	0.98735
2139.18451	0.98816
2137.12760	0.98755
2135.07069	0.98702
2133.01379	0.98638
2130.95688	0.98563
2128.89997	0.98439
2126.84306	0.98366
2124.78615	0.98470
2122.72924	0.98641
2120.67234	0.98752
2118.61543	0.98688
2116.55852	0.98483
2114.50161	0.98391
2112.44470	0.98415
2110.38780	0.98408
2108.33089	0.98478
2106.27398	0.98603
2104.21707	0.98580
2102.16016	0.98535
2100.10325	0.98594
2098.04635	0.98566
2095.98944	0.98454
2093.93253	0.98473
2091.87562	0.98592
2089.81871	0.98677
2087.76181	0.98652
2085.70490	0.98552
2083.64799	0.98529
2081.59108	0.98607
2079.53417	0.98673
2077.47726	0.98671
2075.42036	0.98689
2073.36345	0.98716
2071.30654	0.98675
2069.24963	0.98623
2067.19272	0.98639
2065.13582	0.98737
2063.07891	0.98776
2061.02200	0.98731
2058.96509	0.98789
2056.90818	0.98930
2054.85127	0.98915
2052.79437	0.98734
2050.73746	0.98604
2048.68055	0.98496
2046.62364	0.98299
2044.56673	0.98235
2042.50983	0.98458
2040.45292	0.98687
2038.39601	0.98746
2036.33910	0.98775
2034.28219	0.98828
2032.22528	0.98864
2030.16838	0.98760
2028.11147	0.98581
2026.05456	0.98605
2023.99765	0.98820
2021.94074	0.98963
2019.88384	0.98936
2017.82693	0.98880
2015.77002	0.98872
2013.71311	0.98880
2011.65620	0.98894
2009.59929	0.98903
2007.54239	0.98895
2005.48548	0.98804
2003.42857	0.98675
2001.37166	0.98599
1999.31475	0.98558
1997.25785	0.98555
1995.20094	0.98533
1993.14403	0.98511
1991.08712	0.98673
1989.03021	0.98962
1986.97330	0.99098
1984.91640	0.99053
1982.85949	0.99027
1980.80258	0.99031
1978.74567	0.99056
1976.68876	0.99093
1974.63186	0.98986
1972.57495	0.98749
1970.51804	0.98621
1968.46113	0.98739
1966.40422	0.98853
1964.34731	0.98817
1962.29041	0.98728
1960.23350	0.98606
1958.17659	0.98544
1956.11968	0.98609
1954.06277	0.98748
1952.00587	0.98864
1949.94896	0.98912
1947.89205	0.98953
1945.83514	0.98990
1943.77823	0.98969
1941.72132	0.98917
1939.66442	0.98893
1937.60751	0.98861
1935.55060	0.98816
1933.49369	0.98804
1931.43678	0.98833
1929.37988	0.98857
1927.32297	0.98790
1925.26606	0.98709
1923.20915	0.98697
1921.15224	0.98707
1919.09533	0.98769
1917.03843	0.98824
1914.98152	0.98793
1912.92461	0.98758
1910.86770	0.98749
1908.81079	0.98751
1906.75389	0.98747
1904.69698	0.98726
1902.64007	0.98768
1900.58316	0.98826
1898.52625	0.98781
1896.46934	0.98705
1894.41244	0.98712
1892.35553	0.98789
1890.29862	0.98816
1888.24171	0.98778
1886.18480	0.98768
1884.12790	0.98759
1882.07099	0.98721
1880.01408	0.98730
1877.95717	0.98800
1875.90026	0.98859
1873.84335	0.98857
1871.78645	0.98842
1869.72954	0.98843
1867.67263	0.98807
1865.61572	0.98772
1863.55881	0.98775
1861.50191	0.98788
1859.44500	0.98784
1857.38809	0.98798
1855.33118	0.98866
1853.27427	0.98910
1851.21736	0.98882
1849.16046	0.98853
1847.10355	0.98859
1845.04664	0.98884
1842.98973	0.98903
1840.93282	0.98856
1838.87592	0.98762
1836.81901	0.98726
1834.76210	0.98793
1832.70519	0.98863
1830.64828	0.98856
1828.59137	0.98804
1826.53447	0.98782
1824.47756	0.98813
1822.42065	0.98870
1820.36374	0.98884
1818.30683	0.98844
1816.24993	0.98818
1814.19302	0.98806
1812.13611	0.98770
1810.07920	0.98731
1808.02229	0.98712
1805.96538	0.98681
1803.90848	0.98628
1801.85157	0.98570
1799.79466	0.98546
1797.73775	0.98555
1795.68084	0.98562
1793.62394	0.98543
1791.56703	0.98468
1789.51012	0.98359
1787.45321	0.98288
1785.39630	0.98275
1783.33939	0.98217
1781.28249	0.98062
1779.22558	0.97860
1777.16867	0.97643
1775.11176	0.97395
1773.05485	0.97017
1770.99795	0.96455
1768.94104	0.95789
1766.88413	0.94955
1764.82722	0.93990
1762.77031	0.92857
1760.71340	0.91541
1758.65650	0.90333
1756.59959	0.89212
1754.54268	0.88294
1752.48577	0.87560
1750.42886	0.86686
1748.37196	0.85785
1746.31505	0.85127
1744.25814	0.84623
1742.20123	0.84225
1740.14432	0.83956
1738.08741	0.83910
1736.03051	0.84145
1733.97360	0.84536
1731.91669	0.84988
1729.85978	0.85574
1727.80287	0.86310
1725.74597	0.87115
1723.68906	0.87961
1721.63215	0.88787
1719.57524	0.89612
1717.51833	0.90564
1715.46142	0.91499
1713.40452	0.92219
1711.34761	0.92843
1709.29070	0.93448
1707.23379	0.94003
1705.17688	0.94440
1703.11998	0.94742
1701.06307	0.95046
1699.00616	0.95405
1696.94925	0.95679
1694.89234	0.95908
1692.83543	0.96121
1690.77853	0.96290
1688.72162	0.96432
1686.66471	0.96573
1684.60780	0.96721
1682.55089	0.96832
1680.49399	0.96892
1678.43708	0.96935
1676.38017	0.96993
1674.32326	0.97058
1672.26635	0.97115
1670.20944	0.97157
1668.15254	0.97175
1666.09563	0.97196
1664.03872	0.97216
1661.98181	0.97242
1659.92490	0.97286
1657.86800	0.97321
1655.81109	0.97324
1653.75418	0.97284
1651.69727	0.97277
1649.64036	0.97346
1647.58345	0.97387
1645.52655	0.97341
1643.46964	0.97310
1641.41273	0.97327
1639.35582	0.97346
1637.29891	0.97349
1635.24201	0.97336
1633.18510	0.97358
1631.12819	0.97424
1629.07128	0.97481
1627.01437	0.97506
1624.95746	0.97544
1622.90056	0.97607
1620.84365	0.97652
1618.78674	0.97688
1616.72983	0.97727
1614.67292	0.97764
1612.61602	0.97811
1610.55911	0.97867
1608.50220	0.97900
1606.44529	0.97896
1604.38838	0.97898
1602.33147	0.97923
1600.27457	0.97959
1598.21766	0.97989
1596.16075	0.98013
1594.10384	0.98029
1592.04693	0.98032
1589.99003	0.98036
1587.93312	0.98062
1585.87621	0.98095
1583.81930	0.98106
1581.76239	0.98112
1579.70548	0.98134
1577.64858	0.98130
1575.59167	0.98070
1573.53476	0.98061
1571.47785	0.98125
1569.42094	0.98168
1567.36404	0.98153
1565.30713	0.98148
1563.25022	0.98184
1561.19331	0.98215
1559.13640	0.98185
1557.07949	0.98156
1555.02259	0.98152
1552.96568	0.98155
1550.90877	0.98201
1548.85186	0.98249
1546.79495	0.98258
1544.73805	0.98246
1542.68114	0.98223
1540.62423	0.98194
1538.56732	0.98194
1536.51041	0.98222
1534.45350	0.98251
1532.39660	0.98271
1530.33969	0.98283
1528.28278	0.98291
1526.22587	0.98287
1524.16896	0.98281
1522.11206	0.98300
1520.05515	0.98339
1517.99824	0.98344
1515.94133	0.98326
1513.88442	0.98333
1511.82751	0.98363
1509.77061	0.98391
1507.71370	0.98395
1505.65679	0.98385
1503.59988	0.98417
1501.54297	0.98436
1499.48607	0.98402
1497.42916	0.98359
1495.37225	0.98340
1493.31534	0.98324
1491.25843	0.98312
1489.20152	0.98315
1487.14462	0.98318
1485.08771	0.98312
1483.03080	0.98298
1480.97389	0.98276
1478.91698	0.98261
1476.86008	0.98252
1474.80317	0.98215
1472.74626	0.98121
1470.68935	0.98017
1468.63244	0.97945
1466.57553	0.97843
1464.51863	0.97691
1462.46172	0.97564
1460.40481	0.97469
1458.34790	0.97335
1456.29099	0.97151
1454.23409	0.97053
1452.17718	0.97014
1450.12027	0.96979
1448.06336	0.96898
1446.00645	0.96748
1443.94954	0.96611
1441.89264	0.96524
1439.83573	0.96454
1437.77882	0.96354
1435.72191	0.96228
1433.66500	0.96171
1431.60810	0.96157
1429.55119	0.96150
1427.49428	0.96199
1425.43737	0.96302
1423.38046	0.96387
1421.32355	0.96441
1419.26665	0.96526
1417.20974	0.96640
1415.15283	0.96747
1413.09592	0.96851
1411.03901	0.96908
1408.98211	0.96894
1406.92520	0.96884
1404.86829	0.96947
1402.81138	0.97023
1400.75447	0.97015
1398.69756	0.96917
1396.64066	0.96755
1394.58375	0.96507
1392.52684	0.96195
1390.46993	0.95868
1388.41302	0.95440
1386.35612	0.94861
1384.29921	0.94233
1382.24230	0.93599
1380.18539	0.92948
1378.12848	0.92327
1376.07157	0.91735
1374.01467	0.91142
1371.95776	0.90666
1369.90085	0.90378
1367.84394	0.90288
1365.78703	0.90478
1363.73013	0.90998
1361.67322	0.91851
1359.61631	0.92861
1357.55940	0.93851
1355.50249	0.94745
1353.44558	0.95453
1351.38868	0.95939
1349.33177	0.96260
1347.27486	0.96479
1345.21795	0.96639
1343.16104	0.96760
1341.10414	0.96861
1339.04723	0.96944
1336.99032	0.96984
1334.93341	0.96986
1332.87650	0.96977
1330.81959	0.96972
1328.76269	0.96948
1326.70578	0.96904
1324.64887	0.96875
1322.59196	0.96866
1320.53505	0.96879
1318.47815	0.96908
1316.42124	0.96924
1314.36433	0.96946
1312.30742	0.96999
1310.25051	0.97043
1308.19360	0.97046
1306.13670	0.97022
1304.07979	0.97004
1302.02288	0.97000
1299.96597	0.96977
1297.90906	0.96913
1295.85216	0.96809
1293.79525	0.96674
1291.73834	0.96550
1289.68143	0.96434
1287.62452	0.96274
1285.56761	0.96082
1283.51071	0.95899
1281.45380	0.95682
1279.39689	0.95392
1277.33998	0.95066
1275.28307	0.94731
1273.22617	0.94362
1271.16926	0.93931
1269.11235	0.93450
1267.05544	0.92937
1264.99853	0.92389
1262.94162	0.91775
1260.88472	0.91077
1258.82781	0.90328
1256.77090	0.89558
1254.71399	0.88751
1252.65708	0.87901
1250.60018	0.87032
1248.54327	0.86143
1246.48636	0.85198
1244.42945	0.84201
1242.37254	0.83240
1240.31563	0.82350
1238.25873	0.81464
1236.20182	0.80565
1234.14491	0.79726
1232.08800	0.78995
1230.03109	0.78360
1227.97419	0.77825
1225.91728	0.77412
1223.86037	0.77145
1221.80346	0.77022
1219.74655	0.77016
1217.68964	0.77150
1215.63274	0.77457
1213.57583	0.77971
1211.51892	0.78742
1209.46201	0.79755
1207.40510	0.80978
1205.34820	0.82405
1203.29129	0.83975
1201.23438	0.85579
1199.17747	0.87107
1197.12056	0.88463
1195.06365	0.89624
1193.00675	0.90590
1190.94984	0.91323
1188.89293	0.91823
1186.83602	0.92152
1184.77911	0.92360
1182.72221	0.92442
1180.66530	0.92402
1178.60839	0.92279
1176.55148	0.92098
1174.49457	0.91907
1172.43766	0.91758
1170.38076	0.91629
1168.32385	0.91486
1166.26694	0.91398
1164.21003	0.91430
1162.15312	0.91498
1160.09622	0.91541
1158.03931	0.91636
1155.98240	0.91819
1153.92549	0.92058
1151.86858	0.92313
1149.81167	0.92539
1147.75477	0.92711
1145.69786	0.92815
1143.64095	0.92837
1141.58404	0.92797
1139.52713	0.92720
1137.47023	0.92587
1135.41332	0.92393
1133.35641	0.92167
1131.29950	0.91923
1129.24259	0.91690
1127.18568	0.91492
1125.12878	0.91341
1123.07187	0.91245
1121.01496	0.91201
1118.95805	0.91190
1116.90114	0.91183
1114.84424	0.91170
1112.78733	0.91176
1110.73042	0.91192
1108.67351	0.91162
1106.61660	0.91067
1104.55969	0.90927
1102.50279	0.90727
1100.44588	0.90464
1098.38897	0.90199
1096.33206	0.89947
1094.27515	0.89632
1092.21825	0.89205
1090.16134	0.88704
1088.10443	0.88191
1086.04752	0.87678
1083.99061	0.87157
1081.93370	0.86629
1079.87680	0.86099
1077.81989	0.85564
1075.76298	0.85039
1073.70607	0.84549
1071.64916	0.84078
1069.59226	0.83607
1067.53535	0.83161
1065.47844	0.82752
1063.42153	0.82362
1061.36462	0.81954
1059.30771	0.81458
1057.25081	0.80858
1055.19390	0.80247
1053.13699	0.79708
1051.08008	0.79216
1049.02317	0.78718
1046.96627	0.78225
1044.90936	0.77785
1042.85245	0.77410
1040.79554	0.77057
1038.73863	0.76707
1036.68172	0.76400
1034.62482	0.76159
1032.56791	0.76017
1030.51100	0.76083
1028.45409	0.76391
1026.39718	0.76867
1024.34028	0.77484
1022.28337	0.78213
1020.22646	0.79006
1018.16955	0.79837
1016.11264	0.80649
1014.05573	0.81432
1011.99883	0.82207
1009.94192	0.82952
1007.88501	0.83668
1005.82810	0.84366
1003.77119	0.85021
1001.71429	0.85623
999.65738	0.86177
997.60047	0.86697
995.54356	0.87164
993.48665	0.87543
991.42974	0.87843
989.37284	0.88104
987.31593	0.88357
985.25902	0.88615
983.20211	0.88880
981.14520	0.89156
979.08830	0.89439
977.03139	0.89713
974.97448	0.90005
972.91757	0.90362
970.86066	0.90745
968.80375	0.91090
966.74685	0.91378
964.68994	0.91613
962.63303	0.91815
960.57612	0.91978
958.51921	0.92102
956.46231	0.92203
954.40540	0.92271
952.34849	0.92309
950.29158	0.92390
948.23467	0.92565
946.17776	0.92761
944.12086	0.92918
942.06395	0.93066
940.00704	0.93211
937.95013	0.93303
935.89322	0.93340
933.83632	0.93347
931.77941	0.93320
929.72250	0.93272
927.66559	0.93197
925.60868	0.93084
923.55177	0.92956
921.49487	0.92818
919.43796	0.92689
917.38105	0.92601
915.32414	0.92534
913.26723	0.92443
911.21033	0.92300
909.15342	0.92124
907.09651	0.91962
905.03960	0.91830
902.98269	0.91733
900.92578	0.91708
898.86888	0.91744
896.81197	0.91804
894.75506	0.91943
892.69815	0.92202
890.64124	0.92471
888.58434	0.92649
886.52743	0.92767
884.47052	0.92876
882.41361	0.92998
880.35670	0.93161
878.29979	0.93361
876.24289	0.93555
874.18598	0.93730
872.12907	0.93944
870.07216	0.94205
868.01525	0.94454
865.95835	0.94672
863.90144	0.94852
861.84453	0.94993
859.78762	0.95102
857.73071	0.95168
855.67380	0.95214
853.61690	0.95282
851.55999	0.95352
849.50308	0.95363
847.44617	0.95316
845.38926	0.95247
843.33236	0.95171
841.27545	0.95119
839.21854	0.95079
837.16163	0.95058
835.10472	0.95141
833.04781	0.95302
830.99091	0.95433
828.93400	0.95506
826.87709	0.95556
824.82018	0.95633
822.76327	0.95776
820.70637	0.95973
818.64946	0.96151
816.59255	0.96258
814.53564	0.96327
812.47873	0.96343
810.42182	0.96298
808.36492	0.96285
806.30801	0.96325
804.25110	0.96327
802.19419	0.96269
800.13728	0.96259
798.08038	0.96325
796.02347	0.96392
793.96656	0.96414
791.90965	0.96399
789.85274	0.96433
787.79583	0.96536
785.73893	0.96582
783.68202	0.96535
781.62511	0.96532
779.56820	0.96610
777.51129	0.96654
775.45439	0.96649
773.39748	0.96648
771.34057	0.96649
769.28366	0.96641
767.22675	0.96619
765.16984	0.96589
763.11294	0.96567
761.05603	0.96568
758.99912	0.96605
756.94221	0.96642
754.88530	0.96674
752.82839	0.96734
750.77149	0.96756
748.71458	0.96737
746.65767	0.96785
744.60076	0.96820
742.54385	0.96737
740.48695	0.96694
738.43004	0.96770
736.37313	0.96805
734.31622	0.96748
732.25931	0.96689
730.20240	0.96651
728.14550	0.96614
726.08859	0.96573
724.03168	0.96494
721.97477	0.96389
719.91786	0.96346
717.86096	0.96373
715.80405	0.96367
713.74714	0.96321
711.69023	0.96276
709.63332	0.96209
707.57641	0.96163
705.51951	0.96173
703.46260	0.96170
701.40569	0.96097
699.34878	0.96029
697.29187	0.96022
695.23497	0.95952
693.17806	0.95785
691.12115	0.95661
689.06424	0.95631
687.00733	0.95678
684.95042	0.95758
682.89352	0.95760
680.83661	0.95706
678.77970	0.95684
676.72279	0.95674
674.66588	0.95686
672.60898	0.95751
670.55207	0.95801
668.49516	0.95785
666.43825	0.95785
664.38134	0.95784
662.32443	0.95674
660.26753	0.95506
658.21062	0.95398
656.15371	0.95343
654.09680	0.95264
652.03989	0.95129
649.98299	0.94964
647.92608	0.94846
645.86917	0.94800
643.81226	0.94740
641.75535	0.94648
639.69844	0.94584
637.64154	0.94547
635.58463	0.94473
633.52772	0.94310
631.47081	0.94107
629.41390	0.93970
627.35700	0.93941
625.30009	0.93943
623.24318	0.93916
621.18627	0.93847
619.12936	0.93668
617.07245	0.93401
615.01555	0.93133
612.95864	0.92815
610.90173	0.92356
608.84482	0.91760
606.78791	0.91178
604.73101	0.90828
602.67410	0.90736
600.61719	0.90779
598.56028	0.91000
596.50337	0.91471
594.44646	0.92001
592.38956	0.92405
590.33265	0.92764
588.27574	0.93161
586.21883	0.93509
584.16192	0.93758
582.10502	0.93965
580.04811	0.94076
577.99120	0.94040
575.93429	0.93978
573.87738	0.93990
571.82047	0.94022
569.76357	0.93951
567.70666	0.93816
565.64975	0.93694
563.59284	0.93624
561.53593	0.93649
559.47903	0.93666
557.42212	0.93637
555.36521	0.93648
553.30830	0.93778
551.25139	0.93978
549.19448	0.94087
547.13758	0.94055
545.08067	0.94016
543.02376	0.94077
540.96685	0.94057
538.90994	0.93900
536.85304	0.93910
534.79613	0.94112
532.73922	0.94218
530.68231	0.94118
528.62540	0.93936
526.56849	0.93807
524.51159	0.93796
522.45468	0.93848
520.39777	0.93864
518.34086	0.93802
516.28395	0.93711
514.22705	0.93659
512.17014	0.93668
510.11323	0.93686
508.05632	0.93642
505.99941	0.93614
503.94250	0.93663
501.88560	0.93643
499.82869	0.93373
497.77178	0.93094
495.71487	0.93124
493.65796	0.93173
491.60106	0.93005
489.54415	0.92906
487.48724	0.92961
485.43033	0.93002
483.37342	0.92982
481.31651	0.92939
479.25961	0.92906
477.20270	0.92785
475.14579	0.92553
473.08888	0.92388
471.03197	0.92296
468.97507	0.92250
466.91816	0.92314
464.86125	0.92381
462.80434	0.92273
460.74743	0.91972
458.69052	0.91758
456.63362	0.91850
454.57671	0.91916
452.51980	0.91842
450.46289	0.91855
448.40598	0.91961
446.34908	0.92069
444.29217	0.92066
442.23526	0.91935
440.17835	0.91901
438.12144	0.92090
436.06453	0.92328
434.00763	0.92394
431.95072	0.92332
429.89381	0.92410
427.83690	0.92584
425.77999	0.92525
423.72309	0.92416
421.66618	0.92614
419.60927	0.93046
417.55236	0.92947
415.49545	0.92393
413.43854	0.92212
411.38164	0.92299
409.32473	0.92313
407.26782	0.92271
405.21091	0.92335
403.15400	0.92640
401.09710	0.92839
399.04019	0.92479
