3996.57260	0.97649
3994.51569	0.97641
3992.45878	0.97646
3990.40188	0.97635
3988.34497	0.97581
3986.28806	0.97528
3984.23115	0.97534
3982.17424	0.97577
3980.11733	0.97604
3978.06043	0.97608
3976.00352	0.97600
3973.94661	0.97567
3971.88970	0.97566
3969.83279	0.97650
3967.77589	0.97718
3965.71898	0.97705
3963.66207	0.97682
3961.60516	0.97720
3959.54825	0.97754
3957.49134	0.97702
3955.43444	0.97633
3953.37753	0.97623
3951.32062	0.97673
3949.26371	0.97747
3947.20680	0.97774
3945.14990	0.97709
3943.09299	0.97606
3941.03608	0.97568
3938.97917	0.97614
3936.92226	0.97680
3934.86535	0.97733
3932.80845	0.97767
3930.75154	0.97755
3928.69463	0.97669
3926.63772	0.97562
3924.58081	0.97581
3922.52391	0.97727
3920.46700	0.97809
3918.41009	0.97739
3916.35318	0.97614
3914.29627	0.97581
3912.23936	0.97641
3910.18246	0.97677
3908.12555	0.97627
3906.06864	0.97572
3904.01173	0.97618
3901.95482	0.97703
3899.89792	0.97660
3897.84101	0.97521
3895.78410	0.97469
3893.72719	0.97518
3891.67028	0.97585
3889.61337	0.97633
3887.55647	0.97625
3885.49956	0.97556
3883.44265	0.97546
3881.38574	0.97591
3879.32883	0.97591
3877.27193	0.97620
3875.21502	0.97712
3873.15811	0.97780
3871.10120	0.97789
3869.04429	0.97770
3866.98738	0.97763
3864.93048	0.97770
3862.87357	0.97722
3860.81666	0.97622
3858.75975	0.97565
3856.70284	0.97601
3854.64594	0.97709
3852.58903	0.97722
3850.53212	0.97631
3848.47521	0.97590
3846.41830	0.97589
3844.36139	0.97643
3842.30449	0.97760
3840.24758	0.97827
3838.19067	0.97807
3836.13376	0.97765
3834.07685	0.97673
3832.01995	0.97555
3829.96304	0.97531
3827.90613	0.97602
3825.84922	0.97654
3823.79231	0.97679
3821.73540	0.97681
3819.67850	0.97638
3817.62159	0.97607
3815.56468	0.97600
3813.50777	0.97638
3811.45086	0.97702
3809.39396	0.97729
3807.33705	0.97697
3805.28014	0.97677
3803.22323	0.97715
3801.16632	0.97733
3799.10941	0.97689
3797.05251	0.97648
3794.99560	0.97650
3792.93869	0.97669
3790.88178	0.97687
3788.82487	0.97733
3786.76796	0.97784
3784.71106	0.97791
3782.65415	0.97752
3780.59724	0.97683
3778.54033	0.97650
3776.48342	0.97675
3774.42652	0.97680
3772.36961	0.97640
3770.31270	0.97605
3768.25579	0.97593
3766.19888	0.97563
3764.14197	0.97552
3762.08507	0.97581
3760.02816	0.97617
3757.97125	0.97690
3755.91434	0.97792
3753.85743	0.97836
3751.80053	0.97768
3749.74362	0.97657
3747.68671	0.97681
3745.62980	0.97775
3743.57289	0.97801
3741.51598	0.97763
3739.45908	0.97720
3737.40217	0.97696
3735.34526	0.97722
3733.28835	0.97800
3731.23144	0.97839
3729.17454	0.97815
3727.11763	0.97748
3725.06072	0.97638
3723.00381	0.97576
3720.94690	0.97619
3718.88999	0.97683
3716.83309	0.97683
3714.77618	0.97702
3712.71927	0.97747
3710.66236	0.97659
3708.60545	0.97569
3706.54855	0.97619
3704.49164	0.97701
3702.43473	0.97736
3700.37782	0.97704
3698.32091	0.97643
3696.26400	0.97601
3694.20710	0.97617
3692.15019	0.97683
3690.09328	0.97699
3688.03637	0.97624
3685.97946	0.97592
3683.92256	0.97643
3681.86565	0.97720
3679.80874	0.97779
3677.75183	0.97819
3675.69492	0.97806
3673.63801	0.97722
3671.58111	0.97653
3669.52420	0.97596
3667.46729	0.97581
3665.41038	0.97649
3663.35347	0.97735
3661.29657	0.97747
3659.23966	0.97729
3657.18275	0.97719
3655.12584	0.97633
3653.06893	0.97542
3651.01202	0.97528
3648.95512	0.97514
3646.89821	0.97502
3644.84130	0.97533
3642.78439	0.97519
3640.72748	0.97461
3638.67058	0.97478
3636.61367	0.97575
3634.55676	0.97636
3632.49985	0.97624
3630.44294	0.97572
3628.38603	0.97494
3626.32913	0.97429
3624.27222	0.97405
3622.21531	0.97405
3620.15840	0.97423
3618.10149	0.97440
3616.04459	0.97438
3613.98768	0.97419
3611.93077	0.97346
3609.87386	0.97272
3607.81695	0.97272
3605.76004	0.97301
3603.70314	0.97329
3601.64623	0.97350
3599.58932	0.97348
3597.53241	0.97325
3595.47550	0.97304
3593.41860	0.97301
3591.36169	0.97358
3589.30478	0.97453
3587.24787	0.97427
3585.19096	0.97288
3583.13405	0.97231
3581.07715	0.97246
3579.02024	0.97196
3576.96333	0.97101
3574.90642	0.97104
3572.84951	0.97147
3570.79261	0.97136
3568.73570	0.97108
3566.67879	0.97092
3564.62188	0.97111
3562.56497	0.97143
3560.50806	0.97132
3558.45116	0.97057
3556.39425	0.96950
3554.33734	0.96862
3552.28043	0.96805
3550.22352	0.96774
3548.16662	0.96774
3546.10971	0.96783
3544.05280	0.96784
3541.99589	0.96765
3539.93898	0.96733
3537.88207	0.96698
3535.82517	0.96666
3533.76826	0.96632
3531.71135	0.96582
3529.65444	0.96550
3527.59753	0.96567
3525.54063	0.96588
3523.48372	0.96553
3521.42681	0.96485
3519.36990	0.96442
3517.31299	0.96429
3515.25608	0.96417
3513.19918	0.96400
3511.14227	0.96404
3509.08536	0.96413
3507.02845	0.96387
3504.97154	0.96273
3502.91464	0.96107
3500.85773	0.96055
3498.80082	0.96095
3496.74391	0.96088
3494.68700	0.96072
3492.63009	0.96112
3490.57319	0.96136
3488.51628	0.96133
3486.45937	0.96166
3484.40246	0.96206
3482.34555	0.96173
3480.28865	0.96101
3478.23174	0.96084
3476.17483	0.96097
3474.11792	0.96079
3472.06101	0.96055
3470.00410	0.96069
3467.94720	0.96090
3465.89029	0.96080
3463.83338	0.96075
3461.77647	0.96122
3459.71956	0.96181
3457.66266	0.96198
3455.60575	0.96234
3453.54884	0.96279
3451.49193	0.96284
3449.43502	0.96278
3447.37811	0.96285
3445.32121	0.96308
3443.26430	0.96345
3441.20739	0.96382
3439.15048	0.96396
3437.09357	0.96396
3435.03667	0.96406
3432.97976	0.96419
3430.92285	0.96425
3428.86594	0.96439
3426.80903	0.96493
3424.75212	0.96581
3422.69522	0.96627
3420.63831	0.96600
3418.58140	0.96546
3416.52449	0.96512
3414.46758	0.96539
3412.41068	0.96623
3410.35377	0.96690
3408.29686	0.96698
3406.23995	0.96681
3404.18304	0.96679
3402.12613	0.96699
3400.06923	0.96739
3398.01232	0.96773
3395.95541	0.96782
3393.89850	0.96790
3391.84159	0.96782
3389.78469	0.96758
3387.72778	0.96777
3385.67087	0.96837
3383.61396	0.96879
3381.55705	0.96888
3379.50014	0.96904
3377.44324	0.96917
3375.38633	0.96877
3373.32942	0.96814
3371.27251	0.96805
3369.21560	0.96833
3367.15870	0.96849
3365.10179	0.96860
3363.04488	0.96872
3360.98797	0.96866
3358.93106	0.96841
3356.87415	0.96817
3354.81725	0.96828
3352.76034	0.96881
3350.70343	0.96952
3348.64652	0.97009
3346.58961	0.97034
3344.53271	0.97045
3342.47580	0.97033
3340.41889	0.96988
3338.36198	0.96970
3336.30507	0.97001
3334.24816	0.97036
3332.19126	0.97077
3330.13435	0.97104
3328.07744	0.97048
3326.02053	0.97000
3323.96362	0.97047
3321.90672	0.97085
3319.84981	0.97043
3317.79290	0.96979
3315.73599	0.96983
3313.67908	0.97075
3311.62217	0.97145
3309.56527	0.97141
3307.50836	0.97149
3305.45145	0.97182
3303.39454	0.97197
3301.33763	0.97195
3299.28073	0.97186
3297.22382	0.97179
3295.16691	0.97170
3293.11000	0.97160
3291.05309	0.97162
3288.99618	0.97182
3286.93928	0.97183
3284.88237	0.97137
3282.82546	0.97091
3280.76855	0.97098
3278.71164	0.97156
3276.65474	0.97214
3274.59783	0.97236
3272.54092	0.97243
3270.48401	0.97230
3268.42710	0.97186
3266.37019	0.97152
3264.31329	0.97160
3262.25638	0.97177
3260.19947	0.97171
3258.14256	0.97172
3256.08565	0.97178
3254.02875	0.97176
3251.97184	0.97203
3249.91493	0.97251
3247.85802	0.97322
3245.80111	0.97395
3243.74420	0.97390
3241.68730	0.97365
3239.63039	0.97370
3237.57348	0.97373
3235.51657	0.97386
3233.45966	0.97381
3231.40276	0.97346
3229.34585	0.97332
3227.28894	0.97324
3225.23203	0.97306
3223.17512	0.97304
3221.11821	0.97312
3219.06131	0.97329
3217.00440	0.97349
3214.94749	0.97345
3212.89058	0.97346
3210.83367	0.97351
3208.77677	0.97308
3206.71986	0.97249
3204.66295	0.97252
3202.60604	0.97341
3200.54913	0.97410
3198.49222	0.97403
3196.43532	0.97389
3194.37841	0.97383
3192.32150	0.97372
3190.26459	0.97335
3188.20768	0.97296
3186.15078	0.97319
3184.09387	0.97353
3182.03696	0.97357
3179.98005	0.97380
3177.92314	0.97427
3175.86623	0.97455
3173.80933	0.97452
3171.75242	0.97464
3169.69551	0.97478
3167.63860	0.97435
3165.58169	0.97371
3163.52479	0.97354
3161.46788	0.97380
3159.41097	0.97416
3157.35406	0.97432
3155.29715	0.97429
3153.24024	0.97425
3151.18334	0.97418
3149.12643	0.97432
3147.06952	0.97453
3145.01261	0.97454
3142.95570	0.97470
3140.89880	0.97480
3138.84189	0.97434
3136.78498	0.97369
3134.72807	0.97322
3132.67116	0.97304
3130.61425	0.97341
3128.55735	0.97412
3126.50044	0.97464
3124.44353	0.97456
3122.38662	0.97426
3120.32971	0.97419
3118.27281	0.97410
3116.21590	0.97399
3114.15899	0.97414
3112.10208	0.97458
3110.04517	0.97494
3107.98826	0.97476
3105.93136	0.97426
3103.87445	0.97414
3101.81754	0.97439
3099.76063	0.97475
3097.70372	0.97497
3095.64682	0.97461
3093.58991	0.97427
3091.53300	0.97458
3089.47609	0.97487
3087.41918	0.97460
3085.36227	0.97418
3083.30537	0.97417
3081.24846	0.97434
3079.19155	0.97426
3077.13464	0.97436
3075.07773	0.97462
3073.02083	0.97428
3070.96392	0.97358
3068.90701	0.97336
3066.85010	0.97364
3064.79319	0.97400
3062.73628	0.97418
3060.67938	0.97422
3058.62247	0.97431
3056.56556	0.97443
3054.50865	0.97450
3052.45174	0.97437
3050.39484	0.97389
3048.33793	0.97357
3046.28102	0.97366
3044.22411	0.97363
3042.16720	0.97350
3040.11029	0.97360
3038.05339	0.97365
3035.99648	0.97342
3033.93957	0.97328
3031.88266	0.97351
3029.82575	0.97342
3027.76885	0.97281
3025.71194	0.97236
3023.65503	0.97231
3021.59812	0.97226
3019.54121	0.97208
3017.48430	0.97204
3015.42740	0.97188
3013.37049	0.97158
3011.31358	0.97161
3009.25667	0.97171
3007.19976	0.97150
3005.14286	0.97120
3003.08595	0.97125
3001.02904	0.97146
2998.97213	0.97122
2996.91522	0.97071
2994.85831	0.97055
2992.80141	0.97069
2990.74450	0.97091
2988.68759	0.97101
2986.63068	0.97056
2984.57377	0.97002
2982.51687	0.97009
2980.45996	0.97031
2978.40305	0.97023
2976.34614	0.97019
2974.28923	0.97018
2972.23232	0.96957
2970.17542	0.96853
2968.11851	0.96807
2966.06160	0.96803
2964.00469	0.96761
2961.94778	0.96706
2959.89088	0.96689
2957.83397	0.96684
2955.77706	0.96643
2953.72015	0.96583
2951.66324	0.96565
2949.60633	0.96580
2947.54943	0.96593
2945.49252	0.96604
2943.43561	0.96603
2941.37870	0.96591
2939.32179	0.96571
2937.26489	0.96570
2935.20798	0.96645
2933.15107	0.96737
2931.09416	0.96751
2929.03725	0.96745
2926.98034	0.96783
2924.92344	0.96800
2922.86653	0.96763
2920.80962	0.96742
2918.75271	0.96753
2916.69580	0.96752
2914.63890	0.96750
2912.58199	0.96760
2910.52508	0.96756
2908.46817	0.96730
2906.41126	0.96682
2904.35435	0.96620
2902.29745	0.96580
2900.24054	0.96592
2898.18363	0.96636
2896.12672	0.96653
2894.06981	0.96636
2892.01291	0.96630
2889.95600	0.96626
2887.89909	0.96626
2885.84218	0.96667
2883.78527	0.96718
2881.72836	0.96740
2879.67146	0.96736
2877.61455	0.96721
2875.55764	0.96727
2873.50073	0.96744
2871.44382	0.96733
2869.38692	0.96725
2867.33001	0.96774
2865.27310	0.96833
2863.21619	0.96857
2861.15928	0.96868
2859.10237	0.96881
2857.04547	0.96914
2854.98856	0.96935
2852.93165	0.96945
2850.87474	0.96995
2848.81783	0.97080
2846.76093	0.97161
2844.70402	0.97188
2842.64711	0.97172
2840.59020	0.97170
2838.53329	0.97210
2836.47638	0.97259
2834.41948	0.97259
2832.36257	0.97232
2830.30566	0.97232
2828.24875	0.97252
2826.19184	0.97267
2824.13494	0.97258
2822.07803	0.97244
2820.02112	0.97269
2817.96421	0.97299
2815.90730	0.97289
2813.85039	0.97268
2811.79349	0.97262
2809.73658	0.97283
2807.67967	0.97317
2805.62276	0.97331
2803.56585	0.97338
2801.50895	0.97343
2799.45204	0.97336
2797.39513	0.97345
2795.33822	0.97368
2793.28131	0.97379
2791.22440	0.97376
2789.16750	0.97359
2787.11059	0.97343
2785.05368	0.97353
2782.99677	0.97377
2780.93986	0.97394
2778.88296	0.97400
2776.82605	0.97388
2774.76914	0.97367
2772.71223	0.97352
2770.65532	0.97339
2768.59841	0.97356
2766.54151	0.97401
2764.48460	0.97410
2762.42769	0.97377
2760.37078	0.97357
2758.31387	0.97372
2756.25697	0.97385
2754.20006	0.97378
2752.14315	0.97371
2750.08624	0.97380
2748.02933	0.97415
2745.97242	0.97425
2743.91552	0.97378
2741.85861	0.97337
2739.80170	0.97354
2737.74479	0.97410
2735.68788	0.97444
2733.63098	0.97425
2731.57407	0.97377
2729.51716	0.97360
2727.46025	0.97381
2725.40334	0.97379
2723.34643	0.97352
2721.28953	0.97362
2719.23262	0.97399
2717.17571	0.97403
2715.11880	0.97389
2713.06189	0.97399
2711.00499	0.97426
2708.94808	0.97447
2706.89117	0.97423
2704.83426	0.97393
2702.77735	0.97411
2700.72044	0.97412
2698.66354	0.97369
2696.60663	0.97340
2694.54972	0.97347
2692.49281	0.97376
2690.43590	0.97400
2688.37900	0.97418
2686.32209	0.97439
2684.26518	0.97464
2682.20827	0.97480
2680.15136	0.97481
2678.09445	0.97472
2676.03755	0.97441
2673.98064	0.97405
2671.92373	0.97384
2669.86682	0.97357
2667.80991	0.97328
2665.75301	0.97330
2663.69610	0.97372
2661.63919	0.97415
2659.58228	0.97408
2657.52537	0.97383
2655.46846	0.97388
2653.41156	0.97393
2651.35465	0.97375
2649.29774	0.97346
2647.24083	0.97337
2645.18392	0.97365
2643.12702	0.97401
2641.07011	0.97439
2639.01320	0.97461
2636.95629	0.97458
2634.89938	0.97459
2632.84247	0.97452
2630.78557	0.97429
2628.72866	0.97421
2626.67175	0.97431
2624.61484	0.97438
2622.55793	0.97459
2620.50103	0.97515
2618.44412	0.97579
2616.38721	0.97584
2614.33030	0.97529
2612.27339	0.97487
2610.21648	0.97480
2608.15958	0.97490
2606.10267	0.97499
2604.04576	0.97533
2601.98885	0.97608
2599.93194	0.97642
2597.87504	0.97598
2595.81813	0.97562
2593.76122	0.97552
2591.70431	0.97505
2589.64740	0.97471
2587.59049	0.97478
2585.53359	0.97511
2583.47668	0.97569
2581.41977	0.97584
2579.36286	0.97537
2577.30595	0.97504
2575.24905	0.97505
2573.19214	0.97492
2571.13523	0.97487
2569.07832	0.97541
2567.02141	0.97588
2564.96450	0.97591
2562.90760	0.97612
2560.85069	0.97644
2558.79378	0.97646
2556.73687	0.97643
2554.67996	0.97642
2552.62306	0.97638
2550.56615	0.97613
2548.50924	0.97583
2546.45233	0.97592
2544.39542	0.97613
2542.33851	0.97636
2540.28161	0.97625
2538.22470	0.97556
2536.16779	0.97523
2534.11088	0.97570
2532.05397	0.97635
2529.99707	0.97655
2527.94016	0.97663
2525.88325	0.97707
2523.82634	0.97750
2521.76943	0.97727
2519.71252	0.97666
2517.65562	0.97638
2515.59871	0.97604
2513.54180	0.97569
2511.48489	0.97591
2509.42798	0.97641
2507.37108	0.97684
2505.31417	0.97686
2503.25726	0.97641
2501.20035	0.97629
2499.14344	0.97679
2497.08653	0.97686
2495.02963	0.97647
2492.97272	0.97668
2490.91581	0.97725
2488.85890	0.97744
2486.80199	0.97764
2484.74509	0.97775
2482.68818	0.97718
2480.63127	0.97668
2478.57436	0.97674
2476.51745	0.97697
2474.46054	0.97736
2472.40364	0.97767
2470.34673	0.97751
2468.28982	0.97691
2466.23291	0.97661
2464.17600	0.97701
2462.11910	0.97707
2460.06219	0.97657
2458.00528	0.97626
2455.94837	0.97605
2453.89146	0.97603
2451.83455	0.97661
2449.77765	0.97725
2447.72074	0.97717
2445.66383	0.97674
2443.60692	0.97654
2441.55001	0.97652
2439.49311	0.97660
2437.43620	0.97697
2435.37929	0.97749
2433.32238	0.97764
2431.26547	0.97765
2429.20856	0.97754
2427.15166	0.97706
2425.09475	0.97653
2423.03784	0.97616
2420.98093	0.97570
2418.92402	0.97516
2416.86712	0.97512
2414.81021	0.97558
2412.75330	0.97627
2410.69639	0.97715
2408.63948	0.97760
2406.58257	0.97747
2404.52567	0.97752
2402.46876	0.97761
2400.41185	0.97697
2398.35494	0.97620
2396.29803	0.97610
2394.24113	0.97620
2392.18422	0.97620
2390.12731	0.97636
2388.07040	0.97676
2386.01349	0.97721
2383.95658	0.97747
2381.89968	0.97764
2379.84277	0.97782
2377.78586	0.97799
2375.72895	0.97773
2373.67204	0.97700
2371.61514	0.97692
2369.55823	0.97726
2367.50132	0.97726
2365.44441	0.97763
2363.38750	0.97785
2361.33059	0.97705
2359.27369	0.97610
2357.21678	0.97553
2355.15987	0.97556
2353.10296	0.97645
2351.04605	0.97759
2348.98915	0.97816
2346.93224	0.97781
2344.87533	0.97688
2342.81842	0.97607
2340.76151	0.97581
2338.70460	0.97602
2336.64770	0.97647
2334.59079	0.97727
2332.53388	0.97759
2330.47697	0.97668
2328.42006	0.97503
2326.36316	0.97383
2324.30625	0.97395
2322.24934	0.97479
2320.19243	0.97527
2318.13552	0.97506
2316.07861	0.97520
2314.02171	0.97625
2311.96480	0.97700
2309.90789	0.97687
2307.85098	0.97680
2305.79407	0.97696
2303.73717	0.97671
2301.68026	0.97634
2299.62335	0.97643
2297.56644	0.97663
2295.50953	0.97642
2293.45262	0.97629
2291.39572	0.97703
2289.33881	0.97782
2287.28190	0.97769
2285.22499	0.97753
2283.16808	0.97775
2281.11117	0.97771
2279.05427	0.97719
2276.99736	0.97655
2274.94045	0.97642
2272.88354	0.97683
2270.82663	0.97731
2268.76973	0.97784
2266.71282	0.97830
2264.65591	0.97823
2262.59900	0.97769
2260.54209	0.97740
2258.48518	0.97738
2256.42828	0.97744
2254.37137	0.97805
2252.31446	0.97868
2250.25755	0.97811
2248.20064	0.97662
2246.14374	0.97579
2244.08683	0.97659
2242.02992	0.97803
2239.97301	0.97868
2237.91610	0.97844
2235.85919	0.97804
2233.80229	0.97795
2231.74538	0.97849
2229.68847	0.97980
2227.63156	0.98143
2225.57465	0.98252
2223.51775	0.98229
2221.46084	0.98076
2219.40393	0.97917
2217.34702	0.97866
2215.29011	0.97892
2213.23320	0.97942
2211.17630	0.98007
2209.11939	0.98003
2207.06248	0.97912
2205.00557	0.97878
2202.94866	0.97920
2200.89176	0.97950
2198.83485	0.97967
2196.77794	0.98023
2194.72103	0.98115
2192.66412	0.98118
2190.60721	0.97989
2188.55031	0.97810
2186.49340	0.97614
2184.43649	0.97457
2182.37958	0.97492
2180.32267	0.97711
2178.26577	0.97897
2176.20886	0.98011
2174.15195	0.98036
2172.09504	0.97903
2170.03813	0.97874
2167.98122	0.98073
2165.92432	0.98072
2163.86741	0.97784
2161.81050	0.97697
2159.75359	0.97884
2157.69668	0.98131
2155.63978	0.98380
2153.58287	0.98470
2151.52596	0.98361
2149.46905	0.98186
2147.41214	0.97957
2145.35523	0.97705
2143.29833	0.97608
2141.24142	0.97674
2139.18451	0.97852
2137.12760	0.98110
2135.07069	0.98209
2133.01379	0.98146
2130.95688	0.98102
2128.89997	0.97942
2126.84306	0.97703
2124.78615	0.97651
2122.72924	0.97760
2120.67234	0.97857
2118.61543	0.97825
2116.55852	0.97678
2114.50161	0.97587
2112.44470	0.97602
2110.38780	0.97650
2108.33089	0.97736
2106.27398	0.97838
2104.21707	0.97786
2102.16016	0.97624
2100.10325	0.97631
2098.04635	0.97756
2095.98944	0.97829
2093.93253	0.97899
2091.87562	0.97978
2089.81871	0.98047
2087.76181	0.98089
2085.70490	0.98068
2083.64799	0.98006
2081.59108	0.97892
2079.53417	0.97739
2077.47726	0.97681
2075.42036	0.97786
2073.36345	0.97932
2071.30654	0.98026
2069.24963	0.98055
2067.19272	0.98003
2065.13582	0.97950
2063.07891	0.97953
2061.02200	0.97992
2058.96509	0.98125
2056.90818	0.98292
2054.85127	0.98224
2052.79437	0.97943
2050.73746	0.97777
2048.68055	0.97726
2046.62364	0.97635
2044.56673	0.97639
2042.50983	0.97829
2040.45292	0.97958
2038.39601	0.97964
2036.33910	0.98047
2034.28219	0.98158
2032.22528	0.98190
2030.16838	0.98100
2028.11147	0.97993
2026.05456	0.98022
2023.99765	0.98137
2021.94074	0.98262
2019.88384	0.98307
2017.82693	0.98262
2015.77002	0.98185
2013.71311	0.98105
2011.65620	0.98064
2009.59929	0.98125
2007.54239	0.98280
2005.48548	0.98324
2003.42857	0.98167
2001.37166	0.97969
1999.31475	0.97832
1997.25785	0.97744
1995.20094	0.97784
1993.14403	0.97973
1991.08712	0.98125
1989.03021	0.98246
1986.97330	0.98308
1984.91640	0.98235
1982.85949	0.98269
1980.80258	0.98377
1978.74567	0.98362
1976.68876	0.98353
1974.63186	0.98408
1972.57495	0.98313
1970.51804	0.98111
1968.46113	0.98029
1966.40422	0.98007
1964.34731	0.97994
1962.29041	0.98033
1960.23350	0.98082
1958.17659	0.98072
1956.11968	0.98080
1954.06277	0.98231
1952.00587	0.98377
1949.94896	0.98355
1947.89205	0.98351
1945.83514	0.98441
1943.77823	0.98436
1941.72132	0.98359
1939.66442	0.98293
1937.60751	0.98269
1935.55060	0.98301
1933.49369	0.98318
1931.43678	0.98292
1929.37988	0.98242
1927.32297	0.98143
1925.26606	0.98081
1923.20915	0.98105
1921.15224	0.98148
1919.09533	0.98226
1917.03843	0.98272
1914.98152	0.98265
1912.92461	0.98238
1910.86770	0.98159
1908.81079	0.98083
1906.75389	0.98048
1904.69698	0.98045
1902.64007	0.98117
1900.58316	0.98227
1898.52625	0.98253
1896.46934	0.98213
1894.41244	0.98204
1892.35553	0.98224
1890.29862	0.98222
1888.24171	0.98191
1886.18480	0.98167
1884.12790	0.98143
1882.07099	0.98095
1880.01408	0.98111
1877.95717	0.98179
1875.90026	0.98181
1873.84335	0.98162
1871.78645	0.98202
1869.72954	0.98279
1867.67263	0.98330
1865.61572	0.98335
1863.55881	0.98316
1861.50191	0.98301
1859.44500	0.98295
1857.38809	0.98323
1855.33118	0.98386
1853.27427	0.98399
1851.21736	0.98359
1849.16046	0.98352
1847.10355	0.98372
1845.04664	0.98396
1842.98973	0.98416
1840.93282	0.98384
1838.87592	0.98316
1836.81901	0.98273
1834.76210	0.98301
1832.70519	0.98357
1830.64828	0.98368
1828.59137	0.98315
1826.53447	0.98273
1824.47756	0.98254
1822.42065	0.98228
1820.36374	0.98217
1818.30683	0.98237
1816.24993	0.98250
1814.19302	0.98237
1812.13611	0.98234
1810.07920	0.98219
1808.02229	0.98193
1805.96538	0.98177
1803.90848	0.98129
1801.85157	0.98036
1799.79466	0.97972
1797.73775	0.97971
1795.68084	0.97986
1793.62394	0.97963
1791.56703	0.97851
1789.51012	0.97721
1787.45321	0.97617
1785.39630	0.97512
1783.33939	0.97357
1781.28249	0.97149
1779.22558	0.96908
1777.16867	0.96625
1775.11176	0.96250
1773.05485	0.95672
1770.99795	0.94843
1768.94104	0.93860
1766.88413	0.92675
1764.82722	0.91347
1762.77031	0.89758
1760.71340	0.87905
1758.65650	0.86256
1756.59959	0.84714
1754.54268	0.83355
1752.48577	0.82182
1750.42886	0.80862
1748.37196	0.79593
1746.31505	0.78656
1744.25814	0.77917
1742.20123	0.77310
1740.14432	0.76865
1738.08741	0.76725
1736.03051	0.76970
1733.97360	0.77496
1731.91669	0.78176
1729.85978	0.78999
1727.80287	0.80012
1725.74597	0.81145
1723.68906	0.82364
1721.63215	0.83545
1719.57524	0.84706
1717.51833	0.86048
1715.46142	0.87407
1713.40452	0.88510
1711.34761	0.89446
1709.29070	0.90285
1707.23379	0.91053
1705.17688	0.91737
1703.11998	0.92277
1701.06307	0.92791
1699.00616	0.93291
1696.94925	0.93608
1694.89234	0.93896
1692.83543	0.94194
1690.77853	0.94430
1688.72162	0.94624
1686.66471	0.94827
1684.60780	0.95076
1682.55089	0.95263
1680.49399	0.95378
1678.43708	0.95479
1676.38017	0.95548
1674.32326	0.95602
1672.26635	0.95665
1670.20944	0.95715
1668.15254	0.95753
1666.09563	0.95799
1664.03872	0.95822
1661.98181	0.95844
1659.92490	0.95890
1657.86800	0.95927
1655.81109	0.95948
1653.75418	0.95953
1651.69727	0.95959
1649.64036	0.96009
1647.58345	0.96040
1645.52655	0.96009
1643.46964	0.95989
1641.41273	0.95999
1639.35582	0.96015
1637.29891	0.96032
1635.24201	0.96050
1633.18510	0.96102
1631.12819	0.96183
1629.07128	0.96230
1627.01437	0.96242
1624.95746	0.96302
1622.90056	0.96413
1620.84365	0.96490
1618.78674	0.96519
1616.72983	0.96542
1614.67292	0.96600
1612.61602	0.96686
1610.55911	0.96774
1608.50220	0.96838
1606.44529	0.96871
1604.38838	0.96898
1602.33147	0.96919
1600.27457	0.96939
1598.21766	0.96985
1596.16075	0.97053
1594.10384	0.97089
1592.04693	0.97082
1589.99003	0.97083
1587.93312	0.97113
1585.87621	0.97148
1583.81930	0.97171
1581.76239	0.97201
1579.70548	0.97229
1577.64858	0.97225
1575.59167	0.97208
1573.53476	0.97237
1571.47785	0.97279
1569.42094	0.97282
1567.36404	0.97260
1565.30713	0.97254
1563.25022	0.97274
1561.19331	0.97301
1559.13640	0.97303
1557.07949	0.97307
1555.02259	0.97329
1552.96568	0.97343
1550.90877	0.97355
1548.85186	0.97358
1546.79495	0.97349
1544.73805	0.97338
1542.68114	0.97324
1540.62423	0.97314
1538.56732	0.97343
1536.51041	0.97379
1534.45350	0.97403
1532.39660	0.97424
1530.33969	0.97439
1528.28278	0.97457
1526.22587	0.97482
1524.16896	0.97486
1522.11206	0.97487
1520.05515	0.97526
1517.99824	0.97549
1515.94133	0.97530
1513.88442	0.97508
1511.82751	0.97509
1509.77061	0.97535
1507.71370	0.97537
1505.65679	0.97503
1503.59988	0.97526
1501.54297	0.97550
1499.48607	0.97557
1497.42916	0.97584
1495.37225	0.97601
1493.31534	0.97590
1491.25843	0.97576
1489.20152	0.97567
1487.14462	0.97545
1485.08771	0.97514
1483.03080	0.97498
1480.97389	0.97479
1478.91698	0.97438
1476.86008	0.97384
1474.80317	0.97317
1472.74626	0.97200
1470.68935	0.97054
1468.63244	0.96934
1466.57553	0.96795
1464.51863	0.96602
1462.46172	0.96422
1460.40481	0.96288
1458.34790	0.96136
1456.29099	0.95913
1454.23409	0.95711
1452.17718	0.95568
1450.12027	0.95460
1448.06336	0.95340
1446.00645	0.95180
1443.94954	0.95024
1441.89264	0.94872
1439.83573	0.94714
1437.77882	0.94528
1435.72191	0.94324
1433.66500	0.94213
1431.60810	0.94184
1429.55119	0.94211
1427.49428	0.94319
1425.43737	0.94473
1423.38046	0.94616
1421.32355	0.94731
1419.26665	0.94856
1417.20974	0.95008
1415.15283	0.95162
1413.09592	0.95311
1411.03901	0.95428
1408.98211	0.95480
1406.92520	0.95505
1404.86829	0.95544
1402.81138	0.95570
1400.75447	0.95529
1398.69756	0.95401
1396.64066	0.95201
1394.58375	0.94880
1392.52684	0.94432
1390.46993	0.93916
1388.41302	0.93262
1386.35612	0.92437
1384.29921	0.91569
1382.24230	0.90691
1380.18539	0.89773
1378.12848	0.88871
1376.07157	0.88021
1374.01467	0.87174
1371.95776	0.86444
1369.90085	0.85976
1367.84394	0.85812
1365.78703	0.86051
1363.73013	0.86795
1361.67322	0.88055
1359.61631	0.89534
1357.55940	0.90970
1355.50249	0.92252
1353.44558	0.93269
1351.38868	0.94002
1349.33177	0.94507
1347.27486	0.94852
1345.21795	0.95090
1343.16104	0.95241
1341.10414	0.95339
1339.04723	0.95440
1336.99032	0.95540
1334.93341	0.95571
1332.87650	0.95541
1330.81959	0.95513
1328.76269	0.95485
1326.70578	0.95441
1324.64887	0.95400
1322.59196	0.95375
1320.53505	0.95368
1318.47815	0.95382
1316.42124	0.95413
1314.36433	0.95462
1312.30742	0.95520
1310.25051	0.95574
1308.19360	0.95618
1306.13670	0.95629
1304.07979	0.95601
1302.02288	0.95546
1299.96597	0.95464
1297.90906	0.95371
1295.85216	0.95268
1293.79525	0.95115
1291.73834	0.94924
1289.68143	0.94734
1287.62452	0.94519
1285.56761	0.94268
1283.51071	0.94000
1281.45380	0.93677
1279.39689	0.93252
1277.33998	0.92759
1275.28307	0.92248
1273.22617	0.91690
1271.16926	0.91050
1269.11235	0.90374
1267.05544	0.89684
1264.99853	0.88921
1262.94162	0.88040
1260.88472	0.87060
1258.82781	0.86023
1256.77090	0.84954
1254.71399	0.83847
1252.65708	0.82687
1250.60018	0.81467
1248.54327	0.80205
1246.48636	0.78926
1244.42945	0.77635
1242.37254	0.76330
1240.31563	0.75035
1238.25873	0.73772
1236.20182	0.72543
1234.14491	0.71367
1232.08800	0.70306
1230.03109	0.69400
1227.97419	0.68638
1225.91728	0.68040
1223.86037	0.67660
1221.80346	0.67478
1219.74655	0.67459
1217.68964	0.67642
1215.63274	0.68048
1213.57583	0.68733
1211.51892	0.69788
1209.46201	0.71216
1207.40510	0.72974
1205.34820	0.75010
1203.29129	0.77226
1201.23438	0.79481
1199.17747	0.81623
1197.12056	0.83531
1195.06365	0.85156
1193.00675	0.86479
1190.94984	0.87484
1188.89293	0.88202
1186.83602	0.88682
1184.77911	0.88961
1182.72221	0.89060
1180.66530	0.88996
1178.60839	0.88814
1176.55148	0.88568
1174.49457	0.88319
1172.43766	0.88097
1170.38076	0.87889
1168.32385	0.87706
1166.26694	0.87600
1164.21003	0.87602
1162.15312	0.87668
1160.09622	0.87768
1158.03931	0.87952
1155.98240	0.88222
1153.92549	0.88519
1151.86858	0.88854
1149.81167	0.89207
1147.75477	0.89467
1145.69786	0.89601
1143.64095	0.89636
1141.58404	0.89585
1139.52713	0.89437
1137.47023	0.89190
1135.41332	0.88907
1133.35641	0.88625
1131.29950	0.88314
1129.24259	0.87990
1127.18568	0.87709
1125.12878	0.87492
1123.07187	0.87344
1121.01496	0.87281
1118.95805	0.87279
1116.90114	0.87291
1114.84424	0.87312
1112.78733	0.87326
1110.73042	0.87300
1108.67351	0.87219
1106.61660	0.87087
1104.55969	0.86904
1102.50279	0.86652
1100.44588	0.86334
1098.38897	0.85960
1096.33206	0.85513
1094.27515	0.84986
1092.21825	0.84419
1090.16134	0.83824
1088.10443	0.83147
1086.04752	0.82402
1083.99061	0.81677
1081.93370	0.80966
1079.87680	0.80234
1077.81989	0.79500
1075.76298	0.78774
1073.70607	0.78080
1071.64916	0.77441
1069.59226	0.76846
1067.53535	0.76258
1065.47844	0.75676
1063.42153	0.75102
1061.36462	0.74472
1059.30771	0.73748
1057.25081	0.72955
1055.19390	0.72166
1053.13699	0.71440
1051.08008	0.70738
1049.02317	0.70030
1046.96627	0.69369
1044.90936	0.68761
1042.85245	0.68192
1040.79554	0.67668
1038.73863	0.67177
1036.68172	0.66723
1034.62482	0.66357
1032.56791	0.66178
1030.51100	0.66287
1028.45409	0.66685
1026.39718	0.67314
1024.34028	0.68166
1022.28337	0.69197
1020.22646	0.70303
1018.16955	0.71418
1016.11264	0.72518
1014.05573	0.73610
1011.99883	0.74697
1009.94192	0.75757
1007.88501	0.76781
1005.82810	0.77772
1003.77119	0.78704
1001.71429	0.79556
999.65738	0.80329
997.60047	0.81030
995.54356	0.81662
993.48665	0.82203
991.42974	0.82653
989.37284	0.83040
987.31593	0.83380
985.25902	0.83701
983.20211	0.84041
981.14520	0.84402
979.08830	0.84776
977.03139	0.85183
974.97448	0.85653
972.91757	0.86169
970.86066	0.86693
968.80375	0.87200
966.74685	0.87643
964.68994	0.87995
962.63303	0.88296
960.57612	0.88555
958.51921	0.88740
956.46231	0.88867
954.40540	0.88981
952.34849	0.89104
950.29158	0.89252
948.23467	0.89439
946.17776	0.89650
944.12086	0.89869
942.06395	0.90070
940.00704	0.90233
937.95013	0.90345
935.89322	0.90405
933.83632	0.90428
931.77941	0.90411
929.72250	0.90348
927.66559	0.90238
925.60868	0.90085
923.55177	0.89904
921.49487	0.89716
919.43796	0.89542
917.38105	0.89399
915.32414	0.89284
913.26723	0.89169
911.21033	0.89011
909.15342	0.88811
907.09651	0.88613
905.03960	0.88430
902.98269	0.88273
900.92578	0.88195
898.86888	0.88233
896.81197	0.88395
894.75506	0.88674
892.69815	0.89032
890.64124	0.89367
888.58434	0.89609
886.52743	0.89821
884.47052	0.90030
882.41361	0.90206
880.35670	0.90363
878.29979	0.90564
876.24289	0.90856
874.18598	0.91207
872.12907	0.91554
870.07216	0.91877
868.01525	0.92196
865.95835	0.92527
863.90144	0.92827
861.84453	0.93048
859.78762	0.93185
857.73071	0.93256
855.67380	0.93311
853.61690	0.93387
851.55999	0.93434
849.50308	0.93406
847.44617	0.93341
845.38926	0.93249
843.33236	0.93133
841.27545	0.93048
839.21854	0.93039
837.16163	0.93111
835.10472	0.93237
833.04781	0.93392
830.99091	0.93561
828.93400	0.93717
826.87709	0.93855
824.82018	0.93998
822.76327	0.94154
820.70637	0.94285
818.64946	0.94400
816.59255	0.94517
814.53564	0.94608
812.47873	0.94673
810.42182	0.94695
808.36492	0.94690
806.30801	0.94747
804.25110	0.94848
802.19419	0.94900
800.13728	0.94946
798.08038	0.94997
796.02347	0.94984
793.96656	0.94955
791.90965	0.94986
789.85274	0.95055
787.79583	0.95137
785.73893	0.95196
783.68202	0.95193
781.62511	0.95203
779.56820	0.95268
777.51129	0.95307
775.45439	0.95297
773.39748	0.95278
771.34057	0.95255
769.28366	0.95241
767.22675	0.95288
765.16984	0.95378
763.11294	0.95411
761.05603	0.95386
758.99912	0.95385
756.94221	0.95408
754.88530	0.95420
752.82839	0.95432
750.77149	0.95425
748.71458	0.95408
746.65767	0.95468
744.60076	0.95537
742.54385	0.95501
740.48695	0.95450
738.43004	0.95464
736.37313	0.95474
734.31622	0.95418
732.25931	0.95351
730.20240	0.95293
728.14550	0.95223
726.08859	0.95167
724.03168	0.95094
721.97477	0.94984
719.91786	0.94928
717.86096	0.94922
715.80405	0.94885
713.74714	0.94829
711.69023	0.94785
709.63332	0.94740
707.57641	0.94694
705.51951	0.94629
703.46260	0.94529
701.40569	0.94453
699.34878	0.94448
697.29187	0.94439
695.23497	0.94337
693.17806	0.94147
691.12115	0.93947
689.06424	0.93846
687.00733	0.93869
684.95042	0.93934
682.89352	0.93964
680.83661	0.93969
678.77970	0.94008
676.72279	0.94087
674.66588	0.94144
672.60898	0.94164
670.55207	0.94159
668.49516	0.94115
666.43825	0.94040
664.38134	0.93952
662.32443	0.93862
660.26753	0.93770
658.21062	0.93665
656.15371	0.93603
654.09680	0.93566
652.03989	0.93431
649.98299	0.93183
647.92608	0.92950
645.86917	0.92754
643.81226	0.92599
641.75535	0.92561
639.69844	0.92526
637.64154	0.92399
635.58463	0.92317
633.52772	0.92269
631.47081	0.92102
629.41390	0.91872
627.35700	0.91704
625.30009	0.91578
623.24318	0.91476
621.18627	0.91360
619.12936	0.91122
617.07245	0.90792
615.01555	0.90448
612.95864	0.90066
610.90173	0.89555
608.84482	0.88818
606.78791	0.87945
604.73101	0.87262
602.67410	0.87049
600.61719	0.87235
598.56028	0.87634
596.50337	0.88203
594.44646	0.88879
592.38956	0.89506
590.33265	0.90018
588.27574	0.90534
586.21883	0.91023
584.16192	0.91301
582.10502	0.91495
580.04811	0.91691
577.99120	0.91745
575.93429	0.91777
573.87738	0.91861
571.82047	0.91854
569.76357	0.91737
567.70666	0.91542
565.64975	0.91303
563.59284	0.91177
561.53593	0.91166
559.47903	0.91121
557.42212	0.91114
555.36521	0.91172
553.30830	0.91220
551.25139	0.91328
549.19448	0.91536
547.13758	0.91693
545.08067	0.91753
543.02376	0.91854
540.96685	0.91888
538.90994	0.91836
536.85304	0.91909
534.79613	0.91992
532.73922	0.91930
530.68231	0.91895
528.62540	0.91981
526.56849	0.91940
524.51159	0.91738
522.45468	0.91611
520.39777	0.91523
518.34086	0.91449
516.28395	0.91449
514.22705	0.91449
512.17014	0.91393
510.11323	0.91339
508.05632	0.91328
505.99941	0.91320
503.94250	0.91335
501.88560	0.91288
499.82869	0.90989
497.77178	0.90645
495.71487	0.90582
493.65796	0.90665
491.60106	0.90564
489.54415	0.90413
487.48724	0.90499
485.43033	0.90671
483.37342	0.90696
481.31651	0.90593
479.25961	0.90429
477.20270	0.90203
475.14579	0.90007
473.08888	0.89924
471.03197	0.89785
468.97507	0.89528
466.91816	0.89340
464.86125	0.89331
462.80434	0.89398
460.74743	0.89315
458.69052	0.89066
456.63362	0.88898
454.57671	0.88834
452.51980	0.88789
450.46289	0.88939
448.40598	0.89289
446.34908	0.89511
444.29217	0.89303
442.23526	0.88915
440.17835	0.88939
438.12144	0.89335
436.06453	0.89606
434.00763	0.89483
431.95072	0.89249
429.89381	0.89355
427.83690	0.89718
425.77999	0.90150
423.72309	0.90666
421.66618	0.90894
419.60927	0.90673
417.55236	0.90347
415.49545	0.90166
413.43854	0.90145
411.38164	0.90257
409.32473	0.90318
407.26782	0.90100
405.21091	0.89886
403.15400	0.89941
401.09710	0.89985
399.04019	0.89833
