3996.57260	0.99262
3994.51569	0.99243
3992.45878	0.99228
3990.40188	0.99284
3988.34497	0.99302
3986.28806	0.99253
3984.23115	0.99211
3982.17424	0.99168
3980.11733	0.99133
3978.06043	0.99165
3976.00352	0.99245
3973.94661	0.99270
3971.88970	0.99218
3969.83279	0.99183
3967.77589	0.99232
3965.71898	0.99304
3963.66207	0.99333
3961.60516	0.99358
3959.54825	0.99380
3957.49134	0.99335
3955.43444	0.99273
3953.37753	0.99277
3951.32062	0.99309
3949.26371	0.99306
3947.20680	0.99257
3945.14990	0.99212
3943.09299	0.99249
3941.03608	0.99327
3938.97917	0.99332
3936.92226	0.99312
3934.86535	0.99351
3932.80845	0.99351
3930.75154	0.99243
3928.69463	0.99181
3926.63772	0.99227
3924.58081	0.99316
3922.52391	0.99405
3920.46700	0.99448
3918.41009	0.99408
3916.35318	0.99340
3914.29627	0.99325
3912.23936	0.99324
3910.18246	0.99310
3908.12555	0.99321
3906.06864	0.99377
3904.01173	0.99398
3901.95482	0.99291
3899.89792	0.99216
3897.84101	0.99287
3895.78410	0.99395
3893.72719	0.99484
3891.67028	0.99539
3889.61337	0.99484
3887.55647	0.99364
3885.49956	0.99297
3883.44265	0.99302
3881.38574	0.99322
3879.32883	0.99330
3877.27193	0.99342
3875.21502	0.99331
3873.15811	0.99273
3871.10120	0.99222
3869.04429	0.99247
3866.98738	0.99316
3864.93048	0.99339
3862.87357	0.99364
3860.81666	0.99423
3858.75975	0.99429
3856.70284	0.99378
3854.64594	0.99360
3852.58903	0.99432
3850.53212	0.99457
3848.47521	0.99401
3846.41830	0.99352
3844.36139	0.99357
3842.30449	0.99357
3840.24758	0.99309
3838.19067	0.99298
3836.13376	0.99336
3834.07685	0.99354
3832.01995	0.99351
3829.96304	0.99295
3827.90613	0.99232
3825.84922	0.99254
3823.79231	0.99323
3821.73540	0.99409
3819.67850	0.99501
3817.62159	0.99498
3815.56468	0.99398
3813.50777	0.99352
3811.45086	0.99366
3809.39396	0.99358
3807.33705	0.99365
3805.28014	0.99419
3803.22323	0.99485
3801.16632	0.99522
3799.10941	0.99450
3797.05251	0.99335
3794.99560	0.99280
3792.93869	0.99265
3790.88178	0.99281
3788.82487	0.99309
3786.76796	0.99289
3784.71106	0.99269
3782.65415	0.99301
3780.59724	0.99363
3778.54033	0.99370
3776.48342	0.99297
3774.42652	0.99237
3772.36961	0.99191
3770.31270	0.99164
3768.25579	0.99173
3766.19888	0.99192
3764.14197	0.99267
3762.08507	0.99372
3760.02816	0.99402
3757.97125	0.99348
3755.91434	0.99324
3753.85743	0.99380
3751.80053	0.99439
3749.74362	0.99382
3747.68671	0.99296
3745.62980	0.99329
3743.57289	0.99421
3741.51598	0.99441
3739.45908	0.99411
3737.40217	0.99376
3735.34526	0.99389
3733.28835	0.99445
3731.23144	0.99479
3729.17454	0.99512
3727.11763	0.99532
3725.06072	0.99490
3723.00381	0.99418
3720.94690	0.99355
3718.88999	0.99344
3716.83309	0.99374
3714.77618	0.99376
3712.71927	0.99300
3710.66236	0.99192
3708.60545	0.99233
3706.54855	0.99370
3704.49164	0.99426
3702.43473	0.99350
3700.37782	0.99253
3698.32091	0.99245
3696.26400	0.99274
3694.20710	0.99268
3692.15019	0.99249
3690.09328	0.99260
3688.03637	0.99245
3685.97946	0.99197
3683.92256	0.99213
3681.86565	0.99325
3679.80874	0.99446
3677.75183	0.99513
3675.69492	0.99598
3673.63801	0.99660
3671.58111	0.99612
3669.52420	0.99470
3667.46729	0.99362
3665.41038	0.99363
3663.35347	0.99337
3661.29657	0.99226
3659.23966	0.99140
3657.18275	0.99143
3655.12584	0.99174
3653.06893	0.99172
3651.01202	0.99150
3648.95512	0.99158
3646.89821	0.99210
3644.84130	0.99256
3642.78439	0.99261
3640.72748	0.99154
3638.67058	0.99042
3636.61367	0.99089
3634.55676	0.99162
3632.49985	0.99155
3630.44294	0.99126
3628.38603	0.99077
3626.32913	0.99012
3624.27222	0.98994
3622.21531	0.99057
3620.15840	0.99139
3618.10149	0.99140
3616.04459	0.99070
3613.98768	0.98953
3611.93077	0.98860
3609.87386	0.98900
3607.81695	0.99005
3605.76004	0.99011
3603.70314	0.98921
3601.64623	0.98836
3599.58932	0.98808
3597.53241	0.98799
3595.47550	0.98782
3593.41860	0.98762
3591.36169	0.98692
3589.30478	0.98578
3587.24787	0.98530
3585.19096	0.98578
3583.13405	0.98612
3581.07715	0.98628
3579.02024	0.98643
3576.96333	0.98593
3574.90642	0.98500
3572.84951	0.98463
3570.79261	0.98485
3568.73570	0.98470
3566.67879	0.98363
3564.62188	0.98234
3562.56497	0.98137
3560.50806	0.98071
3558.45116	0.98048
3556.39425	0.98056
3554.33734	0.98022
3552.28043	0.97930
3550.22352	0.97881
3548.16662	0.97865
3546.10971	0.97775
3544.05280	0.97673
3541.99589	0.97648
3539.93898	0.97630
3537.88207	0.97587
3535.82517	0.97516
3533.76826	0.97405
3531.71135	0.97320
3529.65444	0.97333
3527.59753	0.97362
3525.54063	0.97332
3523.48372	0.97303
3521.42681	0.97278
3519.36990	0.97185
3517.31299	0.97056
3515.25608	0.96978
3513.19918	0.96954
3511.14227	0.96928
3509.08536	0.96882
3507.02845	0.96840
3504.97154	0.96829
3502.91464	0.96867
3500.85773	0.96902
3498.80082	0.96863
3496.74391	0.96771
3494.68700	0.96731
3492.63009	0.96780
3490.57319	0.96791
3488.51628	0.96714
3486.45937	0.96638
3484.40246	0.96641
3482.34555	0.96709
3480.28865	0.96738
3478.23174	0.96713
3476.17483	0.96729
3474.11792	0.96752
3472.06101	0.96729
3470.00410	0.96741
3467.94720	0.96769
3465.89029	0.96762
3463.83338	0.96777
3461.77647	0.96851
3459.71956	0.96925
3457.66266	0.96920
3455.60575	0.96896
3453.54884	0.96931
3451.49193	0.96980
3449.43502	0.97002
3447.37811	0.97005
3445.32121	0.97047
3443.26430	0.97132
3441.20739	0.97175
3439.15048	0.97199
3437.09357	0.97276
3435.03667	0.97348
3432.97976	0.97368
3430.92285	0.97400
3428.86594	0.97438
3426.80903	0.97427
3424.75212	0.97410
3422.69522	0.97426
3420.63831	0.97488
3418.58140	0.97560
3416.52449	0.97590
3414.46758	0.97605
3412.41068	0.97653
3410.35377	0.97710
3408.29686	0.97733
3406.23995	0.97749
3404.18304	0.97785
3402.12613	0.97806
3400.06923	0.97790
3398.01232	0.97797
3395.95541	0.97852
3393.89850	0.97903
3391.84159	0.97941
3389.78469	0.98006
3387.72778	0.98050
3385.67087	0.98030
3383.61396	0.98024
3381.55705	0.98029
3379.50014	0.98003
3377.44324	0.97997
3375.38633	0.98053
3373.32942	0.98131
3371.27251	0.98159
3369.21560	0.98151
3367.15870	0.98172
3365.10179	0.98220
3363.04488	0.98257
3360.98797	0.98305
3358.93106	0.98391
3356.87415	0.98440
3354.81725	0.98386
3352.76034	0.98315
3350.70343	0.98328
3348.64652	0.98393
3346.58961	0.98407
3344.53271	0.98373
3342.47580	0.98407
3340.41889	0.98493
3338.36198	0.98525
3336.30507	0.98530
3334.24816	0.98563
3332.19126	0.98597
3330.13435	0.98604
3328.07744	0.98563
3326.02053	0.98520
3323.96362	0.98548
3321.90672	0.98605
3319.84981	0.98639
3317.79290	0.98668
3315.73599	0.98721
3313.67908	0.98777
3311.62217	0.98794
3309.56527	0.98779
3307.50836	0.98736
3305.45145	0.98680
3303.39454	0.98669
3301.33763	0.98711
3299.28073	0.98769
3297.22382	0.98831
3295.16691	0.98902
3293.11000	0.98970
3291.05309	0.98969
3288.99618	0.98924
3286.93928	0.98915
3284.88237	0.98930
3282.82546	0.98935
3280.76855	0.98914
3278.71164	0.98901
3276.65474	0.98914
3274.59783	0.98934
3272.54092	0.98949
3270.48401	0.98956
3268.42710	0.98976
3266.37019	0.99006
3264.31329	0.99006
3262.25638	0.98978
3260.19947	0.98955
3258.14256	0.98937
3256.08565	0.98926
3254.02875	0.98948
3251.97184	0.98985
3249.91493	0.99002
3247.85802	0.99006
3245.80111	0.99010
3243.74420	0.99050
3241.68730	0.99097
3239.63039	0.99043
3237.57348	0.98957
3235.51657	0.98967
3233.45966	0.99004
3231.40276	0.98996
3229.34585	0.98982
3227.28894	0.99002
3225.23203	0.99053
3223.17512	0.99066
3221.11821	0.99011
3219.06131	0.98973
3217.00440	0.98996
3214.94749	0.99062
3212.89058	0.99133
3210.83367	0.99153
3208.77677	0.99137
3206.71986	0.99135
3204.66295	0.99148
3202.60604	0.99149
3200.54913	0.99173
3198.49222	0.99228
3196.43532	0.99258
3194.37841	0.99252
3192.32150	0.99236
3190.26459	0.99218
3188.20768	0.99202
3186.15078	0.99204
3184.09387	0.99225
3182.03696	0.99229
3179.98005	0.99215
3177.92314	0.99175
3175.86623	0.99142
3173.80933	0.99170
3171.75242	0.99174
3169.69551	0.99131
3167.63860	0.99136
3165.58169	0.99158
3163.52479	0.99147
3161.46788	0.99150
3159.41097	0.99168
3157.35406	0.99155
3155.29715	0.99148
3153.24024	0.99179
3151.18334	0.99212
3149.12643	0.99232
3147.06952	0.99234
3145.01261	0.99210
3142.95570	0.99198
3140.89880	0.99205
3138.84189	0.99227
3136.78498	0.99260
3134.72807	0.99277
3132.67116	0.99271
3130.61425	0.99243
3128.55735	0.99213
3126.50044	0.99218
3124.44353	0.99209
3122.38662	0.99186
3120.32971	0.99213
3118.27281	0.99259
3116.21590	0.99269
3114.15899	0.99251
3112.10208	0.99241
3110.04517	0.99255
3107.98826	0.99281
3105.93136	0.99303
3103.87445	0.99315
3101.81754	0.99310
3099.76063	0.99275
3097.70372	0.99230
3095.64682	0.99198
3093.58991	0.99184
3091.53300	0.99192
3089.47609	0.99215
3087.41918	0.99240
3085.36227	0.99268
3083.30537	0.99250
3081.24846	0.99167
3079.19155	0.99123
3077.13464	0.99139
3075.07773	0.99131
3073.02083	0.99113
3070.96392	0.99138
3068.90701	0.99179
3066.85010	0.99203
3064.79319	0.99204
3062.73628	0.99186
3060.67938	0.99167
3058.62247	0.99136
3056.56556	0.99116
3054.50865	0.99150
3052.45174	0.99200
3050.39484	0.99243
3048.33793	0.99287
3046.28102	0.99299
3044.22411	0.99245
3042.16720	0.99137
3040.11029	0.99057
3038.05339	0.99031
3035.99648	0.99024
3033.93957	0.99044
3031.88266	0.99063
3029.82575	0.99058
3027.76885	0.99071
3025.71194	0.99083
3023.65503	0.99060
3021.59812	0.99028
3019.54121	0.99004
3017.48430	0.99018
3015.42740	0.99054
3013.37049	0.99063
3011.31358	0.99035
3009.25667	0.98987
3007.19976	0.98967
3005.14286	0.98992
3003.08595	0.98996
3001.02904	0.98927
2998.97213	0.98854
2996.91522	0.98853
2994.85831	0.98867
2992.80141	0.98836
2990.74450	0.98793
2988.68759	0.98771
2986.63068	0.98761
2984.57377	0.98753
2982.51687	0.98747
2980.45996	0.98740
2978.40305	0.98709
2976.34614	0.98668
2974.28923	0.98609
2972.23232	0.98497
2970.17542	0.98405
2968.11851	0.98395
2966.06160	0.98389
2964.00469	0.98339
2961.94778	0.98304
2959.89088	0.98295
2957.83397	0.98278
2955.77706	0.98253
2953.72015	0.98201
2951.66324	0.98149
2949.60633	0.98152
2947.54943	0.98173
2945.49252	0.98177
2943.43561	0.98138
2941.37870	0.98089
2939.32179	0.98101
2937.26489	0.98109
2935.20798	0.98087
2933.15107	0.98105
2931.09416	0.98146
2929.03725	0.98190
2926.98034	0.98256
2924.92344	0.98299
2922.86653	0.98291
2920.80962	0.98281
2918.75271	0.98286
2916.69580	0.98267
2914.63890	0.98214
2912.58199	0.98201
2910.52508	0.98242
2908.46817	0.98274
2906.41126	0.98287
2904.35435	0.98305
2902.29745	0.98300
2900.24054	0.98244
2898.18363	0.98170
2896.12672	0.98143
2894.06981	0.98169
2892.01291	0.98192
2889.95600	0.98183
2887.89909	0.98149
2885.84218	0.98128
2883.78527	0.98146
2881.72836	0.98200
2879.67146	0.98267
2877.61455	0.98288
2875.55764	0.98276
2873.50073	0.98298
2871.44382	0.98345
2869.38692	0.98382
2867.33001	0.98430
2865.27310	0.98500
2863.21619	0.98577
2861.15928	0.98655
2859.10237	0.98712
2857.04547	0.98740
2854.98856	0.98763
2852.93165	0.98797
2850.87474	0.98854
2848.81783	0.98911
2846.76093	0.98948
2844.70402	0.98964
2842.64711	0.98955
2840.59020	0.98985
2838.53329	0.99051
2836.47638	0.99083
2834.41948	0.99091
2832.36257	0.99093
2830.30566	0.99082
2828.24875	0.99071
2826.19184	0.99087
2824.13494	0.99128
2822.07803	0.99143
2820.02112	0.99104
2817.96421	0.99067
2815.90730	0.99070
2813.85039	0.99091
2811.79349	0.99131
2809.73658	0.99168
2807.67967	0.99161
2805.62276	0.99146
2803.56585	0.99183
2801.50895	0.99238
2799.45204	0.99239
2797.39513	0.99187
2795.33822	0.99151
2793.28131	0.99165
2791.22440	0.99196
2789.16750	0.99227
2787.11059	0.99240
2785.05368	0.99225
2782.99677	0.99216
2780.93986	0.99222
2778.88296	0.99221
2776.82605	0.99223
2774.76914	0.99235
2772.71223	0.99255
2770.65532	0.99275
2768.59841	0.99260
2766.54151	0.99229
2764.48460	0.99216
2762.42769	0.99220
2760.37078	0.99239
2758.31387	0.99252
2756.25697	0.99257
2754.20006	0.99262
2752.14315	0.99257
2750.08624	0.99242
2748.02933	0.99246
2745.97242	0.99272
2743.91552	0.99292
2741.85861	0.99296
2739.80170	0.99287
2737.74479	0.99261
2735.68788	0.99241
2733.63098	0.99245
2731.57407	0.99259
2729.51716	0.99270
2727.46025	0.99281
2725.40334	0.99276
2723.34643	0.99240
2721.28953	0.99238
2719.23262	0.99285
2717.17571	0.99310
2715.11880	0.99288
2713.06189	0.99252
2711.00499	0.99243
2708.94808	0.99252
2706.89117	0.99245
2704.83426	0.99242
2702.77735	0.99256
2700.72044	0.99260
2698.66354	0.99263
2696.60663	0.99285
2694.54972	0.99308
2692.49281	0.99303
2690.43590	0.99279
2688.37900	0.99266
2686.32209	0.99268
2684.26518	0.99290
2682.20827	0.99330
2680.15136	0.99341
2678.09445	0.99293
2676.03755	0.99244
2673.98064	0.99245
2671.92373	0.99280
2669.86682	0.99311
2667.80991	0.99304
2665.75301	0.99274
2663.69610	0.99277
2661.63919	0.99311
2659.58228	0.99331
2657.52537	0.99309
2655.46846	0.99249
2653.41156	0.99200
2651.35465	0.99197
2649.29774	0.99224
2647.24083	0.99250
2645.18392	0.99242
2643.12702	0.99217
2641.07011	0.99217
2639.01320	0.99249
2636.95629	0.99289
2634.89938	0.99291
2632.84247	0.99260
2630.78557	0.99246
2628.72866	0.99268
2626.67175	0.99295
2624.61484	0.99292
2622.55793	0.99291
2620.50103	0.99320
2618.44412	0.99344
2616.38721	0.99340
2614.33030	0.99327
2612.27339	0.99349
2610.21648	0.99394
2608.15958	0.99395
2606.10267	0.99366
2604.04576	0.99362
2601.98885	0.99366
2599.93194	0.99355
2597.87504	0.99333
2595.81813	0.99323
2593.76122	0.99369
2591.70431	0.99432
2589.64740	0.99451
2587.59049	0.99444
2585.53359	0.99457
2583.47668	0.99498
2581.41977	0.99522
2579.36286	0.99497
2577.30595	0.99479
2575.24905	0.99491
2573.19214	0.99462
2571.13523	0.99380
2569.07832	0.99347
2567.02141	0.99388
2564.96450	0.99399
2562.90760	0.99359
2560.85069	0.99343
2558.79378	0.99378
2556.73687	0.99395
2554.67996	0.99389
2552.62306	0.99452
2550.56615	0.99523
2548.50924	0.99514
2546.45233	0.99471
2544.39542	0.99423
2542.33851	0.99388
2540.28161	0.99382
2538.22470	0.99364
2536.16779	0.99347
2534.11088	0.99361
2532.05397	0.99364
2529.99707	0.99361
2527.94016	0.99399
2525.88325	0.99460
2523.82634	0.99503
2521.76943	0.99506
2519.71252	0.99446
2517.65562	0.99371
2515.59871	0.99384
2513.54180	0.99466
2511.48489	0.99508
2509.42798	0.99501
2507.37108	0.99505
2505.31417	0.99511
2503.25726	0.99473
2501.20035	0.99417
2499.14344	0.99393
2497.08653	0.99386
2495.02963	0.99392
2492.97272	0.99432
2490.91581	0.99482
2488.85890	0.99520
2486.80199	0.99515
2484.74509	0.99428
2482.68818	0.99325
2480.63127	0.99322
2478.57436	0.99373
2476.51745	0.99416
2474.46054	0.99470
2472.40364	0.99503
2470.34673	0.99472
2468.28982	0.99416
2466.23291	0.99396
2464.17600	0.99421
2462.11910	0.99485
2460.06219	0.99554
2458.00528	0.99574
2455.94837	0.99520
2453.89146	0.99434
2451.83455	0.99418
2449.77765	0.99501
2447.72074	0.99559
2445.66383	0.99545
2443.60692	0.99549
2441.55001	0.99563
2439.49311	0.99550
2437.43620	0.99526
2435.37929	0.99533
2433.32238	0.99566
2431.26547	0.99548
2429.20856	0.99491
2427.15166	0.99425
2425.09475	0.99367
2423.03784	0.99380
2420.98093	0.99444
2418.92402	0.99471
2416.86712	0.99450
2414.81021	0.99429
2412.75330	0.99426
2410.69639	0.99437
2408.63948	0.99473
2406.58257	0.99512
2404.52567	0.99495
2402.46876	0.99463
2400.41185	0.99465
2398.35494	0.99499
2396.29803	0.99515
2394.24113	0.99490
2392.18422	0.99466
2390.12731	0.99471
2388.07040	0.99488
2386.01349	0.99496
2383.95658	0.99497
2381.89968	0.99483
2379.84277	0.99465
2377.78586	0.99480
2375.72895	0.99487
2373.67204	0.99435
2371.61514	0.99377
2369.55823	0.99344
2367.50132	0.99368
2365.44441	0.99455
2363.38750	0.99494
2361.33059	0.99487
2359.27369	0.99470
2357.21678	0.99394
2355.15987	0.99310
2353.10296	0.99309
2351.04605	0.99370
2348.98915	0.99409
2346.93224	0.99370
2344.87533	0.99314
2342.81842	0.99381
2340.76151	0.99474
2338.70460	0.99466
2336.64770	0.99452
2334.59079	0.99468
2332.53388	0.99433
2330.47697	0.99373
2328.42006	0.99334
2326.36316	0.99328
2324.30625	0.99399
2322.24934	0.99533
2320.19243	0.99615
2318.13552	0.99557
2316.07861	0.99449
2314.02171	0.99416
2311.96480	0.99460
2309.90789	0.99508
2307.85098	0.99484
2305.79407	0.99429
2303.73717	0.99395
2301.68026	0.99353
2299.62335	0.99331
2297.56644	0.99365
2295.50953	0.99390
2293.45262	0.99382
2291.39572	0.99378
2289.33881	0.99373
2287.28190	0.99377
2285.22499	0.99448
2283.16808	0.99535
2281.11117	0.99507
2279.05427	0.99484
2276.99736	0.99607
2274.94045	0.99634
2272.88354	0.99466
2270.82663	0.99351
2268.76973	0.99339
2266.71282	0.99330
2264.65591	0.99325
2262.59900	0.99348
2260.54209	0.99367
2258.48518	0.99370
2256.42828	0.99423
2254.37137	0.99515
2252.31446	0.99557
2250.25755	0.99548
2248.20064	0.99515
2246.14374	0.99466
2244.08683	0.99407
2242.02992	0.99376
2239.97301	0.99453
2237.91610	0.99496
2235.85919	0.99390
2233.80229	0.99311
2231.74538	0.99315
2229.68847	0.99372
2227.63156	0.99469
2225.57465	0.99540
2223.51775	0.99508
2221.46084	0.99384
2219.40393	0.99361
2217.34702	0.99476
2215.29011	0.99542
2213.23320	0.99500
2211.17630	0.99534
2209.11939	0.99674
2207.06248	0.99690
2205.00557	0.99598
2202.94866	0.99606
2200.89176	0.99619
2198.83485	0.99498
2196.77794	0.99488
2194.72103	0.99542
2192.66412	0.99400
2190.60721	0.99326
2188.55031	0.99457
2186.49340	0.99543
2184.43649	0.99537
2182.37958	0.99596
2180.32267	0.99699
2178.26577	0.99746
2176.20886	0.99803
2174.15195	0.99821
2172.09504	0.99690
2170.03813	0.99467
2167.98122	0.99210
2165.92432	0.98980
2163.86741	0.98760
2161.81050	0.98710
2159.75359	0.99260
2157.69668	0.99856
2155.63978	0.99819
2153.58287	0.99662
2151.52596	0.99610
2149.46905	0.99506
2147.41214	0.99474
2145.35523	0.99521
2143.29833	0.99483
2141.24142	0.99386
2139.18451	0.99316
2137.12760	0.99331
2135.07069	0.99448
2133.01379	0.99490
2130.95688	0.99417
2128.89997	0.99384
2126.84306	0.99397
2124.78615	0.99383
2122.72924	0.99344
2120.67234	0.99379
2118.61543	0.99481
2116.55852	0.99513
2114.50161	0.99463
2112.44470	0.99369
2110.38780	0.99282
2108.33089	0.99279
2106.27398	0.99348
2104.21707	0.99406
2102.16016	0.99427
2100.10325	0.99466
2098.04635	0.99502
2095.98944	0.99482
2093.93253	0.99404
2091.87562	0.99326
2089.81871	0.99351
2087.76181	0.99458
2085.70490	0.99511
2083.64799	0.99457
2081.59108	0.99366
2079.53417	0.99333
2077.47726	0.99436
2075.42036	0.99560
2073.36345	0.99542
2071.30654	0.99513
2069.24963	0.99554
2067.19272	0.99528
2065.13582	0.99419
2063.07891	0.99399
2061.02200	0.99525
2058.96509	0.99631
2056.90818	0.99640
2054.85127	0.99582
2052.79437	0.99457
2050.73746	0.99372
2048.68055	0.99382
2046.62364	0.99319
2044.56673	0.99208
2042.50983	0.99258
2040.45292	0.99432
2038.39601	0.99578
2036.33910	0.99667
2034.28219	0.99751
2032.22528	0.99833
2030.16838	0.99844
2028.11147	0.99785
2026.05456	0.99819
2023.99765	1.00004
2021.94074	1.00114
2019.88384	1.00036
2017.82693	0.99950
2015.77002	0.99914
2013.71311	0.99855
2011.65620	0.99817
2009.59929	0.99805
2007.54239	0.99832
2005.48548	0.99875
2003.42857	0.99803
2001.37166	0.99651
1999.31475	0.99532
1997.25785	0.99521
1995.20094	0.99628
1993.14403	0.99698
1991.08712	0.99676
1989.03021	0.99729
1986.97330	0.99795
1984.91640	0.99691
1982.85949	0.99511
1980.80258	0.99535
1978.74567	0.99808
1976.68876	0.99963
1974.63186	0.99961
1972.57495	1.00006
1970.51804	0.99974
1968.46113	0.99832
1966.40422	0.99723
1964.34731	0.99736
1962.29041	0.99741
1960.23350	0.99663
1958.17659	0.99650
1956.11968	0.99660
1954.06277	0.99580
1952.00587	0.99507
1949.94896	0.99547
1947.89205	0.99605
1945.83514	0.99519
1943.77823	0.99379
1941.72132	0.99320
1939.66442	0.99317
1937.60751	0.99355
1935.55060	0.99362
1933.49369	0.99331
1931.43678	0.99378
1929.37988	0.99427
1927.32297	0.99374
1925.26606	0.99376
1923.20915	0.99482
1921.15224	0.99571
1919.09533	0.99639
1917.03843	0.99672
1914.98152	0.99622
1912.92461	0.99510
1910.86770	0.99417
1908.81079	0.99397
1906.75389	0.99456
1904.69698	0.99541
1902.64007	0.99568
1900.58316	0.99573
1898.52625	0.99592
1896.46934	0.99588
1894.41244	0.99586
1892.35553	0.99609
1890.29862	0.99610
1888.24171	0.99543
1886.18480	0.99486
1884.12790	0.99527
1882.07099	0.99572
1880.01408	0.99571
1877.95717	0.99561
1875.90026	0.99540
1873.84335	0.99501
1871.78645	0.99466
1869.72954	0.99486
1867.67263	0.99485
1865.61572	0.99416
1863.55881	0.99394
1861.50191	0.99411
1859.44500	0.99411
1857.38809	0.99450
1855.33118	0.99505
1853.27427	0.99531
1851.21736	0.99537
1849.16046	0.99521
1847.10355	0.99481
1845.04664	0.99432
1842.98973	0.99420
1840.93282	0.99424
1838.87592	0.99399
1836.81901	0.99340
1834.76210	0.99315
1832.70519	0.99307
1830.64828	0.99242
1828.59137	0.99177
1826.53447	0.99171
1824.47756	0.99166
1822.42065	0.99160
1820.36374	0.99179
1818.30683	0.99173
1816.24993	0.99135
1814.19302	0.99096
1812.13611	0.99059
1810.07920	0.99002
1808.02229	0.98927
1805.96538	0.98857
1803.90848	0.98808
1801.85157	0.98758
1799.79466	0.98717
1797.73775	0.98696
1795.68084	0.98655
1793.62394	0.98589
1791.56703	0.98455
1789.51012	0.98275
1787.45321	0.98109
1785.39630	0.97939
1783.33939	0.97756
1781.28249	0.97553
1779.22558	0.97236
1777.16867	0.96833
1775.11176	0.96403
1773.05485	0.95780
1770.99795	0.94843
1768.94104	0.93766
1766.88413	0.92513
1764.82722	0.91065
1762.77031	0.89263
1760.71340	0.87153
1758.65650	0.85293
1756.59959	0.83558
1754.54268	0.82012
1752.48577	0.80694
1750.42886	0.79279
1748.37196	0.77958
1746.31505	0.77021
1744.25814	0.76350
1742.20123	0.75878
1740.14432	0.75622
1738.08741	0.75649
1736.03051	0.75983
1733.97360	0.76640
1731.91669	0.77545
1729.85978	0.78569
1727.80287	0.79761
1725.74597	0.81067
1723.68906	0.82503
1721.63215	0.83901
1719.57524	0.85258
1717.51833	0.86935
1715.46142	0.88690
1713.40452	0.90050
1711.34761	0.91184
1709.29070	0.92195
1707.23379	0.93109
1705.17688	0.93938
1703.11998	0.94605
1701.06307	0.95206
1699.00616	0.95771
1696.94925	0.96204
1694.89234	0.96593
1692.83543	0.96852
1690.77853	0.97033
1688.72162	0.97221
1686.66471	0.97368
1684.60780	0.97502
1682.55089	0.97628
1680.49399	0.97707
1678.43708	0.97768
1676.38017	0.97850
1674.32326	0.97943
1672.26635	0.97985
1670.20944	0.98000
1668.15254	0.98025
1666.09563	0.98053
1664.03872	0.98072
1661.98181	0.98082
1659.92490	0.98085
1657.86800	0.98095
1655.81109	0.98123
1653.75418	0.98168
1651.69727	0.98183
1649.64036	0.98154
1647.58345	0.98121
1645.52655	0.98114
1643.46964	0.98117
1641.41273	0.98129
1639.35582	0.98171
1637.29891	0.98213
1635.24201	0.98238
1633.18510	0.98258
1631.12819	0.98283
1629.07128	0.98305
1627.01437	0.98331
1624.95746	0.98380
1622.90056	0.98428
1620.84365	0.98461
1618.78674	0.98490
1616.72983	0.98518
1614.67292	0.98570
1612.61602	0.98631
1610.55911	0.98679
1608.50220	0.98732
1606.44529	0.98775
1604.38838	0.98785
1602.33147	0.98797
1600.27457	0.98836
1598.21766	0.98863
1596.16075	0.98866
1594.10384	0.98879
1592.04693	0.98908
1589.99003	0.98933
1587.93312	0.98929
1585.87621	0.98918
1583.81930	0.98923
1581.76239	0.98917
1579.70548	0.98904
1577.64858	0.98916
1575.59167	0.98924
1573.53476	0.98900
1571.47785	0.98869
1569.42094	0.98865
1567.36404	0.98893
1565.30713	0.98898
1563.25022	0.98888
1561.19331	0.98923
1559.13640	0.98997
1557.07949	0.98980
1555.02259	0.98926
1552.96568	0.98893
1550.90877	0.98875
1548.85186	0.98867
1546.79495	0.98872
1544.73805	0.98896
1542.68114	0.98922
1540.62423	0.98899
1538.56732	0.98866
1536.51041	0.98865
1534.45350	0.98855
1532.39660	0.98839
1530.33969	0.98821
1528.28278	0.98807
1526.22587	0.98808
1524.16896	0.98813
1522.11206	0.98805
1520.05515	0.98778
1517.99824	0.98750
1515.94133	0.98738
1513.88442	0.98735
1511.82751	0.98730
1509.77061	0.98735
1507.71370	0.98750
1505.65679	0.98743
1503.59988	0.98713
1501.54297	0.98684
1499.48607	0.98661
1497.42916	0.98654
1495.37225	0.98643
1493.31534	0.98620
1491.25843	0.98609
1489.20152	0.98587
1487.14462	0.98524
1485.08771	0.98452
1483.03080	0.98387
1480.97389	0.98327
1478.91698	0.98278
1476.86008	0.98210
1474.80317	0.98081
1472.74626	0.97887
1470.68935	0.97697
1468.63244	0.97551
1466.57553	0.97372
1464.51863	0.97118
1462.46172	0.96895
1460.40481	0.96736
1458.34790	0.96545
1456.29099	0.96297
1454.23409	0.96120
1452.17718	0.95973
1450.12027	0.95782
1448.06336	0.95548
1446.00645	0.95316
1443.94954	0.95113
1441.89264	0.94916
1439.83573	0.94715
1437.77882	0.94508
1435.72191	0.94315
1433.66500	0.94221
1431.60810	0.94213
1429.55119	0.94267
1427.49428	0.94367
1425.43737	0.94493
1423.38046	0.94647
1421.32355	0.94807
1419.26665	0.94957
1417.20974	0.95046
1415.15283	0.95079
1413.09592	0.95116
1411.03901	0.95161
1408.98211	0.95214
1406.92520	0.95272
1404.86829	0.95302
1402.81138	0.95287
1400.75447	0.95222
1398.69756	0.95087
1396.64066	0.94852
1394.58375	0.94460
1392.52684	0.93955
1390.46993	0.93415
1388.41302	0.92722
1386.35612	0.91782
1384.29921	0.90784
1382.24230	0.89821
1380.18539	0.88840
1378.12848	0.87878
1376.07157	0.86978
1374.01467	0.86139
1371.95776	0.85529
1369.90085	0.85298
1367.84394	0.85459
1365.78703	0.86050
1363.73013	0.87144
1361.67322	0.88705
1359.61631	0.90343
1357.55940	0.91800
1355.50249	0.93025
1353.44558	0.93946
1351.38868	0.94576
1349.33177	0.94987
1347.27486	0.95238
1345.21795	0.95405
1343.16104	0.95542
1341.10414	0.95650
1339.04723	0.95716
1336.99032	0.95751
1334.93341	0.95753
1332.87650	0.95729
1330.81959	0.95693
1328.76269	0.95625
1326.70578	0.95526
1324.64887	0.95442
1322.59196	0.95388
1320.53505	0.95345
1318.47815	0.95305
1316.42124	0.95259
1314.36433	0.95228
1312.30742	0.95251
1310.25051	0.95297
1308.19360	0.95303
1306.13670	0.95267
1304.07979	0.95220
1302.02288	0.95168
1299.96597	0.95080
1297.90906	0.94938
1295.85216	0.94756
1293.79525	0.94538
1291.73834	0.94276
1289.68143	0.93974
1287.62452	0.93665
1285.56761	0.93357
1283.51071	0.92974
1281.45380	0.92487
1279.39689	0.91967
1277.33998	0.91438
1275.28307	0.90867
1273.22617	0.90229
1271.16926	0.89510
1269.11235	0.88738
1267.05544	0.87930
1264.99853	0.87060
1262.94162	0.86125
1260.88472	0.85138
1258.82781	0.84098
1256.77090	0.82990
1254.71399	0.81824
1252.65708	0.80621
1250.60018	0.79391
1248.54327	0.78141
1246.48636	0.76879
1244.42945	0.75624
1242.37254	0.74349
1240.31563	0.73046
1238.25873	0.71775
1236.20182	0.70560
1234.14491	0.69400
1232.08800	0.68329
1230.03109	0.67380
1227.97419	0.66620
1225.91728	0.66107
1223.86037	0.65860
1221.80346	0.65918
1219.74655	0.66326
1217.68964	0.67121
1215.63274	0.68341
1213.57583	0.69990
1211.51892	0.72035
1209.46201	0.74418
1207.40510	0.77018
1205.34820	0.79655
1203.29129	0.82181
1201.23438	0.84505
1199.17747	0.86545
1197.12056	0.88252
1195.06365	0.89619
1193.00675	0.90601
1190.94984	0.91212
1188.89293	0.91564
1186.83602	0.91721
1184.77911	0.91702
1182.72221	0.91519
1180.66530	0.91195
1178.60839	0.90793
1176.55148	0.90352
1174.49457	0.89892
1172.43766	0.89460
1170.38076	0.89095
1168.32385	0.88790
1166.26694	0.88556
1164.21003	0.88430
1162.15312	0.88419
1160.09622	0.88536
1158.03931	0.88790
1155.98240	0.89133
1153.92549	0.89485
1151.86858	0.89782
1149.81167	0.90015
1147.75477	0.90191
1145.69786	0.90277
1143.64095	0.90267
1141.58404	0.90161
1139.52713	0.89924
1137.47023	0.89571
1135.41332	0.89168
1133.35641	0.88754
1131.29950	0.88331
1129.24259	0.87902
1127.18568	0.87494
1125.12878	0.87120
1123.07187	0.86808
1121.01496	0.86603
1118.95805	0.86495
1116.90114	0.86440
1114.84424	0.86395
1112.78733	0.86321
1110.73042	0.86184
1108.67351	0.85982
1106.61660	0.85761
1104.55969	0.85530
1102.50279	0.85237
1100.44588	0.84887
1098.38897	0.84490
1096.33206	0.84004
1094.27515	0.83429
1092.21825	0.82787
1090.16134	0.82084
1088.10443	0.81330
1086.04752	0.80509
1083.99061	0.79635
1081.93370	0.78771
1079.87680	0.77941
1077.81989	0.77143
1075.76298	0.76389
1073.70607	0.75684
1071.64916	0.75015
1069.59226	0.74370
1067.53535	0.73753
1065.47844	0.73154
1063.42153	0.72560
1061.36462	0.71958
1059.30771	0.71319
1057.25081	0.70619
1055.19390	0.69896
1053.13699	0.69197
1051.08008	0.68525
1049.02317	0.67873
1046.96627	0.67245
1044.90936	0.66665
1042.85245	0.66123
1040.79554	0.65607
1038.73863	0.65134
1036.68172	0.64717
1034.62482	0.64391
1032.56791	0.64256
1030.51100	0.64414
1028.45409	0.64925
1026.39718	0.65812
1024.34028	0.67032
1022.28337	0.68456
1020.22646	0.69943
1018.16955	0.71440
1016.11264	0.72969
1014.05573	0.74509
1011.99883	0.76003
1009.94192	0.77421
1007.88501	0.78725
1005.82810	0.79906
1003.77119	0.81025
1001.71429	0.82096
999.65738	0.83072
997.60047	0.83942
995.54356	0.84715
993.48665	0.85386
991.42974	0.85950
989.37284	0.86421
987.31593	0.86849
985.25902	0.87273
983.20211	0.87678
981.14520	0.88061
979.08830	0.88480
977.03139	0.88981
974.97448	0.89546
972.91757	0.90146
970.86066	0.90722
968.80375	0.91236
966.74685	0.91730
964.68994	0.92178
962.63303	0.92508
960.57612	0.92708
958.51921	0.92823
956.46231	0.92945
954.40540	0.93107
952.34849	0.93233
950.29158	0.93316
948.23467	0.93439
946.17776	0.93597
944.12086	0.93722
942.06395	0.93782
940.00704	0.93807
937.95013	0.93820
935.89322	0.93781
933.83632	0.93717
931.77941	0.93636
929.72250	0.93476
927.66559	0.93259
925.60868	0.93043
923.55177	0.92830
921.49487	0.92630
919.43796	0.92456
917.38105	0.92311
915.32414	0.92186
913.26723	0.92030
911.21033	0.91824
909.15342	0.91613
907.09651	0.91468
905.03960	0.91427
902.98269	0.91445
900.92578	0.91485
898.86888	0.91605
896.81197	0.91846
894.75506	0.92138
892.69815	0.92402
890.64124	0.92640
888.58434	0.92917
886.52743	0.93224
884.47052	0.93495
882.41361	0.93731
880.35670	0.93967
878.29979	0.94230
876.24289	0.94525
874.18598	0.94860
872.12907	0.95223
870.07216	0.95563
868.01525	0.95849
865.95835	0.96099
863.90144	0.96335
861.84453	0.96536
859.78762	0.96642
857.73071	0.96639
855.67380	0.96615
853.61690	0.96647
851.55999	0.96666
849.50308	0.96594
847.44617	0.96488
845.38926	0.96405
843.33236	0.96340
841.27545	0.96267
839.21854	0.96208
837.16163	0.96193
835.10472	0.96256
833.04781	0.96443
830.99091	0.96665
828.93400	0.96844
826.87709	0.97003
824.82018	0.97146
822.76327	0.97274
820.70637	0.97394
818.64946	0.97496
816.59255	0.97542
814.53564	0.97554
812.47873	0.97580
810.42182	0.97597
808.36492	0.97566
806.30801	0.97537
804.25110	0.97586
802.19419	0.97663
800.13728	0.97705
798.08038	0.97734
796.02347	0.97772
793.96656	0.97790
791.90965	0.97769
789.85274	0.97739
787.79583	0.97741
785.73893	0.97787
783.68202	0.97843
781.62511	0.97853
779.56820	0.97800
777.51129	0.97761
775.45439	0.97790
773.39748	0.97848
771.34057	0.97867
769.28366	0.97854
767.22675	0.97853
765.16984	0.97863
763.11294	0.97886
761.05603	0.97913
758.99912	0.97881
756.94221	0.97806
754.88530	0.97781
752.82839	0.97783
750.77149	0.97752
748.71458	0.97676
746.65767	0.97626
744.60076	0.97663
742.54385	0.97692
740.48695	0.97702
738.43004	0.97754
736.37313	0.97725
734.31622	0.97583
732.25931	0.97481
730.20240	0.97427
728.14550	0.97352
726.08859	0.97223
724.03168	0.97040
721.97477	0.96894
719.91786	0.96850
717.86096	0.96805
715.80405	0.96665
713.74714	0.96519
711.69023	0.96455
709.63332	0.96441
707.57641	0.96409
705.51951	0.96313
703.46260	0.96195
701.40569	0.96169
699.34878	0.96162
697.29187	0.96012
695.23497	0.95787
693.17806	0.95590
691.12115	0.95446
689.06424	0.95371
687.00733	0.95321
684.95042	0.95253
682.89352	0.95203
680.83661	0.95224
678.77970	0.95224
676.72279	0.95161
674.66588	0.95161
672.60898	0.95237
670.55207	0.95264
668.49516	0.95202
666.43825	0.95195
664.38134	0.95243
662.32443	0.95215
660.26753	0.95123
658.21062	0.95044
656.15371	0.94929
654.09680	0.94714
652.03989	0.94444
649.98299	0.94226
647.92608	0.94042
645.86917	0.93786
643.81226	0.93530
641.75535	0.93371
639.69844	0.93214
637.64154	0.92966
635.58463	0.92733
633.52772	0.92597
631.47081	0.92477
629.41390	0.92348
627.35700	0.92225
625.30009	0.92077
623.24318	0.91904
621.18627	0.91719
619.12936	0.91529
617.07245	0.91345
615.01555	0.91044
612.95864	0.90497
610.90173	0.89760
608.84482	0.88968
606.78791	0.88239
604.73101	0.87794
602.67410	0.87770
600.61719	0.88041
598.56028	0.88550
596.50337	0.89302
594.44646	0.90094
592.38956	0.90703
590.33265	0.91147
588.27574	0.91544
586.21883	0.91883
584.16192	0.92070
582.10502	0.92196
580.04811	0.92317
577.99120	0.92258
575.93429	0.92104
573.87738	0.92011
571.82047	0.91945
569.76357	0.91913
567.70666	0.91797
565.64975	0.91532
563.59284	0.91327
561.53593	0.91284
559.47903	0.91288
557.42212	0.91299
555.36521	0.91423
553.30830	0.91682
551.25139	0.91887
549.19448	0.91937
547.13758	0.91994
545.08067	0.92062
543.02376	0.92040
540.96685	0.91987
538.90994	0.91950
536.85304	0.91942
534.79613	0.91899
532.73922	0.91797
530.68231	0.91737
528.62540	0.91771
526.56849	0.91882
524.51159	0.91929
522.45468	0.91857
520.39777	0.91858
518.34086	0.91935
516.28395	0.91891
514.22705	0.91669
512.17014	0.91342
510.11323	0.91079
508.05632	0.90988
505.99941	0.91050
503.94250	0.91112
501.88560	0.91010
499.82869	0.90796
497.77178	0.90636
495.71487	0.90552
493.65796	0.90488
491.60106	0.90429
489.54415	0.90352
487.48724	0.90422
485.43033	0.90683
483.37342	0.90693
481.31651	0.90332
479.25961	0.90057
477.20270	0.89995
475.14579	0.89936
473.08888	0.89923
471.03197	0.89930
468.97507	0.89835
466.91816	0.89700
464.86125	0.89475
462.80434	0.89153
460.74743	0.88909
458.69052	0.88871
456.63362	0.89038
454.57671	0.89259
452.51980	0.89321
450.46289	0.89203
448.40598	0.89141
446.34908	0.89162
444.29217	0.89088
442.23526	0.88989
440.17835	0.89133
438.12144	0.89567
436.06453	0.89961
434.00763	0.90030
431.95072	0.89813
429.89381	0.89630
427.83690	0.89826
425.77999	0.90091
423.72309	0.90197
421.66618	0.90317
419.60927	0.90127
417.55236	0.89783
415.49545	0.89946
413.43854	0.90286
411.38164	0.90496
409.32473	0.90698
407.26782	0.91033
405.21091	0.91086
403.15400	0.90559
401.09710	0.89764
399.04019	0.89120
