3996.57260	0.99005
3994.51569	0.99032
3992.45878	0.99107
3990.40188	0.99148
3988.34497	0.99153
3986.28806	0.99138
3984.23115	0.99125
3982.17424	0.99151
3980.11733	0.99183
3978.06043	0.99197
3976.00352	0.99217
3973.94661	0.99236
3971.88970	0.99232
3969.83279	0.99171
3967.77589	0.99068
3965.71898	0.99029
3963.66207	0.99059
3961.60516	0.99116
3959.54825	0.99179
3957.49134	0.99175
3955.43444	0.99105
3953.37753	0.99068
3951.32062	0.99108
3949.26371	0.99157
3947.20680	0.99193
3945.14990	0.99228
3943.09299	0.99232
3941.03608	0.99240
3938.97917	0.99236
3936.92226	0.99202
3934.86535	0.99208
3932.80845	0.99236
3930.75154	0.99215
3928.69463	0.99195
3926.63772	0.99217
3924.58081	0.99224
3922.52391	0.99216
3920.46700	0.99211
3918.41009	0.99195
3916.35318	0.99144
3914.29627	0.99075
3912.23936	0.99068
3910.18246	0.99105
3908.12555	0.99134
3906.06864	0.99193
3904.01173	0.99262
3901.95482	0.99262
3899.89792	0.99165
3897.84101	0.99086
3895.78410	0.99111
3893.72719	0.99178
3891.67028	0.99212
3889.61337	0.99182
3887.55647	0.99133
3885.49956	0.99088
3883.44265	0.99033
3881.38574	0.99007
3879.32883	0.99063
3877.27193	0.99145
3875.21502	0.99188
3873.15811	0.99140
3871.10120	0.99054
3869.04429	0.99057
3866.98738	0.99084
3864.93048	0.99088
3862.87357	0.99091
3860.81666	0.99099
3858.75975	0.99168
3856.70284	0.99243
3854.64594	0.99194
3852.58903	0.99080
3850.53212	0.99112
3848.47521	0.99199
3846.41830	0.99261
3844.36139	0.99321
3842.30449	0.99354
3840.24758	0.99258
3838.19067	0.99096
3836.13376	0.99030
3834.07685	0.99025
3832.01995	0.99044
3829.96304	0.99133
3827.90613	0.99208
3825.84922	0.99146
3823.79231	0.99043
3821.73540	0.99057
3819.67850	0.99121
3817.62159	0.99140
3815.56468	0.99147
3813.50777	0.99150
3811.45086	0.99170
3809.39396	0.99185
3807.33705	0.99156
3805.28014	0.99102
3803.22323	0.99045
3801.16632	0.99007
3799.10941	0.99040
3797.05251	0.99155
3794.99560	0.99285
3792.93869	0.99315
3790.88178	0.99264
3788.82487	0.99213
3786.76796	0.99174
3784.71106	0.99146
3782.65415	0.99114
3780.59724	0.99075
3778.54033	0.99083
3776.48342	0.99160
3774.42652	0.99227
3772.36961	0.99238
3770.31270	0.99222
3768.25579	0.99204
3766.19888	0.99206
3764.14197	0.99201
3762.08507	0.99165
3760.02816	0.99146
3757.97125	0.99145
3755.91434	0.99140
3753.85743	0.99134
3751.80053	0.99099
3749.74362	0.99023
3747.68671	0.98985
3745.62980	0.99041
3743.57289	0.99168
3741.51598	0.99232
3739.45908	0.99225
3737.40217	0.99173
3735.34526	0.99090
3733.28835	0.99095
3731.23144	0.99149
3729.17454	0.99184
3727.11763	0.99227
3725.06072	0.99264
3723.00381	0.99310
3720.94690	0.99352
3718.88999	0.99312
3716.83309	0.99262
3714.77618	0.99303
3712.71927	0.99375
3710.66236	0.99386
3708.60545	0.99331
3706.54855	0.99272
3704.49164	0.99289
3702.43473	0.99298
3700.37782	0.99223
3698.32091	0.99199
3696.26400	0.99265
3694.20710	0.99314
3692.15019	0.99270
3690.09328	0.99219
3688.03637	0.99266
3685.97946	0.99268
3683.92256	0.99204
3681.86565	0.99194
3679.80874	0.99258
3677.75183	0.99343
3675.69492	0.99371
3673.63801	0.99310
3671.58111	0.99277
3669.52420	0.99247
3667.46729	0.99176
3665.41038	0.99151
3663.35347	0.99118
3661.29657	0.99048
3659.23966	0.99062
3657.18275	0.99152
3655.12584	0.99199
3653.06893	0.99219
3651.01202	0.99237
3648.95512	0.99226
3646.89821	0.99217
3644.84130	0.99164
3642.78439	0.99066
3640.72748	0.99036
3638.67058	0.99092
3636.61367	0.99135
3634.55676	0.99124
3632.49985	0.99096
3630.44294	0.99074
3628.38603	0.99016
3626.32913	0.99019
3624.27222	0.99148
3622.21531	0.99244
3620.15840	0.99179
3618.10149	0.99091
3616.04459	0.99086
3613.98768	0.99023
3611.93077	0.98942
3609.87386	0.98980
3607.81695	0.99077
3605.76004	0.99119
3603.70314	0.99103
3601.64623	0.99088
3599.58932	0.99090
3597.53241	0.99050
3595.47550	0.98980
3593.41860	0.98952
3591.36169	0.98964
3589.30478	0.98964
3587.24787	0.98903
3585.19096	0.98864
3583.13405	0.98898
3581.07715	0.98881
3579.02024	0.98820
3576.96333	0.98820
3574.90642	0.98863
3572.84951	0.98922
3570.79261	0.98965
3568.73570	0.98925
3566.67879	0.98864
3564.62188	0.98849
3562.56497	0.98816
3560.50806	0.98784
3558.45116	0.98802
3556.39425	0.98820
3554.33734	0.98756
3552.28043	0.98685
3550.22352	0.98715
3548.16662	0.98744
3546.10971	0.98724
3544.05280	0.98743
3541.99589	0.98774
3539.93898	0.98752
3537.88207	0.98706
3535.82517	0.98650
3533.76826	0.98555
3531.71135	0.98462
3529.65444	0.98449
3527.59753	0.98490
3525.54063	0.98517
3523.48372	0.98477
3521.42681	0.98377
3519.36990	0.98288
3517.31299	0.98229
3515.25608	0.98207
3513.19918	0.98252
3511.14227	0.98321
3509.08536	0.98355
3507.02845	0.98372
3504.97154	0.98375
3502.91464	0.98328
3500.85773	0.98245
3498.80082	0.98204
3496.74391	0.98247
3494.68700	0.98271
3492.63009	0.98207
3490.57319	0.98153
3488.51628	0.98132
3486.45937	0.98113
3484.40246	0.98085
3482.34555	0.98017
3480.28865	0.97968
3478.23174	0.97983
3476.17483	0.97988
3474.11792	0.97965
3472.06101	0.97969
3470.00410	0.98000
3467.94720	0.98011
3465.89029	0.97975
3463.83338	0.97913
3461.77647	0.97925
3459.71956	0.98013
3457.66266	0.98033
3455.60575	0.97980
3453.54884	0.97911
3451.49193	0.97838
3449.43502	0.97803
3447.37811	0.97794
3445.32121	0.97822
3443.26430	0.97886
3441.20739	0.97921
3439.15048	0.97886
3437.09357	0.97787
3435.03667	0.97716
3432.97976	0.97733
3430.92285	0.97755
3428.86594	0.97754
3426.80903	0.97780
3424.75212	0.97811
3422.69522	0.97842
3420.63831	0.97849
3418.58140	0.97808
3416.52449	0.97805
3414.46758	0.97832
3412.41068	0.97825
3410.35377	0.97806
3408.29686	0.97772
3406.23995	0.97742
3404.18304	0.97747
3402.12613	0.97743
3400.06923	0.97709
3398.01232	0.97645
3395.95541	0.97624
3393.89850	0.97663
3391.84159	0.97670
3389.78469	0.97684
3387.72778	0.97754
3385.67087	0.97784
3383.61396	0.97691
3381.55705	0.97591
3379.50014	0.97600
3377.44324	0.97657
3375.38633	0.97726
3373.32942	0.97781
3371.27251	0.97775
3369.21560	0.97741
3367.15870	0.97732
3365.10179	0.97761
3363.04488	0.97758
3360.98797	0.97712
3358.93106	0.97689
3356.87415	0.97723
3354.81725	0.97780
3352.76034	0.97774
3350.70343	0.97739
3348.64652	0.97766
3346.58961	0.97833
3344.53271	0.97881
3342.47580	0.97870
3340.41889	0.97809
3338.36198	0.97777
3336.30507	0.97820
3334.24816	0.97871
3332.19126	0.97881
3330.13435	0.97872
3328.07744	0.97867
3326.02053	0.97853
3323.96362	0.97808
3321.90672	0.97777
3319.84981	0.97845
3317.79290	0.97982
3315.73599	0.98029
3313.67908	0.97961
3311.62217	0.97924
3309.56527	0.97918
3307.50836	0.97882
3305.45145	0.97864
3303.39454	0.97886
3301.33763	0.97901
3299.28073	0.97897
3297.22382	0.97879
3295.16691	0.97859
3293.11000	0.97861
3291.05309	0.97894
3288.99618	0.97956
3286.93928	0.98009
3284.88237	0.98024
3282.82546	0.98053
3280.76855	0.98054
3278.71164	0.97993
3276.65474	0.97962
3274.59783	0.97983
3272.54092	0.97995
3270.48401	0.97971
3268.42710	0.97946
3266.37019	0.97978
3264.31329	0.98045
3262.25638	0.98073
3260.19947	0.98051
3258.14256	0.98040
3256.08565	0.98060
3254.02875	0.98046
3251.97184	0.98031
3249.91493	0.98059
3247.85802	0.98083
3245.80111	0.98112
3243.74420	0.98144
3241.68730	0.98145
3239.63039	0.98137
3237.57348	0.98137
3235.51657	0.98106
3233.45966	0.98054
3231.40276	0.98087
3229.34585	0.98187
3227.28894	0.98239
3225.23203	0.98240
3223.17512	0.98238
3221.11821	0.98227
3219.06131	0.98195
3217.00440	0.98177
3214.94749	0.98187
3212.89058	0.98203
3210.83367	0.98244
3208.77677	0.98282
3206.71986	0.98261
3204.66295	0.98241
3202.60604	0.98266
3200.54913	0.98322
3198.49222	0.98386
3196.43532	0.98404
3194.37841	0.98395
3192.32150	0.98408
3190.26459	0.98396
3188.20768	0.98337
3186.15078	0.98285
3184.09387	0.98287
3182.03696	0.98325
3179.98005	0.98362
3177.92314	0.98411
3175.86623	0.98456
3173.80933	0.98465
3171.75242	0.98453
3169.69551	0.98468
3167.63860	0.98504
3165.58169	0.98503
3163.52479	0.98475
3161.46788	0.98455
3159.41097	0.98448
3157.35406	0.98466
3155.29715	0.98480
3153.24024	0.98444
3151.18334	0.98414
3149.12643	0.98435
3147.06952	0.98440
3145.01261	0.98435
3142.95570	0.98464
3140.89880	0.98480
3138.84189	0.98471
3136.78498	0.98451
3134.72807	0.98416
3132.67116	0.98409
3130.61425	0.98443
3128.55735	0.98477
3126.50044	0.98514
3124.44353	0.98574
3122.38662	0.98612
3120.32971	0.98596
3118.27281	0.98591
3116.21590	0.98611
3114.15899	0.98605
3112.10208	0.98598
3110.04517	0.98634
3107.98826	0.98657
3105.93136	0.98624
3103.87445	0.98594
3101.81754	0.98603
3099.76063	0.98612
3097.70372	0.98607
3095.64682	0.98610
3093.58991	0.98610
3091.53300	0.98597
3089.47609	0.98582
3087.41918	0.98609
3085.36227	0.98655
3083.30537	0.98662
3081.24846	0.98672
3079.19155	0.98670
3077.13464	0.98624
3075.07773	0.98617
3073.02083	0.98664
3070.96392	0.98695
3068.90701	0.98706
3066.85010	0.98715
3064.79319	0.98706
3062.73628	0.98699
3060.67938	0.98721
3058.62247	0.98736
3056.56556	0.98750
3054.50865	0.98784
3052.45174	0.98791
3050.39484	0.98774
3048.33793	0.98789
3046.28102	0.98809
3044.22411	0.98782
3042.16720	0.98752
3040.11029	0.98761
3038.05339	0.98745
3035.99648	0.98720
3033.93957	0.98748
3031.88266	0.98771
3029.82575	0.98752
3027.76885	0.98752
3025.71194	0.98773
3023.65503	0.98747
3021.59812	0.98681
3019.54121	0.98657
3017.48430	0.98707
3015.42740	0.98771
3013.37049	0.98800
3011.31358	0.98815
3009.25667	0.98823
3007.19976	0.98806
3005.14286	0.98797
3003.08595	0.98782
3001.02904	0.98737
2998.97213	0.98702
2996.91522	0.98709
2994.85831	0.98745
2992.80141	0.98758
2990.74450	0.98735
2988.68759	0.98714
2986.63068	0.98726
2984.57377	0.98767
2982.51687	0.98798
2980.45996	0.98785
2978.40305	0.98760
2976.34614	0.98740
2974.28923	0.98673
2972.23232	0.98591
2970.17542	0.98585
2968.11851	0.98647
2966.06160	0.98700
2964.00469	0.98701
2961.94778	0.98670
2959.89088	0.98639
2957.83397	0.98606
2955.77706	0.98556
2953.72015	0.98526
2951.66324	0.98560
2949.60633	0.98607
2947.54943	0.98587
2945.49252	0.98528
2943.43561	0.98477
2941.37870	0.98437
2939.32179	0.98445
2937.26489	0.98464
2935.20798	0.98424
2933.15107	0.98386
2931.09416	0.98406
2929.03725	0.98430
2926.98034	0.98385
2924.92344	0.98295
2922.86653	0.98269
2920.80962	0.98326
2918.75271	0.98362
2916.69580	0.98354
2914.63890	0.98354
2912.58199	0.98342
2910.52508	0.98302
2908.46817	0.98277
2906.41126	0.98311
2904.35435	0.98360
2902.29745	0.98343
2900.24054	0.98307
2898.18363	0.98302
2896.12672	0.98317
2894.06981	0.98335
2892.01291	0.98323
2889.95600	0.98289
2887.89909	0.98257
2885.84218	0.98245
2883.78527	0.98248
2881.72836	0.98261
2879.67146	0.98284
2877.61455	0.98309
2875.55764	0.98339
2873.50073	0.98366
2871.44382	0.98383
2869.38692	0.98379
2867.33001	0.98349
2865.27310	0.98343
2863.21619	0.98377
2861.15928	0.98414
2859.10237	0.98418
2857.04547	0.98418
2854.98856	0.98437
2852.93165	0.98433
2850.87474	0.98407
2848.81783	0.98417
2846.76093	0.98479
2844.70402	0.98529
2842.64711	0.98541
2840.59020	0.98570
2838.53329	0.98595
2836.47638	0.98567
2834.41948	0.98522
2832.36257	0.98501
2830.30566	0.98522
2828.24875	0.98567
2826.19184	0.98593
2824.13494	0.98620
2822.07803	0.98665
2820.02112	0.98683
2817.96421	0.98665
2815.90730	0.98633
2813.85039	0.98610
2811.79349	0.98632
2809.73658	0.98668
2807.67967	0.98663
2805.62276	0.98632
2803.56585	0.98643
2801.50895	0.98701
2799.45204	0.98727
2797.39513	0.98702
2795.33822	0.98681
2793.28131	0.98685
2791.22440	0.98694
2789.16750	0.98717
2787.11059	0.98736
2785.05368	0.98724
2782.99677	0.98697
2780.93986	0.98691
2778.88296	0.98709
2776.82605	0.98716
2774.76914	0.98721
2772.71223	0.98723
2770.65532	0.98699
2768.59841	0.98670
2766.54151	0.98664
2764.48460	0.98686
2762.42769	0.98715
2760.37078	0.98734
2758.31387	0.98759
2756.25697	0.98777
2754.20006	0.98777
2752.14315	0.98783
2750.08624	0.98804
2748.02933	0.98828
2745.97242	0.98827
2743.91552	0.98798
2741.85861	0.98766
2739.80170	0.98739
2737.74479	0.98728
2735.68788	0.98718
2733.63098	0.98715
2731.57407	0.98753
2729.51716	0.98769
2727.46025	0.98733
2725.40334	0.98695
2723.34643	0.98695
2721.28953	0.98732
2719.23262	0.98762
2717.17571	0.98770
2715.11880	0.98782
2713.06189	0.98815
2711.00499	0.98832
2708.94808	0.98821
2706.89117	0.98825
2704.83426	0.98838
2702.77735	0.98831
2700.72044	0.98815
2698.66354	0.98784
2696.60663	0.98752
2694.54972	0.98760
2692.49281	0.98781
2690.43590	0.98766
2688.37900	0.98734
2686.32209	0.98733
2684.26518	0.98754
2682.20827	0.98776
2680.15136	0.98803
2678.09445	0.98826
2676.03755	0.98831
2673.98064	0.98820
2671.92373	0.98801
2669.86682	0.98789
2667.80991	0.98793
2665.75301	0.98786
2663.69610	0.98745
2661.63919	0.98726
2659.58228	0.98777
2657.52537	0.98831
2655.46846	0.98819
2653.41156	0.98767
2651.35465	0.98714
2649.29774	0.98684
2647.24083	0.98700
2645.18392	0.98746
2643.12702	0.98795
2641.07011	0.98824
2639.01320	0.98815
2636.95629	0.98796
2634.89938	0.98791
2632.84247	0.98777
2630.78557	0.98754
2628.72866	0.98766
2626.67175	0.98826
2624.61484	0.98862
2622.55793	0.98847
2620.50103	0.98841
2618.44412	0.98840
2616.38721	0.98809
2614.33030	0.98779
2612.27339	0.98786
2610.21648	0.98818
2608.15958	0.98852
2606.10267	0.98887
2604.04576	0.98921
2601.98885	0.98922
2599.93194	0.98899
2597.87504	0.98894
2595.81813	0.98900
2593.76122	0.98878
2591.70431	0.98840
2589.64740	0.98833
2587.59049	0.98872
2585.53359	0.98887
2583.47668	0.98838
2581.41977	0.98798
2579.36286	0.98802
2577.30595	0.98833
2575.24905	0.98869
2573.19214	0.98889
2571.13523	0.98898
2569.07832	0.98901
2567.02141	0.98889
2564.96450	0.98856
2562.90760	0.98852
2560.85069	0.98901
2558.79378	0.98942
2556.73687	0.98938
2554.67996	0.98908
2552.62306	0.98861
2550.56615	0.98825
2548.50924	0.98854
2546.45233	0.98938
2544.39542	0.98998
2542.33851	0.98977
2540.28161	0.98919
2538.22470	0.98902
2536.16779	0.98893
2534.11088	0.98871
2532.05397	0.98901
2529.99707	0.98950
2527.94016	0.98955
2525.88325	0.98947
2523.82634	0.98954
2521.76943	0.98932
2519.71252	0.98886
2517.65562	0.98888
2515.59871	0.98928
2513.54180	0.98942
2511.48489	0.98943
2509.42798	0.98958
2507.37108	0.98954
2505.31417	0.98903
2503.25726	0.98845
2501.20035	0.98823
2499.14344	0.98868
2497.08653	0.98969
2495.02963	0.99038
2492.97272	0.99026
2490.91581	0.99004
2488.85890	0.98991
2486.80199	0.98921
2484.74509	0.98846
2482.68818	0.98879
2480.63127	0.98964
2478.57436	0.99009
2476.51745	0.99013
2474.46054	0.98981
2472.40364	0.98946
2470.34673	0.98991
2468.28982	0.99083
2466.23291	0.99080
2464.17600	0.99021
2462.11910	0.99028
2460.06219	0.99026
2458.00528	0.98957
2455.94837	0.98918
2453.89146	0.98912
2451.83455	0.98882
2449.77765	0.98856
2447.72074	0.98884
2445.66383	0.98965
2443.60692	0.99028
2441.55001	0.98980
2439.49311	0.98868
2437.43620	0.98821
2435.37929	0.98866
2433.32238	0.98958
2431.26547	0.99008
2429.20856	0.98999
2427.15166	0.98982
2425.09475	0.98959
2423.03784	0.98946
2420.98093	0.98978
2418.92402	0.99011
2416.86712	0.98973
2414.81021	0.98899
2412.75330	0.98866
2410.69639	0.98882
2408.63948	0.98886
2406.58257	0.98922
2404.52567	0.98997
2402.46876	0.98999
2400.41185	0.98978
2398.35494	0.99028
2396.29803	0.99124
2394.24113	0.99185
2392.18422	0.99159
2390.12731	0.99084
2388.07040	0.99031
2386.01349	0.99000
2383.95658	0.98976
2381.89968	0.98992
2379.84277	0.99030
2377.78586	0.99022
2375.72895	0.98967
2373.67204	0.98945
2371.61514	0.98981
2369.55823	0.98997
2367.50132	0.99018
2365.44441	0.99074
2363.38750	0.99021
2361.33059	0.98874
2359.27369	0.98890
2357.21678	0.99017
2355.15987	0.99016
2353.10296	0.98999
2351.04605	0.99054
2348.98915	0.99087
2346.93224	0.99099
2344.87533	0.99097
2342.81842	0.99050
2340.76151	0.99043
2338.70460	0.99090
2336.64770	0.99036
2334.59079	0.98912
2332.53388	0.98850
2330.47697	0.98839
2328.42006	0.98835
2326.36316	0.98825
2324.30625	0.98829
2322.24934	0.98844
2320.19243	0.98824
2318.13552	0.98806
2316.07861	0.98848
2314.02171	0.98924
2311.96480	0.98978
2309.90789	0.98962
2307.85098	0.98926
2305.79407	0.98940
2303.73717	0.98952
2301.68026	0.98928
2299.62335	0.98938
2297.56644	0.98949
2295.50953	0.98897
2293.45262	0.98857
2291.39572	0.98879
2289.33881	0.98947
2287.28190	0.98959
2285.22499	0.98858
2283.16808	0.98791
2281.11117	0.98844
2279.05427	0.98925
2276.99736	0.98945
2274.94045	0.98925
2272.88354	0.98938
2270.82663	0.98937
2268.76973	0.98951
2266.71282	0.99099
2264.65591	0.99237
2262.59900	0.99254
2260.54209	0.99238
2258.48518	0.99192
2256.42828	0.99105
2254.37137	0.99018
2252.31446	0.98948
2250.25755	0.98918
2248.20064	0.98982
2246.14374	0.99122
2244.08683	0.99206
2242.02992	0.99091
2239.97301	0.98887
2237.91610	0.98906
2235.85919	0.99084
2233.80229	0.99118
2231.74538	0.99056
2229.68847	0.99096
2227.63156	0.99276
2225.57465	0.99457
2223.51775	0.99469
2221.46084	0.99416
2219.40393	0.99418
2217.34702	0.99379
2215.29011	0.99279
2213.23320	0.99164
2211.17630	0.99094
2209.11939	0.99175
2207.06248	0.99315
2205.00557	0.99410
2202.94866	0.99423
2200.89176	0.99251
2198.83485	0.99041
2196.77794	0.98916
2194.72103	0.98877
2192.66412	0.98969
2190.60721	0.99075
2188.55031	0.99187
2186.49340	0.99447
2184.43649	0.99675
2182.37958	0.99487
2180.32267	0.98982
2178.26577	0.98677
2176.20886	0.98798
2174.15195	0.99024
2172.09504	0.99051
2170.03813	0.99099
2167.98122	0.99163
2165.92432	0.99059
2163.86741	0.99017
2161.81050	0.99096
2159.75359	0.99221
2157.69668	0.99331
2155.63978	0.99335
2153.58287	0.99379
2151.52596	0.99408
2149.46905	0.99321
2147.41214	0.99292
2145.35523	0.99346
2143.29833	0.99381
2141.24142	0.99346
2139.18451	0.99241
2137.12760	0.99198
2135.07069	0.99282
2133.01379	0.99442
2130.95688	0.99545
2128.89997	0.99466
2126.84306	0.99283
2124.78615	0.99185
2122.72924	0.99235
2120.67234	0.99256
2118.61543	0.99138
2116.55852	0.99080
2114.50161	0.99143
2112.44470	0.99169
2110.38780	0.99128
2108.33089	0.99068
2106.27398	0.99009
2104.21707	0.98988
2102.16016	0.99020
2100.10325	0.99027
2098.04635	0.99019
2095.98944	0.99090
2093.93253	0.99174
2091.87562	0.99237
2089.81871	0.99292
2087.76181	0.99286
2085.70490	0.99245
2083.64799	0.99165
2081.59108	0.99071
2079.53417	0.99060
2077.47726	0.99079
2075.42036	0.99048
2073.36345	0.99061
2071.30654	0.99169
2069.24963	0.99204
2067.19272	0.99130
2065.13582	0.99114
2063.07891	0.99122
2061.02200	0.99045
2058.96509	0.98945
2056.90818	0.98908
2054.85127	0.98976
2052.79437	0.99089
2050.73746	0.99134
2048.68055	0.99117
2046.62364	0.99140
2044.56673	0.99199
2042.50983	0.99242
2040.45292	0.99263
2038.39601	0.99070
2036.33910	0.98840
2034.28219	0.99083
2032.22528	0.99444
2030.16838	0.99468
2028.11147	0.99485
2026.05456	0.99546
2023.99765	0.99459
2021.94074	0.99348
2019.88384	0.99235
2017.82693	0.99143
2015.77002	0.99262
2013.71311	0.99456
2011.65620	0.99420
2009.59929	0.99199
2007.54239	0.99157
2005.48548	0.99420
2003.42857	0.99657
2001.37166	0.99717
1999.31475	0.99685
1997.25785	0.99598
1995.20094	0.99432
1993.14403	0.99288
1991.08712	0.99336
1989.03021	0.99375
1986.97330	0.99265
1984.91640	0.99199
1982.85949	0.99266
1980.80258	0.99368
1978.74567	0.99449
1976.68876	0.99552
1974.63186	0.99587
1972.57495	0.99442
1970.51804	0.99277
1968.46113	0.99239
1966.40422	0.99200
1964.34731	0.99170
1962.29041	0.99258
1960.23350	0.99377
1958.17659	0.99444
1956.11968	0.99446
1954.06277	0.99400
1952.00587	0.99349
1949.94896	0.99269
1947.89205	0.99184
1945.83514	0.99164
1943.77823	0.99228
1941.72132	0.99370
1939.66442	0.99421
1937.60751	0.99356
1935.55060	0.99341
1933.49369	0.99337
1931.43678	0.99247
1929.37988	0.99209
1927.32297	0.99280
1925.26606	0.99296
1923.20915	0.99314
1921.15224	0.99373
1919.09533	0.99333
1917.03843	0.99278
1914.98152	0.99289
1912.92461	0.99314
1910.86770	0.99315
1908.81079	0.99316
1906.75389	0.99371
1904.69698	0.99373
1902.64007	0.99289
1900.58316	0.99263
1898.52625	0.99334
1896.46934	0.99383
1894.41244	0.99354
1892.35553	0.99298
1890.29862	0.99249
1888.24171	0.99224
1886.18480	0.99206
1884.12790	0.99162
1882.07099	0.99120
1880.01408	0.99158
1877.95717	0.99259
1875.90026	0.99311
1873.84335	0.99283
1871.78645	0.99263
1869.72954	0.99304
1867.67263	0.99315
1865.61572	0.99261
1863.55881	0.99198
1861.50191	0.99118
1859.44500	0.99060
1857.38809	0.99079
1855.33118	0.99142
1853.27427	0.99200
1851.21736	0.99218
1849.16046	0.99215
1847.10355	0.99249
1845.04664	0.99248
1842.98973	0.99146
1840.93282	0.99088
1838.87592	0.99127
1836.81901	0.99183
1834.76210	0.99224
1832.70519	0.99262
1830.64828	0.99254
1828.59137	0.99212
1826.53447	0.99217
1824.47756	0.99246
1822.42065	0.99231
1820.36374	0.99180
1818.30683	0.99150
1816.24993	0.99165
1814.19302	0.99205
1812.13611	0.99237
1810.07920	0.99259
1808.02229	0.99260
1805.96538	0.99218
1803.90848	0.99163
1801.85157	0.99146
1799.79466	0.99188
1797.73775	0.99249
1795.68084	0.99296
1793.62394	0.99291
1791.56703	0.99214
1789.51012	0.99157
1787.45321	0.99136
1785.39630	0.99118
1783.33939	0.99113
1781.28249	0.99123
1779.22558	0.99132
1777.16867	0.99142
1775.11176	0.99158
1773.05485	0.99144
1770.99795	0.99055
1768.94104	0.98949
1766.88413	0.98891
1764.82722	0.98842
1762.77031	0.98738
1760.71340	0.98577
1758.65650	0.98402
1756.59959	0.98221
1754.54268	0.98065
1752.48577	0.97921
1750.42886	0.97745
1748.37196	0.97547
1746.31505	0.97373
1744.25814	0.97235
1742.20123	0.97111
1740.14432	0.96982
1738.08741	0.96874
1736.03051	0.96786
1733.97360	0.96645
1731.91669	0.96500
1729.85978	0.96466
1727.80287	0.96512
1725.74597	0.96556
1723.68906	0.96591
1721.63215	0.96658
1719.57524	0.96739
1717.51833	0.96826
1715.46142	0.96957
1713.40452	0.97117
1711.34761	0.97271
1709.29070	0.97414
1707.23379	0.97544
1705.17688	0.97662
1703.11998	0.97756
1701.06307	0.97836
1699.00616	0.97952
1696.94925	0.98076
1694.89234	0.98175
1692.83543	0.98257
1690.77853	0.98342
1688.72162	0.98421
1686.66471	0.98460
1684.60780	0.98449
1682.55089	0.98455
1680.49399	0.98498
1678.43708	0.98523
1676.38017	0.98549
1674.32326	0.98590
1672.26635	0.98606
1670.20944	0.98579
1668.15254	0.98542
1666.09563	0.98543
1664.03872	0.98567
1661.98181	0.98566
1659.92490	0.98565
1657.86800	0.98604
1655.81109	0.98649
1653.75418	0.98670
1651.69727	0.98644
1649.64036	0.98596
1647.58345	0.98534
1645.52655	0.98507
1643.46964	0.98535
1641.41273	0.98546
1639.35582	0.98522
1637.29891	0.98520
1635.24201	0.98572
1633.18510	0.98598
1631.12819	0.98579
1629.07128	0.98565
1627.01437	0.98585
1624.95746	0.98595
1622.90056	0.98585
1620.84365	0.98591
1618.78674	0.98593
1616.72983	0.98605
1614.67292	0.98651
1612.61602	0.98669
1610.55911	0.98644
1608.50220	0.98622
1606.44529	0.98629
1604.38838	0.98646
1602.33147	0.98654
1600.27457	0.98666
1598.21766	0.98698
1596.16075	0.98724
1594.10384	0.98716
1592.04693	0.98719
1589.99003	0.98748
1587.93312	0.98750
1585.87621	0.98723
1583.81930	0.98708
1581.76239	0.98726
1579.70548	0.98762
1577.64858	0.98804
1575.59167	0.98833
1573.53476	0.98807
1571.47785	0.98769
1569.42094	0.98755
1567.36404	0.98748
1565.30713	0.98745
1563.25022	0.98769
1561.19331	0.98806
1559.13640	0.98784
1557.07949	0.98728
1555.02259	0.98734
1552.96568	0.98728
1550.90877	0.98722
1548.85186	0.98752
1546.79495	0.98784
1544.73805	0.98794
1542.68114	0.98793
1540.62423	0.98749
1538.56732	0.98718
1536.51041	0.98756
1534.45350	0.98796
1532.39660	0.98792
1530.33969	0.98749
1528.28278	0.98726
1526.22587	0.98744
1524.16896	0.98761
1522.11206	0.98751
1520.05515	0.98736
1517.99824	0.98731
1515.94133	0.98734
1513.88442	0.98722
1511.82751	0.98678
1509.77061	0.98628
1507.71370	0.98601
1505.65679	0.98615
1503.59988	0.98643
1501.54297	0.98665
1499.48607	0.98674
1497.42916	0.98651
1495.37225	0.98612
1493.31534	0.98578
1491.25843	0.98543
1489.20152	0.98514
1487.14462	0.98490
1485.08771	0.98434
1483.03080	0.98368
1480.97389	0.98338
1478.91698	0.98328
1476.86008	0.98285
1474.80317	0.98228
1472.74626	0.98181
1470.68935	0.98107
1468.63244	0.98022
1466.57553	0.97943
1464.51863	0.97873
1462.46172	0.97821
1460.40481	0.97777
1458.34790	0.97724
1456.29099	0.97648
1454.23409	0.97592
1452.17718	0.97554
1450.12027	0.97514
1448.06336	0.97468
1446.00645	0.97423
1443.94954	0.97374
1441.89264	0.97309
1439.83573	0.97236
1437.77882	0.97162
1435.72191	0.97080
1433.66500	0.97003
1431.60810	0.96952
1429.55119	0.96928
1427.49428	0.96908
1425.43737	0.96876
1423.38046	0.96844
1421.32355	0.96827
1419.26665	0.96820
1417.20974	0.96794
1415.15283	0.96759
1413.09592	0.96732
1411.03901	0.96702
1408.98211	0.96679
1406.92520	0.96677
1404.86829	0.96667
1402.81138	0.96662
1400.75447	0.96684
1398.69756	0.96684
1396.64066	0.96644
1394.58375	0.96584
1392.52684	0.96519
1390.46993	0.96460
1388.41302	0.96380
1386.35612	0.96243
1384.29921	0.96091
1382.24230	0.95968
1380.18539	0.95862
1378.12848	0.95758
1376.07157	0.95671
1374.01467	0.95587
1371.95776	0.95510
1369.90085	0.95470
1367.84394	0.95497
1365.78703	0.95599
1363.73013	0.95743
1361.67322	0.95899
1359.61631	0.96041
1357.55940	0.96164
1355.50249	0.96275
1353.44558	0.96375
1351.38868	0.96446
1349.33177	0.96492
1347.27486	0.96529
1345.21795	0.96565
1343.16104	0.96608
1341.10414	0.96658
1339.04723	0.96713
1336.99032	0.96739
1334.93341	0.96731
1332.87650	0.96744
1330.81959	0.96785
1328.76269	0.96813
1326.70578	0.96831
1324.64887	0.96861
1322.59196	0.96869
1320.53505	0.96861
1318.47815	0.96874
1316.42124	0.96902
1314.36433	0.96937
1312.30742	0.96973
1310.25051	0.96985
1308.19360	0.96993
1306.13670	0.97025
1304.07979	0.97062
1302.02288	0.97077
1299.96597	0.97077
1297.90906	0.97083
1295.85216	0.97088
1293.79525	0.97080
1291.73834	0.97064
1289.68143	0.97044
1287.62452	0.97023
1285.56761	0.96996
1283.51071	0.96949
1281.45380	0.96882
1279.39689	0.96815
1277.33998	0.96744
1275.28307	0.96642
1273.22617	0.96488
1271.16926	0.96328
1269.11235	0.96209
1267.05544	0.96122
1264.99853	0.96033
1262.94162	0.95877
1260.88472	0.95672
1258.82781	0.95498
1256.77090	0.95327
1254.71399	0.95123
1252.65708	0.94921
1250.60018	0.94724
1248.54327	0.94508
1246.48636	0.94302
1244.42945	0.94142
1242.37254	0.94009
1240.31563	0.93864
1238.25873	0.93719
1236.20182	0.93608
1234.14491	0.93520
1232.08800	0.93451
1230.03109	0.93421
1227.97419	0.93425
1225.91728	0.93455
1223.86037	0.93513
1221.80346	0.93602
1219.74655	0.93742
1217.68964	0.93931
1215.63274	0.94135
1213.57583	0.94303
1211.51892	0.94414
1209.46201	0.94490
1207.40510	0.94559
1205.34820	0.94624
1203.29129	0.94672
1201.23438	0.94690
1199.17747	0.94686
1197.12056	0.94692
1195.06365	0.94723
1193.00675	0.94767
1190.94984	0.94805
1188.89293	0.94820
1186.83602	0.94801
1184.77911	0.94745
1182.72221	0.94655
1180.66530	0.94539
1178.60839	0.94405
1176.55148	0.94260
1174.49457	0.94102
1172.43766	0.93935
1170.38076	0.93744
1168.32385	0.93517
1166.26694	0.93287
1164.21003	0.93074
1162.15312	0.92888
1160.09622	0.92729
1158.03931	0.92591
1155.98240	0.92495
1153.92549	0.92472
1151.86858	0.92482
1149.81167	0.92460
1147.75477	0.92408
1145.69786	0.92349
1143.64095	0.92300
1141.58404	0.92262
1139.52713	0.92172
1137.47023	0.92001
1135.41332	0.91815
1133.35641	0.91653
1131.29950	0.91487
1129.24259	0.91296
1127.18568	0.91073
1125.12878	0.90834
1123.07187	0.90624
1121.01496	0.90454
1118.95805	0.90296
1116.90114	0.90119
1114.84424	0.89921
1112.78733	0.89735
1110.73042	0.89570
1108.67351	0.89399
1106.61660	0.89230
1104.55969	0.89080
1102.50279	0.88941
1100.44588	0.88804
1098.38897	0.88671
1096.33206	0.88543
1094.27515	0.88401
1092.21825	0.88223
1090.16134	0.88038
1088.10443	0.87891
1086.04752	0.87764
1083.99061	0.87592
1081.93370	0.87372
1079.87680	0.87169
1077.81989	0.86985
1075.76298	0.86783
1073.70607	0.86592
1071.64916	0.86429
1069.59226	0.86258
1067.53535	0.86076
1065.47844	0.85936
1063.42153	0.85838
1061.36462	0.85756
1059.30771	0.85683
1057.25081	0.85580
1055.19390	0.85464
1053.13699	0.85367
1051.08008	0.85266
1049.02317	0.85164
1046.96627	0.85097
1044.90936	0.85063
1042.85245	0.85004
1040.79554	0.84912
1038.73863	0.84821
1036.68172	0.84739
1034.62482	0.84678
1032.56791	0.84636
1030.51100	0.84583
1028.45409	0.84539
1026.39718	0.84548
1024.34028	0.84596
1022.28337	0.84661
1020.22646	0.84747
1018.16955	0.84868
1016.11264	0.85030
1014.05573	0.85225
1011.99883	0.85431
1009.94192	0.85629
1007.88501	0.85808
1005.82810	0.85975
1003.77119	0.86124
1001.71429	0.86251
999.65738	0.86381
997.60047	0.86539
995.54356	0.86718
993.48665	0.86901
991.42974	0.87092
989.37284	0.87290
987.31593	0.87488
985.25902	0.87685
983.20211	0.87900
981.14520	0.88131
979.08830	0.88346
977.03139	0.88566
974.97448	0.88812
972.91757	0.89055
970.86066	0.89271
968.80375	0.89471
966.74685	0.89683
964.68994	0.89913
962.63303	0.90136
960.57612	0.90352
958.51921	0.90543
956.46231	0.90679
954.40540	0.90795
952.34849	0.90919
950.29158	0.91050
948.23467	0.91211
946.17776	0.91377
944.12086	0.91510
942.06395	0.91599
940.00704	0.91615
937.95013	0.91595
935.89322	0.91631
933.83632	0.91703
931.77941	0.91761
929.72250	0.91798
927.66559	0.91832
925.60868	0.91890
923.55177	0.91936
921.49487	0.91965
919.43796	0.91998
917.38105	0.91995
915.32414	0.91941
913.26723	0.91878
911.21033	0.91834
909.15342	0.91818
907.09651	0.91806
905.03960	0.91774
902.98269	0.91757
900.92578	0.91790
898.86888	0.91823
896.81197	0.91833
894.75506	0.91883
892.69815	0.91973
890.64124	0.92045
888.58434	0.92099
886.52743	0.92199
884.47052	0.92385
882.41361	0.92576
880.35670	0.92703
878.29979	0.92803
876.24289	0.92926
874.18598	0.93073
872.12907	0.93224
870.07216	0.93399
868.01525	0.93593
865.95835	0.93763
863.90144	0.93889
861.84453	0.93987
859.78762	0.94088
857.73071	0.94147
855.67380	0.94136
853.61690	0.94158
851.55999	0.94276
849.50308	0.94392
847.44617	0.94419
845.38926	0.94402
843.33236	0.94377
841.27545	0.94347
839.21854	0.94327
837.16163	0.94312
835.10472	0.94308
833.04781	0.94295
830.99091	0.94258
828.93400	0.94234
826.87709	0.94234
824.82018	0.94240
822.76327	0.94216
820.70637	0.94151
818.64946	0.94069
816.59255	0.93985
814.53564	0.93943
812.47873	0.93954
810.42182	0.93953
808.36492	0.93883
806.30801	0.93764
804.25110	0.93711
802.19419	0.93733
800.13728	0.93679
798.08038	0.93609
796.02347	0.93681
793.96656	0.93779
791.90965	0.93800
789.85274	0.93769
787.79583	0.93715
785.73893	0.93696
783.68202	0.93717
781.62511	0.93771
779.56820	0.93827
777.51129	0.93886
775.45439	0.94017
773.39748	0.94174
771.34057	0.94249
769.28366	0.94279
767.22675	0.94352
765.16984	0.94426
763.11294	0.94454
761.05603	0.94456
758.99912	0.94458
756.94221	0.94467
754.88530	0.94480
752.82839	0.94539
750.77149	0.94619
748.71458	0.94649
746.65767	0.94680
744.60076	0.94730
742.54385	0.94733
740.48695	0.94702
738.43004	0.94694
736.37313	0.94684
734.31622	0.94616
732.25931	0.94547
730.20240	0.94557
728.14550	0.94598
726.08859	0.94611
724.03168	0.94604
721.97477	0.94607
719.91786	0.94603
717.86096	0.94532
715.80405	0.94441
713.74714	0.94374
711.69023	0.94291
709.63332	0.94257
707.57641	0.94324
705.51951	0.94367
703.46260	0.94317
701.40569	0.94251
699.34878	0.94199
697.29187	0.94136
695.23497	0.94072
693.17806	0.94066
691.12115	0.94097
689.06424	0.94055
687.00733	0.93975
684.95042	0.93951
682.89352	0.93920
680.83661	0.93818
678.77970	0.93729
676.72279	0.93716
674.66588	0.93688
672.60898	0.93597
670.55207	0.93521
668.49516	0.93506
666.43825	0.93478
664.38134	0.93465
662.32443	0.93514
660.26753	0.93554
658.21062	0.93551
656.15371	0.93593
654.09680	0.93691
652.03989	0.93715
649.98299	0.93634
647.92608	0.93566
645.86917	0.93541
643.81226	0.93524
641.75535	0.93530
639.69844	0.93575
637.64154	0.93593
635.58463	0.93536
633.52772	0.93462
631.47081	0.93450
629.41390	0.93441
627.35700	0.93328
625.30009	0.93206
623.24318	0.93165
621.18627	0.93118
619.12936	0.93021
617.07245	0.92911
615.01555	0.92873
612.95864	0.92883
610.90173	0.92822
608.84482	0.92736
606.78791	0.92680
604.73101	0.92564
602.67410	0.92438
600.61719	0.92421
598.56028	0.92431
596.50337	0.92418
594.44646	0.92471
592.38956	0.92537
590.33265	0.92540
588.27574	0.92520
586.21883	0.92516
584.16192	0.92559
582.10502	0.92597
580.04811	0.92533
577.99120	0.92417
575.93429	0.92370
573.87738	0.92376
571.82047	0.92341
569.76357	0.92241
567.70666	0.92092
565.64975	0.91980
563.59284	0.91979
561.53593	0.91975
559.47903	0.91879
557.42212	0.91783
555.36521	0.91751
553.30830	0.91847
551.25139	0.92044
549.19448	0.92110
547.13758	0.91955
545.08067	0.91734
543.02376	0.91646
540.96685	0.91770
538.90994	0.91908
536.85304	0.91837
534.79613	0.91657
532.73922	0.91521
530.68231	0.91394
528.62540	0.91208
526.56849	0.91023
524.51159	0.90937
522.45468	0.90879
520.39777	0.90709
518.34086	0.90411
516.28395	0.90129
514.22705	0.89983
512.17014	0.89893
510.11323	0.89711
508.05632	0.89421
505.99941	0.89140
503.94250	0.88913
501.88560	0.88558
499.82869	0.88045
497.77178	0.87627
495.71487	0.87298
493.65796	0.86984
491.60106	0.86793
489.54415	0.86640
487.48724	0.86394
485.43033	0.86205
483.37342	0.86134
481.31651	0.85957
479.25961	0.85672
477.20270	0.85483
475.14579	0.85320
473.08888	0.84997
471.03197	0.84640
468.97507	0.84530
466.91816	0.84518
464.86125	0.84338
462.80434	0.83913
460.74743	0.83453
458.69052	0.83297
456.63362	0.83346
454.57671	0.83520
452.51980	0.83798
450.46289	0.83692
448.40598	0.83265
446.34908	0.83249
444.29217	0.83550
442.23526	0.83671
440.17835	0.83898
438.12144	0.84317
436.06453	0.84373
434.00763	0.84050
431.95072	0.83806
429.89381	0.83729
427.83690	0.83981
425.77999	0.84339
423.72309	0.84314
421.66618	0.84100
419.60927	0.83947
417.55236	0.84037
415.49545	0.84306
413.43854	0.84549
411.38164	0.84683
409.32473	0.84646
407.26782	0.84333
405.21091	0.83961
403.15400	0.84077
401.09710	0.84391
399.04019	0.84277
