3996.57260	0.98994
3994.51569	0.98993
3992.45878	0.98983
3990.40188	0.98988
3988.34497	0.99007
3986.28806	0.99025
3984.23115	0.98998
3982.17424	0.98951
3980.11733	0.98923
3978.06043	0.98896
3976.00352	0.98915
3973.94661	0.98968
3971.88970	0.98962
3969.83279	0.98909
3967.77589	0.98875
3965.71898	0.98919
3963.66207	0.99014
3961.60516	0.99028
3959.54825	0.98959
3957.49134	0.98927
3955.43444	0.98937
3953.37753	0.98940
3951.32062	0.98960
3949.26371	0.99012
3947.20680	0.99037
3945.14990	0.98979
3943.09299	0.98890
3941.03608	0.98854
3938.97917	0.98867
3936.92226	0.98895
3934.86535	0.98904
3932.80845	0.98895
3930.75154	0.98913
3928.69463	0.98948
3926.63772	0.98939
3924.58081	0.98895
3922.52391	0.98884
3920.46700	0.98886
3918.41009	0.98847
3916.35318	0.98821
3914.29627	0.98856
3912.23936	0.98883
3910.18246	0.98896
3908.12555	0.98939
3906.06864	0.98976
3904.01173	0.99005
3901.95482	0.99046
3899.89792	0.99038
3897.84101	0.98991
3895.78410	0.98943
3893.72719	0.98928
3891.67028	0.98951
3889.61337	0.98942
3887.55647	0.98847
3885.49956	0.98732
3883.44265	0.98729
3881.38574	0.98786
3879.32883	0.98829
3877.27193	0.98891
3875.21502	0.98947
3873.15811	0.98971
3871.10120	0.98970
3869.04429	0.98935
3866.98738	0.98881
3864.93048	0.98840
3862.87357	0.98821
3860.81666	0.98795
3858.75975	0.98783
3856.70284	0.98837
3854.64594	0.98914
3852.58903	0.98950
3850.53212	0.98986
3848.47521	0.99020
3846.41830	0.99034
3844.36139	0.99024
3842.30449	0.98969
3840.24758	0.98896
3838.19067	0.98902
3836.13376	0.98967
3834.07685	0.98964
3832.01995	0.98901
3829.96304	0.98860
3827.90613	0.98850
3825.84922	0.98841
3823.79231	0.98859
3821.73540	0.98944
3819.67850	0.99031
3817.62159	0.99017
3815.56468	0.98978
3813.50777	0.99017
3811.45086	0.99051
3809.39396	0.98984
3807.33705	0.98850
3805.28014	0.98782
3803.22323	0.98809
3801.16632	0.98873
3799.10941	0.98914
3797.05251	0.98888
3794.99560	0.98875
3792.93869	0.98933
3790.88178	0.98990
3788.82487	0.98994
3786.76796	0.98982
3784.71106	0.98988
3782.65415	0.98997
3780.59724	0.98971
3778.54033	0.98910
3776.48342	0.98902
3774.42652	0.98951
3772.36961	0.99006
3770.31270	0.99075
3768.25579	0.99156
3766.19888	0.99166
3764.14197	0.99044
3762.08507	0.98907
3760.02816	0.98889
3757.97125	0.98920
3755.91434	0.98902
3753.85743	0.98915
3751.80053	0.98968
3749.74362	0.98903
3747.68671	0.98833
3745.62980	0.98905
3743.57289	0.98954
3741.51598	0.98935
3739.45908	0.98960
3737.40217	0.98961
3735.34526	0.98947
3733.28835	0.98985
3731.23144	0.99012
3729.17454	0.99028
3727.11763	0.99028
3725.06072	0.99006
3723.00381	0.98987
3720.94690	0.98976
3718.88999	0.98972
3716.83309	0.98951
3714.77618	0.98922
3712.71927	0.98878
3710.66236	0.98822
3708.60545	0.98881
3706.54855	0.98989
3704.49164	0.99022
3702.43473	0.98997
3700.37782	0.99002
3698.32091	0.99075
3696.26400	0.99103
3694.20710	0.99043
3692.15019	0.98974
3690.09328	0.98926
3688.03637	0.98959
3685.97946	0.99045
3683.92256	0.99078
3681.86565	0.99058
3679.80874	0.99011
3677.75183	0.99001
3675.69492	0.99015
3673.63801	0.98985
3671.58111	0.98951
3669.52420	0.98906
3667.46729	0.98901
3665.41038	0.98958
3663.35347	0.99002
3661.29657	0.98983
3659.23966	0.98951
3657.18275	0.99011
3655.12584	0.99131
3653.06893	0.99174
3651.01202	0.99171
3648.95512	0.99167
3646.89821	0.99058
3644.84130	0.98905
3642.78439	0.98827
3640.72748	0.98835
3638.67058	0.98888
3636.61367	0.98925
3634.55676	0.98949
3632.49985	0.99006
3630.44294	0.99113
3628.38603	0.99148
3626.32913	0.99046
3624.27222	0.98958
3622.21531	0.98861
3620.15840	0.98711
3618.10149	0.98627
3616.04459	0.98688
3613.98768	0.98764
3611.93077	0.98785
3609.87386	0.98775
3607.81695	0.98763
3605.76004	0.98781
3603.70314	0.98750
3601.64623	0.98629
3599.58932	0.98533
3597.53241	0.98510
3595.47550	0.98514
3593.41860	0.98527
3591.36169	0.98521
3589.30478	0.98452
3587.24787	0.98327
3585.19096	0.98253
3583.13405	0.98275
3581.07715	0.98353
3579.02024	0.98379
3576.96333	0.98290
3574.90642	0.98200
3572.84951	0.98204
3570.79261	0.98206
3568.73570	0.98091
3566.67879	0.97952
3564.62188	0.97963
3562.56497	0.98041
3560.50806	0.98060
3558.45116	0.97974
3556.39425	0.97834
3554.33734	0.97782
3552.28043	0.97840
3550.22352	0.97846
3548.16662	0.97746
3546.10971	0.97666
3544.05280	0.97656
3541.99589	0.97627
3539.93898	0.97562
3537.88207	0.97496
3535.82517	0.97445
3533.76826	0.97429
3531.71135	0.97449
3529.65444	0.97437
3527.59753	0.97393
3525.54063	0.97347
3523.48372	0.97265
3521.42681	0.97179
3519.36990	0.97125
3517.31299	0.97097
3515.25608	0.97084
3513.19918	0.97049
3511.14227	0.97007
3509.08536	0.96982
3507.02845	0.96928
3504.97154	0.96813
3502.91464	0.96698
3500.85773	0.96647
3498.80082	0.96645
3496.74391	0.96612
3494.68700	0.96537
3492.63009	0.96493
3490.57319	0.96496
3488.51628	0.96508
3486.45937	0.96456
3484.40246	0.96356
3482.34555	0.96310
3480.28865	0.96301
3478.23174	0.96271
3476.17483	0.96213
3474.11792	0.96142
3472.06101	0.96069
3470.00410	0.96014
3467.94720	0.96000
3465.89029	0.96024
3463.83338	0.96028
3461.77647	0.95972
3459.71956	0.95892
3457.66266	0.95818
3455.60575	0.95770
3453.54884	0.95770
3451.49193	0.95785
3449.43502	0.95756
3447.37811	0.95694
3445.32121	0.95651
3443.26430	0.95628
3441.20739	0.95599
3439.15048	0.95586
3437.09357	0.95620
3435.03667	0.95642
3432.97976	0.95575
3430.92285	0.95470
3428.86594	0.95419
3426.80903	0.95404
3424.75212	0.95412
3422.69522	0.95471
3420.63831	0.95502
3418.58140	0.95468
3416.52449	0.95440
3414.46758	0.95412
3412.41068	0.95409
3410.35377	0.95457
3408.29686	0.95466
3406.23995	0.95406
3404.18304	0.95333
3402.12613	0.95293
3400.06923	0.95292
3398.01232	0.95313
3395.95541	0.95334
3393.89850	0.95316
3391.84159	0.95256
3389.78469	0.95245
3387.72778	0.95279
3385.67087	0.95256
3383.61396	0.95206
3381.55705	0.95209
3379.50014	0.95232
3377.44324	0.95239
3375.38633	0.95253
3373.32942	0.95295
3371.27251	0.95321
3369.21560	0.95260
3367.15870	0.95184
3365.10179	0.95205
3363.04488	0.95269
3360.98797	0.95319
3358.93106	0.95350
3356.87415	0.95324
3354.81725	0.95267
3352.76034	0.95216
3350.70343	0.95163
3348.64652	0.95173
3346.58961	0.95280
3344.53271	0.95369
3342.47580	0.95390
3340.41889	0.95406
3338.36198	0.95375
3336.30507	0.95295
3334.24816	0.95283
3332.19126	0.95335
3330.13435	0.95378
3328.07744	0.95397
3326.02053	0.95400
3323.96362	0.95413
3321.90672	0.95431
3319.84981	0.95435
3317.79290	0.95447
3315.73599	0.95455
3313.67908	0.95440
3311.62217	0.95453
3309.56527	0.95493
3307.50836	0.95508
3305.45145	0.95495
3303.39454	0.95495
3301.33763	0.95544
3299.28073	0.95587
3297.22382	0.95575
3295.16691	0.95565
3293.11000	0.95604
3291.05309	0.95649
3288.99618	0.95646
3286.93928	0.95621
3284.88237	0.95644
3282.82546	0.95711
3280.76855	0.95735
3278.71164	0.95718
3276.65474	0.95720
3274.59783	0.95731
3272.54092	0.95746
3270.48401	0.95762
3268.42710	0.95779
3266.37019	0.95810
3264.31329	0.95841
3262.25638	0.95862
3260.19947	0.95908
3258.14256	0.95969
3256.08565	0.95994
3254.02875	0.95984
3251.97184	0.95998
3249.91493	0.96041
3247.85802	0.96034
3245.80111	0.95969
3243.74420	0.95939
3241.68730	0.95975
3239.63039	0.96029
3237.57348	0.96069
3235.51657	0.96111
3233.45966	0.96124
3231.40276	0.96102
3229.34585	0.96098
3227.28894	0.96137
3225.23203	0.96210
3223.17512	0.96269
3221.11821	0.96293
3219.06131	0.96318
3217.00440	0.96373
3214.94749	0.96414
3212.89058	0.96411
3210.83367	0.96428
3208.77677	0.96487
3206.71986	0.96513
3204.66295	0.96475
3202.60604	0.96425
3200.54913	0.96425
3198.49222	0.96491
3196.43532	0.96568
3194.37841	0.96605
3192.32150	0.96609
3190.26459	0.96607
3188.20768	0.96605
3186.15078	0.96624
3184.09387	0.96668
3182.03696	0.96717
3179.98005	0.96788
3177.92314	0.96866
3175.86623	0.96895
3173.80933	0.96881
3171.75242	0.96864
3169.69551	0.96853
3167.63860	0.96871
3165.58169	0.96923
3163.52479	0.96965
3161.46788	0.96998
3159.41097	0.97067
3157.35406	0.97143
3155.29715	0.97145
3153.24024	0.97099
3151.18334	0.97096
3149.12643	0.97137
3147.06952	0.97145
3145.01261	0.97101
3142.95570	0.97075
3140.89880	0.97124
3138.84189	0.97192
3136.78498	0.97228
3134.72807	0.97248
3132.67116	0.97243
3130.61425	0.97219
3128.55735	0.97206
3126.50044	0.97231
3124.44353	0.97275
3122.38662	0.97265
3120.32971	0.97241
3118.27281	0.97287
3116.21590	0.97348
3114.15899	0.97364
3112.10208	0.97357
3110.04517	0.97363
3107.98826	0.97411
3105.93136	0.97505
3103.87445	0.97614
3101.81754	0.97664
3099.76063	0.97611
3097.70372	0.97542
3095.64682	0.97524
3093.58991	0.97520
3091.53300	0.97522
3089.47609	0.97551
3087.41918	0.97572
3085.36227	0.97570
3083.30537	0.97584
3081.24846	0.97622
3079.19155	0.97679
3077.13464	0.97729
3075.07773	0.97763
3073.02083	0.97766
3070.96392	0.97729
3068.90701	0.97671
3066.85010	0.97640
3064.79319	0.97714
3062.73628	0.97832
3060.67938	0.97869
3058.62247	0.97860
3056.56556	0.97891
3054.50865	0.97918
3052.45174	0.97876
3050.39484	0.97844
3048.33793	0.97879
3046.28102	0.97907
3044.22411	0.97890
3042.16720	0.97858
3040.11029	0.97838
3038.05339	0.97843
3035.99648	0.97867
3033.93957	0.97898
3031.88266	0.97889
3029.82575	0.97831
3027.76885	0.97829
3025.71194	0.97895
3023.65503	0.97943
3021.59812	0.97957
3019.54121	0.97968
3017.48430	0.97999
3015.42740	0.98038
3013.37049	0.98053
3011.31358	0.98054
3009.25667	0.98050
3007.19976	0.98023
3005.14286	0.98006
3003.08595	0.98024
3001.02904	0.98024
2998.97213	0.98015
2996.91522	0.98024
2994.85831	0.98013
2992.80141	0.97998
2990.74450	0.97999
2988.68759	0.97974
2986.63068	0.97928
2984.57377	0.97903
2982.51687	0.97894
2980.45996	0.97896
2978.40305	0.97918
2976.34614	0.97922
2974.28923	0.97891
2972.23232	0.97860
2970.17542	0.97818
2968.11851	0.97740
2966.06160	0.97670
2964.00469	0.97649
2961.94778	0.97661
2959.89088	0.97666
2957.83397	0.97628
2955.77706	0.97573
2953.72015	0.97540
2951.66324	0.97514
2949.60633	0.97458
2947.54943	0.97399
2945.49252	0.97363
2943.43561	0.97302
2941.37870	0.97223
2939.32179	0.97168
2937.26489	0.97142
2935.20798	0.97129
2933.15107	0.97121
2931.09416	0.97100
2929.03725	0.97043
2926.98034	0.96987
2924.92344	0.96937
2922.86653	0.96881
2920.80962	0.96882
2918.75271	0.96936
2916.69580	0.96959
2914.63890	0.96954
2912.58199	0.96960
2910.52508	0.96969
2908.46817	0.96966
2906.41126	0.96925
2904.35435	0.96840
2902.29745	0.96753
2900.24054	0.96729
2898.18363	0.96761
2896.12672	0.96767
2894.06981	0.96750
2892.01291	0.96757
2889.95600	0.96758
2887.89909	0.96730
2885.84218	0.96722
2883.78527	0.96743
2881.72836	0.96753
2879.67146	0.96755
2877.61455	0.96754
2875.55764	0.96757
2873.50073	0.96774
2871.44382	0.96780
2869.38692	0.96814
2867.33001	0.96878
2865.27310	0.96900
2863.21619	0.96907
2861.15928	0.96950
2859.10237	0.97015
2857.04547	0.97059
2854.98856	0.97084
2852.93165	0.97119
2850.87474	0.97170
2848.81783	0.97241
2846.76093	0.97293
2844.70402	0.97289
2842.64711	0.97281
2840.59020	0.97330
2838.53329	0.97425
2836.47638	0.97500
2834.41948	0.97512
2832.36257	0.97504
2830.30566	0.97527
2828.24875	0.97570
2826.19184	0.97594
2824.13494	0.97604
2822.07803	0.97633
2820.02112	0.97666
2817.96421	0.97686
2815.90730	0.97698
2813.85039	0.97699
2811.79349	0.97695
2809.73658	0.97714
2807.67967	0.97742
2805.62276	0.97745
2803.56585	0.97752
2801.50895	0.97758
2799.45204	0.97741
2797.39513	0.97734
2795.33822	0.97750
2793.28131	0.97789
2791.22440	0.97827
2789.16750	0.97845
2787.11059	0.97862
2785.05368	0.97880
2782.99677	0.97878
2780.93986	0.97870
2778.88296	0.97874
2776.82605	0.97870
2774.76914	0.97869
2772.71223	0.97888
2770.65532	0.97902
2768.59841	0.97904
2766.54151	0.97894
2764.48460	0.97885
2762.42769	0.97889
2760.37078	0.97897
2758.31387	0.97918
2756.25697	0.97947
2754.20006	0.97945
2752.14315	0.97918
2750.08624	0.97894
2748.02933	0.97892
2745.97242	0.97910
2743.91552	0.97912
2741.85861	0.97890
2739.80170	0.97887
2737.74479	0.97930
2735.68788	0.97966
2733.63098	0.97955
2731.57407	0.97931
2729.51716	0.97913
2727.46025	0.97917
2725.40334	0.97940
2723.34643	0.97935
2721.28953	0.97912
2719.23262	0.97933
2717.17571	0.97993
2715.11880	0.98026
2713.06189	0.98003
2711.00499	0.97979
2708.94808	0.97966
2706.89117	0.97950
2704.83426	0.97960
2702.77735	0.97981
2700.72044	0.97982
2698.66354	0.97981
2696.60663	0.97989
2694.54972	0.97987
2692.49281	0.97983
2690.43590	0.97980
2688.37900	0.97976
2686.32209	0.97999
2684.26518	0.98040
2682.20827	0.98052
2680.15136	0.98046
2678.09445	0.98047
2676.03755	0.98045
2673.98064	0.98038
2671.92373	0.98050
2669.86682	0.98067
2667.80991	0.98047
2665.75301	0.98022
2663.69610	0.98024
2661.63919	0.98024
2659.58228	0.98034
2657.52537	0.98063
2655.46846	0.98062
2653.41156	0.98048
2651.35465	0.98059
2649.29774	0.98075
2647.24083	0.98080
2645.18392	0.98089
2643.12702	0.98096
2641.07011	0.98076
2639.01320	0.98052
2636.95629	0.98046
2634.89938	0.98059
2632.84247	0.98116
2630.78557	0.98151
2628.72866	0.98102
2626.67175	0.98028
2624.61484	0.97996
2622.55793	0.98010
2620.50103	0.98033
2618.44412	0.98050
2616.38721	0.98065
2614.33030	0.98064
2612.27339	0.98084
2610.21648	0.98140
2608.15958	0.98163
2606.10267	0.98114
2604.04576	0.98071
2601.98885	0.98097
2599.93194	0.98135
2597.87504	0.98150
2595.81813	0.98134
2593.76122	0.98099
2591.70431	0.98083
2589.64740	0.98086
2587.59049	0.98111
2585.53359	0.98146
2583.47668	0.98163
2581.41977	0.98142
2579.36286	0.98130
2577.30595	0.98164
2575.24905	0.98156
2573.19214	0.98121
2571.13523	0.98138
2569.07832	0.98187
2567.02141	0.98239
2564.96450	0.98284
2562.90760	0.98312
2560.85069	0.98280
2558.79378	0.98188
2556.73687	0.98144
2554.67996	0.98190
2552.62306	0.98257
2550.56615	0.98292
2548.50924	0.98268
2546.45233	0.98207
2544.39542	0.98183
2542.33851	0.98205
2540.28161	0.98240
2538.22470	0.98289
2536.16779	0.98326
2534.11088	0.98329
2532.05397	0.98286
2529.99707	0.98234
2527.94016	0.98231
2525.88325	0.98229
2523.82634	0.98196
2521.76943	0.98190
2519.71252	0.98232
2517.65562	0.98281
2515.59871	0.98287
2513.54180	0.98263
2511.48489	0.98246
2509.42798	0.98262
2507.37108	0.98307
2505.31417	0.98319
2503.25726	0.98286
2501.20035	0.98252
2499.14344	0.98235
2497.08653	0.98238
2495.02963	0.98280
2492.97272	0.98316
2490.91581	0.98323
2488.85890	0.98380
2486.80199	0.98458
2484.74509	0.98433
2482.68818	0.98323
2480.63127	0.98260
2478.57436	0.98305
2476.51745	0.98392
2474.46054	0.98433
2472.40364	0.98433
2470.34673	0.98433
2468.28982	0.98420
2466.23291	0.98389
2464.17600	0.98393
2462.11910	0.98418
2460.06219	0.98391
2458.00528	0.98339
2455.94837	0.98300
2453.89146	0.98286
2451.83455	0.98324
2449.77765	0.98392
2447.72074	0.98417
2445.66383	0.98381
2443.60692	0.98340
2441.55001	0.98259
2439.49311	0.98173
2437.43620	0.98239
2435.37929	0.98367
2433.32238	0.98367
2431.26547	0.98285
2429.20856	0.98257
2427.15166	0.98289
2425.09475	0.98341
2423.03784	0.98386
2420.98093	0.98382
2418.92402	0.98389
2416.86712	0.98386
2414.81021	0.98308
2412.75330	0.98279
2410.69639	0.98341
2408.63948	0.98386
2406.58257	0.98415
2404.52567	0.98467
2402.46876	0.98479
2400.41185	0.98429
2398.35494	0.98396
2396.29803	0.98422
2394.24113	0.98455
2392.18422	0.98459
2390.12731	0.98419
2388.07040	0.98372
2386.01349	0.98380
2383.95658	0.98407
2381.89968	0.98404
2379.84277	0.98409
2377.78586	0.98447
2375.72895	0.98466
2373.67204	0.98394
2371.61514	0.98280
2369.55823	0.98264
2367.50132	0.98281
2365.44441	0.98238
2363.38750	0.98225
2361.33059	0.98262
2359.27369	0.98290
2357.21678	0.98322
2355.15987	0.98362
2353.10296	0.98339
2351.04605	0.98308
2348.98915	0.98296
2346.93224	0.98269
2344.87533	0.98299
2342.81842	0.98384
2340.76151	0.98389
2338.70460	0.98334
2336.64770	0.98272
2334.59079	0.98238
2332.53388	0.98299
2330.47697	0.98329
2328.42006	0.98218
2326.36316	0.98105
2324.30625	0.98128
2322.24934	0.98249
2320.19243	0.98301
2318.13552	0.98260
2316.07861	0.98279
2314.02171	0.98371
2311.96480	0.98407
2309.90789	0.98377
2307.85098	0.98364
2305.79407	0.98366
2303.73717	0.98326
2301.68026	0.98277
2299.62335	0.98271
2297.56644	0.98275
2295.50953	0.98291
2293.45262	0.98330
2291.39572	0.98342
2289.33881	0.98282
2287.28190	0.98202
2285.22499	0.98188
2283.16808	0.98211
2281.11117	0.98252
2279.05427	0.98356
2276.99736	0.98465
2274.94045	0.98478
2272.88354	0.98402
2270.82663	0.98281
2268.76973	0.98228
2266.71282	0.98283
2264.65591	0.98294
2262.59900	0.98257
2260.54209	0.98288
2258.48518	0.98358
2256.42828	0.98431
2254.37137	0.98463
2252.31446	0.98442
2250.25755	0.98493
2248.20064	0.98573
2246.14374	0.98581
2244.08683	0.98623
2242.02992	0.98660
2239.97301	0.98573
2237.91610	0.98462
2235.85919	0.98432
2233.80229	0.98421
2231.74538	0.98399
2229.68847	0.98415
2227.63156	0.98461
2225.57465	0.98512
2223.51775	0.98561
2221.46084	0.98547
2219.40393	0.98473
2217.34702	0.98421
2215.29011	0.98445
2213.23320	0.98502
2211.17630	0.98444
2209.11939	0.98351
2207.06248	0.98388
2205.00557	0.98487
2202.94866	0.98601
2200.89176	0.98639
2198.83485	0.98515
2196.77794	0.98352
2194.72103	0.98216
2192.66412	0.98169
2190.60721	0.98317
2188.55031	0.98441
2186.49340	0.98413
2184.43649	0.98427
2182.37958	0.98494
2180.32267	0.98449
2178.26577	0.98252
2176.20886	0.98101
2174.15195	0.98147
2172.09504	0.98328
2170.03813	0.98530
2167.98122	0.98669
2165.92432	0.98776
2163.86741	0.98836
2161.81050	0.98836
2159.75359	0.98917
2157.69668	0.99051
2155.63978	0.99016
2153.58287	0.98839
2151.52596	0.98755
2149.46905	0.98693
2147.41214	0.98629
2145.35523	0.98773
2143.29833	0.98888
2141.24142	0.98733
2139.18451	0.98580
2137.12760	0.98553
2135.07069	0.98527
2133.01379	0.98555
2130.95688	0.98624
2128.89997	0.98569
2126.84306	0.98469
2124.78615	0.98503
2122.72924	0.98600
2120.67234	0.98625
2118.61543	0.98564
2116.55852	0.98484
2114.50161	0.98432
2112.44470	0.98358
2110.38780	0.98274
2108.33089	0.98259
2106.27398	0.98295
2104.21707	0.98316
2102.16016	0.98348
2100.10325	0.98468
2098.04635	0.98589
2095.98944	0.98571
2093.93253	0.98485
2091.87562	0.98482
2089.81871	0.98511
2087.76181	0.98440
2085.70490	0.98397
2083.64799	0.98484
2081.59108	0.98485
2079.53417	0.98432
2077.47726	0.98515
2075.42036	0.98607
2073.36345	0.98618
2071.30654	0.98581
2069.24963	0.98499
2067.19272	0.98510
2065.13582	0.98598
2063.07891	0.98545
2061.02200	0.98505
2058.96509	0.98649
2056.90818	0.98789
2054.85127	0.98799
2052.79437	0.98686
2050.73746	0.98503
2048.68055	0.98348
2046.62364	0.98337
2044.56673	0.98430
2042.50983	0.98400
2040.45292	0.98354
2038.39601	0.98546
2036.33910	0.98745
2034.28219	0.98838
2032.22528	0.98962
2030.16838	0.98890
2028.11147	0.98705
2026.05456	0.98752
2023.99765	0.98896
2021.94074	0.98929
2019.88384	0.98869
2017.82693	0.98836
2015.77002	0.98768
2013.71311	0.98526
2011.65620	0.98339
2009.59929	0.98357
2007.54239	0.98441
2005.48548	0.98648
2003.42857	0.98941
2001.37166	0.98998
1999.31475	0.98798
1997.25785	0.98612
1995.20094	0.98599
1993.14403	0.98714
1991.08712	0.98792
1989.03021	0.98741
1986.97330	0.98663
1984.91640	0.98573
1982.85949	0.98394
1980.80258	0.98303
1978.74567	0.98465
1976.68876	0.98704
1974.63186	0.98798
1972.57495	0.98796
1970.51804	0.98787
1968.46113	0.98785
1966.40422	0.98824
1964.34731	0.98916
1962.29041	0.98992
1960.23350	0.98922
1958.17659	0.98803
1956.11968	0.98763
1954.06277	0.98720
1952.00587	0.98695
1949.94896	0.98731
1947.89205	0.98778
1945.83514	0.98802
1943.77823	0.98794
1941.72132	0.98740
1939.66442	0.98643
1937.60751	0.98590
1935.55060	0.98610
1933.49369	0.98637
1931.43678	0.98667
1929.37988	0.98700
1927.32297	0.98703
1925.26606	0.98706
1923.20915	0.98758
1921.15224	0.98848
1919.09533	0.98879
1917.03843	0.98774
1914.98152	0.98630
1912.92461	0.98550
1910.86770	0.98551
1908.81079	0.98605
1906.75389	0.98605
1904.69698	0.98545
1902.64007	0.98507
1900.58316	0.98477
1898.52625	0.98469
1896.46934	0.98529
1894.41244	0.98600
1892.35553	0.98634
1890.29862	0.98665
1888.24171	0.98681
1886.18480	0.98627
1884.12790	0.98561
1882.07099	0.98577
1880.01408	0.98647
1877.95717	0.98681
1875.90026	0.98650
1873.84335	0.98573
1871.78645	0.98511
1869.72954	0.98535
1867.67263	0.98588
1865.61572	0.98567
1863.55881	0.98517
1861.50191	0.98499
1859.44500	0.98490
1857.38809	0.98496
1855.33118	0.98581
1853.27427	0.98717
1851.21736	0.98785
1849.16046	0.98768
1847.10355	0.98721
1845.04664	0.98651
1842.98973	0.98569
1840.93282	0.98532
1838.87592	0.98541
1836.81901	0.98584
1834.76210	0.98661
1832.70519	0.98716
1830.64828	0.98688
1828.59137	0.98620
1826.53447	0.98600
1824.47756	0.98603
1822.42065	0.98635
1820.36374	0.98696
1818.30683	0.98707
1816.24993	0.98663
1814.19302	0.98624
1812.13611	0.98616
1810.07920	0.98616
1808.02229	0.98587
1805.96538	0.98570
1803.90848	0.98606
1801.85157	0.98641
1799.79466	0.98624
1797.73775	0.98579
1795.68084	0.98543
1793.62394	0.98541
1791.56703	0.98571
1789.51012	0.98608
1787.45321	0.98634
1785.39630	0.98621
1783.33939	0.98564
1781.28249	0.98530
1779.22558	0.98554
1777.16867	0.98568
1775.11176	0.98542
1773.05485	0.98511
1770.99795	0.98462
1768.94104	0.98372
1766.88413	0.98289
1764.82722	0.98227
1762.77031	0.98123
1760.71340	0.97950
1758.65650	0.97754
1756.59959	0.97527
1754.54268	0.97285
1752.48577	0.97022
1750.42886	0.96714
1748.37196	0.96434
1746.31505	0.96210
1744.25814	0.95987
1742.20123	0.95744
1740.14432	0.95509
1738.08741	0.95325
1736.03051	0.95171
1733.97360	0.94971
1731.91669	0.94816
1729.85978	0.94754
1727.80287	0.94710
1725.74597	0.94709
1723.68906	0.94774
1721.63215	0.94852
1719.57524	0.94911
1717.51833	0.95005
1715.46142	0.95153
1713.40452	0.95314
1711.34761	0.95512
1709.29070	0.95733
1707.23379	0.95935
1705.17688	0.96121
1703.11998	0.96285
1701.06307	0.96465
1699.00616	0.96665
1696.94925	0.96826
1694.89234	0.97020
1692.83543	0.97179
1690.77853	0.97245
1688.72162	0.97291
1686.66471	0.97375
1684.60780	0.97478
1682.55089	0.97545
1680.49399	0.97583
1678.43708	0.97611
1676.38017	0.97611
1674.32326	0.97571
1672.26635	0.97540
1670.20944	0.97542
1668.15254	0.97565
1666.09563	0.97613
1664.03872	0.97655
1661.98181	0.97646
1659.92490	0.97621
1657.86800	0.97615
1655.81109	0.97606
1653.75418	0.97568
1651.69727	0.97521
1649.64036	0.97511
1647.58345	0.97500
1645.52655	0.97495
1643.46964	0.97512
1641.41273	0.97530
1639.35582	0.97561
1637.29891	0.97623
1635.24201	0.97654
1633.18510	0.97623
1631.12819	0.97606
1629.07128	0.97620
1627.01437	0.97644
1624.95746	0.97643
1622.90056	0.97632
1620.84365	0.97642
1618.78674	0.97643
1616.72983	0.97644
1614.67292	0.97692
1612.61602	0.97751
1610.55911	0.97805
1608.50220	0.97852
1606.44529	0.97870
1604.38838	0.97857
1602.33147	0.97817
1600.27457	0.97774
1598.21766	0.97758
1596.16075	0.97784
1594.10384	0.97836
1592.04693	0.97869
1589.99003	0.97868
1587.93312	0.97882
1585.87621	0.97916
1583.81930	0.97927
1581.76239	0.97923
1579.70548	0.97924
1577.64858	0.97921
1575.59167	0.97905
1573.53476	0.97898
1571.47785	0.97906
1569.42094	0.97928
1567.36404	0.97948
1565.30713	0.97972
1563.25022	0.98012
1561.19331	0.98038
1559.13640	0.98014
1557.07949	0.97975
1555.02259	0.97977
1552.96568	0.97988
1550.90877	0.98004
1548.85186	0.98024
1546.79495	0.98036
1544.73805	0.98058
1542.68114	0.98085
1540.62423	0.98087
1538.56732	0.98090
1536.51041	0.98086
1534.45350	0.98077
1532.39660	0.98093
1530.33969	0.98102
1528.28278	0.98088
1526.22587	0.98097
1524.16896	0.98116
1522.11206	0.98083
1520.05515	0.98039
1517.99824	0.98066
1515.94133	0.98119
1513.88442	0.98126
1511.82751	0.98098
1509.77061	0.98066
1507.71370	0.98042
1505.65679	0.98077
1503.59988	0.98136
1501.54297	0.98171
1499.48607	0.98182
1497.42916	0.98130
1495.37225	0.98047
1493.31534	0.98023
1491.25843	0.98021
1489.20152	0.98001
1487.14462	0.97989
1485.08771	0.97965
1483.03080	0.97918
1480.97389	0.97881
1478.91698	0.97843
1476.86008	0.97764
1474.80317	0.97639
1472.74626	0.97498
1470.68935	0.97402
1468.63244	0.97346
1466.57553	0.97272
1464.51863	0.97171
1462.46172	0.97095
1460.40481	0.97042
1458.34790	0.96958
1456.29099	0.96829
1454.23409	0.96747
1452.17718	0.96707
1450.12027	0.96654
1448.06336	0.96581
1446.00645	0.96500
1443.94954	0.96423
1441.89264	0.96361
1439.83573	0.96308
1437.77882	0.96230
1435.72191	0.96122
1433.66500	0.96053
1431.60810	0.96015
1429.55119	0.95978
1427.49428	0.95959
1425.43737	0.95962
1423.38046	0.95968
1421.32355	0.95966
1419.26665	0.95935
1417.20974	0.95897
1415.15283	0.95897
1413.09592	0.95921
1411.03901	0.95942
1408.98211	0.95949
1406.92520	0.95945
1404.86829	0.95943
1402.81138	0.95950
1400.75447	0.95943
1398.69756	0.95920
1396.64066	0.95907
1394.58375	0.95887
1392.52684	0.95824
1390.46993	0.95726
1388.41302	0.95616
1386.35612	0.95500
1384.29921	0.95360
1382.24230	0.95166
1380.18539	0.94939
1378.12848	0.94733
1376.07157	0.94557
1374.01467	0.94391
1371.95776	0.94274
1369.90085	0.94234
1367.84394	0.94240
1365.78703	0.94292
1363.73013	0.94407
1361.67322	0.94559
1359.61631	0.94721
1357.55940	0.94888
1355.50249	0.95032
1353.44558	0.95146
1351.38868	0.95247
1349.33177	0.95336
1347.27486	0.95399
1345.21795	0.95436
1343.16104	0.95450
1341.10414	0.95438
1339.04723	0.95424
1336.99032	0.95441
1334.93341	0.95477
1332.87650	0.95491
1330.81959	0.95471
1328.76269	0.95472
1326.70578	0.95516
1324.64887	0.95551
1322.59196	0.95562
1320.53505	0.95547
1318.47815	0.95513
1316.42124	0.95509
1314.36433	0.95534
1312.30742	0.95563
1310.25051	0.95603
1308.19360	0.95648
1306.13670	0.95672
1304.07979	0.95674
1302.02288	0.95678
1299.96597	0.95692
1297.90906	0.95724
1295.85216	0.95751
1293.79525	0.95750
1291.73834	0.95744
1289.68143	0.95749
1287.62452	0.95734
1285.56761	0.95672
1283.51071	0.95587
1281.45380	0.95511
1279.39689	0.95444
1277.33998	0.95344
1275.28307	0.95205
1273.22617	0.95061
1271.16926	0.94899
1269.11235	0.94703
1267.05544	0.94507
1264.99853	0.94325
1262.94162	0.94141
1260.88472	0.93935
1258.82781	0.93720
1256.77090	0.93518
1254.71399	0.93315
1252.65708	0.93118
1250.60018	0.92955
1248.54327	0.92798
1246.48636	0.92625
1244.42945	0.92464
1242.37254	0.92338
1240.31563	0.92232
1238.25873	0.92132
1236.20182	0.92075
1234.14491	0.92082
1232.08800	0.92131
1230.03109	0.92197
1227.97419	0.92292
1225.91728	0.92457
1223.86037	0.92697
1221.80346	0.92990
1219.74655	0.93306
1217.68964	0.93625
1215.63274	0.93932
1213.57583	0.94202
1211.51892	0.94424
1209.46201	0.94612
1207.40510	0.94764
1205.34820	0.94854
1203.29129	0.94908
1201.23438	0.94977
1199.17747	0.95068
1197.12056	0.95198
1195.06365	0.95379
1193.00675	0.95557
1190.94984	0.95682
1188.89293	0.95756
1186.83602	0.95794
1184.77911	0.95817
1182.72221	0.95812
1180.66530	0.95731
1178.60839	0.95569
1176.55148	0.95375
1174.49457	0.95146
1172.43766	0.94873
1170.38076	0.94559
1168.32385	0.94220
1166.26694	0.93915
1164.21003	0.93647
1162.15312	0.93372
1160.09622	0.93124
1158.03931	0.92981
1155.98240	0.92950
1153.92549	0.92980
1151.86858	0.93061
1149.81167	0.93175
1147.75477	0.93287
1145.69786	0.93386
1143.64095	0.93450
1141.58404	0.93444
1139.52713	0.93386
1137.47023	0.93289
1135.41332	0.93122
1133.35641	0.92904
1131.29950	0.92678
1129.24259	0.92451
1127.18568	0.92204
1125.12878	0.91918
1123.07187	0.91615
1121.01496	0.91359
1118.95805	0.91152
1116.90114	0.90957
1114.84424	0.90773
1112.78733	0.90603
1110.73042	0.90457
1108.67351	0.90316
1106.61660	0.90146
1104.55969	0.89959
1102.50279	0.89773
1100.44588	0.89597
1098.38897	0.89408
1096.33206	0.89198
1094.27515	0.88998
1092.21825	0.88822
1090.16134	0.88652
1088.10443	0.88465
1086.04752	0.88254
1083.99061	0.88009
1081.93370	0.87703
1079.87680	0.87347
1077.81989	0.87027
1075.76298	0.86743
1073.70607	0.86414
1071.64916	0.86070
1069.59226	0.85773
1067.53535	0.85512
1065.47844	0.85272
1063.42153	0.85051
1061.36462	0.84867
1059.30771	0.84715
1057.25081	0.84536
1055.19390	0.84346
1053.13699	0.84207
1051.08008	0.84096
1049.02317	0.83956
1046.96627	0.83805
1044.90936	0.83669
1042.85245	0.83509
1040.79554	0.83330
1038.73863	0.83175
1036.68172	0.83023
1034.62482	0.82839
1032.56791	0.82650
1030.51100	0.82477
1028.45409	0.82301
1026.39718	0.82127
1024.34028	0.81993
1022.28337	0.81897
1020.22646	0.81811
1018.16955	0.81771
1016.11264	0.81818
1014.05573	0.81927
1011.99883	0.82074
1009.94192	0.82275
1007.88501	0.82486
1005.82810	0.82658
1003.77119	0.82812
1001.71429	0.82958
999.65738	0.83039
997.60047	0.83076
995.54356	0.83127
993.48665	0.83191
991.42974	0.83289
989.37284	0.83469
987.31593	0.83728
985.25902	0.84010
983.20211	0.84322
981.14520	0.84686
979.08830	0.85065
977.03139	0.85443
974.97448	0.85812
972.91757	0.86145
970.86066	0.86422
968.80375	0.86675
966.74685	0.86959
964.68994	0.87265
962.63303	0.87556
960.57612	0.87817
958.51921	0.88043
956.46231	0.88257
954.40540	0.88510
952.34849	0.88803
950.29158	0.89071
948.23467	0.89296
946.17776	0.89505
944.12086	0.89693
942.06395	0.89847
940.00704	0.89978
937.95013	0.90122
935.89322	0.90285
933.83632	0.90418
931.77941	0.90494
929.72250	0.90565
927.66559	0.90677
925.60868	0.90780
923.55177	0.90859
921.49487	0.90963
919.43796	0.91072
917.38105	0.91132
915.32414	0.91120
913.26723	0.91070
911.21033	0.91028
909.15342	0.90988
907.09651	0.90906
905.03960	0.90768
902.98269	0.90634
900.92578	0.90557
898.86888	0.90515
896.81197	0.90486
894.75506	0.90487
892.69815	0.90543
890.64124	0.90654
888.58434	0.90777
886.52743	0.90904
884.47052	0.91081
882.41361	0.91305
880.35670	0.91518
878.29979	0.91694
876.24289	0.91899
874.18598	0.92141
872.12907	0.92319
870.07216	0.92418
868.01525	0.92519
865.95835	0.92653
863.90144	0.92815
861.84453	0.93003
859.78762	0.93154
857.73071	0.93197
855.67380	0.93203
853.61690	0.93267
851.55999	0.93337
849.50308	0.93377
847.44617	0.93443
845.38926	0.93501
843.33236	0.93464
841.27545	0.93393
839.21854	0.93395
837.16163	0.93441
835.10472	0.93489
833.04781	0.93538
830.99091	0.93573
828.93400	0.93607
826.87709	0.93628
824.82018	0.93605
822.76327	0.93587
820.70637	0.93620
818.64946	0.93646
816.59255	0.93665
814.53564	0.93743
812.47873	0.93807
810.42182	0.93777
808.36492	0.93731
806.30801	0.93710
804.25110	0.93696
802.19419	0.93700
800.13728	0.93703
798.08038	0.93669
796.02347	0.93656
793.96656	0.93748
791.90965	0.93831
789.85274	0.93804
787.79583	0.93766
785.73893	0.93741
783.68202	0.93721
781.62511	0.93752
779.56820	0.93814
777.51129	0.93868
775.45439	0.93881
773.39748	0.93860
771.34057	0.93835
769.28366	0.93816
767.22675	0.93840
765.16984	0.93890
763.11294	0.93873
761.05603	0.93811
758.99912	0.93785
756.94221	0.93774
754.88530	0.93764
752.82839	0.93792
750.77149	0.93843
748.71458	0.93847
746.65767	0.93775
744.60076	0.93706
742.54385	0.93680
740.48695	0.93682
738.43004	0.93725
736.37313	0.93751
734.31622	0.93710
732.25931	0.93660
730.20240	0.93616
728.14550	0.93562
726.08859	0.93513
724.03168	0.93487
721.97477	0.93478
719.91786	0.93482
717.86096	0.93487
715.80405	0.93460
713.74714	0.93395
711.69023	0.93321
709.63332	0.93257
707.57641	0.93190
705.51951	0.93142
703.46260	0.93110
701.40569	0.93079
699.34878	0.93054
697.29187	0.92994
695.23497	0.92934
693.17806	0.92955
691.12115	0.92996
689.06424	0.92935
687.00733	0.92772
684.95042	0.92598
682.89352	0.92448
680.83661	0.92327
678.77970	0.92234
676.72279	0.92113
674.66588	0.91949
672.60898	0.91728
670.55207	0.91478
668.49516	0.91297
666.43825	0.91251
664.38134	0.91251
662.32443	0.91202
660.26753	0.91117
658.21062	0.91100
656.15371	0.91128
654.09680	0.91099
652.03989	0.91050
649.98299	0.91016
647.92608	0.90984
645.86917	0.90944
643.81226	0.90842
641.75535	0.90740
639.69844	0.90717
637.64154	0.90689
635.58463	0.90600
633.52772	0.90482
631.47081	0.90349
629.41390	0.90253
627.35700	0.90260
625.30009	0.90316
623.24318	0.90254
621.18627	0.90041
619.12936	0.89825
617.07245	0.89673
615.01555	0.89530
612.95864	0.89356
610.90173	0.89201
608.84482	0.89110
606.78791	0.89013
604.73101	0.88926
602.67410	0.88904
600.61719	0.88868
598.56028	0.88839
596.50337	0.88903
594.44646	0.88928
592.38956	0.88868
590.33265	0.88854
588.27574	0.88872
586.21883	0.88890
584.16192	0.88896
582.10502	0.88880
580.04811	0.88867
577.99120	0.88797
575.93429	0.88674
573.87738	0.88546
571.82047	0.88463
569.76357	0.88441
567.70666	0.88322
565.64975	0.88113
563.59284	0.88042
561.53593	0.88114
559.47903	0.88176
557.42212	0.88186
555.36521	0.88190
553.30830	0.88252
551.25139	0.88346
549.19448	0.88383
547.13758	0.88348
545.08067	0.88281
543.02376	0.88236
540.96685	0.88180
538.90994	0.88082
536.85304	0.88003
534.79613	0.87915
532.73922	0.87737
530.68231	0.87532
528.62540	0.87477
526.56849	0.87600
524.51159	0.87696
522.45468	0.87669
520.39777	0.87660
518.34086	0.87623
516.28395	0.87437
514.22705	0.87320
512.17014	0.87318
510.11323	0.87174
508.05632	0.86949
505.99941	0.86851
503.94250	0.86800
501.88560	0.86695
499.82869	0.86603
497.77178	0.86598
495.71487	0.86589
493.65796	0.86454
491.60106	0.86296
489.54415	0.86257
487.48724	0.86253
485.43033	0.86239
483.37342	0.86320
481.31651	0.86428
479.25961	0.86410
477.20270	0.86235
475.14579	0.86035
473.08888	0.85938
471.03197	0.85793
468.97507	0.85378
466.91816	0.84858
464.86125	0.84655
462.80434	0.84919
460.74743	0.85309
458.69052	0.85271
456.63362	0.84959
454.57671	0.84874
452.51980	0.84865
450.46289	0.84803
448.40598	0.84687
446.34908	0.84540
444.29217	0.84516
442.23526	0.84578
440.17835	0.84598
438.12144	0.84745
436.06453	0.85107
434.00763	0.85257
431.95072	0.84980
429.89381	0.84791
427.83690	0.84875
425.77999	0.84783
423.72309	0.84606
421.66618	0.84628
419.60927	0.84679
417.55236	0.84768
415.49545	0.84813
413.43854	0.84729
411.38164	0.84539
409.32473	0.84326
407.26782	0.84357
405.21091	0.84658
403.15400	0.84923
401.09710	0.84884
399.04019	0.84700
