3996.57260	0.97918
3994.51569	0.97905
3992.45878	0.97911
3990.40188	0.97894
3988.34497	0.97947
3986.28806	0.98037
3984.23115	0.98068
3982.17424	0.98081
3980.11733	0.98126
3978.06043	0.98160
3976.00352	0.98149
3973.94661	0.98103
3971.88970	0.98046
3969.83279	0.98005
3967.77589	0.98000
3965.71898	0.97988
3963.66207	0.97936
3961.60516	0.97906
3959.54825	0.97917
3957.49134	0.97939
3955.43444	0.97972
3953.37753	0.97999
3951.32062	0.97995
3949.26371	0.97972
3947.20680	0.97967
3945.14990	0.97984
3943.09299	0.98028
3941.03608	0.98083
3938.97917	0.98077
3936.92226	0.98032
3934.86535	0.97980
3932.80845	0.97904
3930.75154	0.97884
3928.69463	0.97985
3926.63772	0.98063
3924.58081	0.98009
3922.52391	0.97942
3920.46700	0.97969
3918.41009	0.98031
3916.35318	0.98047
3914.29627	0.98037
3912.23936	0.98036
3910.18246	0.98034
3908.12555	0.98065
3906.06864	0.98098
3904.01173	0.97993
3901.95482	0.97856
3899.89792	0.97876
3897.84101	0.97950
3895.78410	0.97977
3893.72719	0.97985
3891.67028	0.97979
3889.61337	0.97933
3887.55647	0.97917
3885.49956	0.97963
3883.44265	0.98041
3881.38574	0.98115
3879.32883	0.98143
3877.27193	0.98160
3875.21502	0.98200
3873.15811	0.98168
3871.10120	0.98040
3869.04429	0.97995
3866.98738	0.98064
3864.93048	0.98073
3862.87357	0.98012
3860.81666	0.98004
3858.75975	0.98062
3856.70284	0.98139
3854.64594	0.98229
3852.58903	0.98264
3850.53212	0.98194
3848.47521	0.98124
3846.41830	0.98070
3844.36139	0.98020
3842.30449	0.98015
3840.24758	0.98059
3838.19067	0.98079
3836.13376	0.97988
3834.07685	0.97883
3832.01995	0.97869
3829.96304	0.97898
3827.90613	0.97946
3825.84922	0.98009
3823.79231	0.98010
3821.73540	0.97943
3819.67850	0.97903
3817.62159	0.97906
3815.56468	0.97953
3813.50777	0.98044
3811.45086	0.98086
3809.39396	0.98065
3807.33705	0.98037
3805.28014	0.98034
3803.22323	0.98012
3801.16632	0.97990
3799.10941	0.98039
3797.05251	0.98087
3794.99560	0.98067
3792.93869	0.98026
3790.88178	0.98019
3788.82487	0.98037
3786.76796	0.98047
3784.71106	0.98036
3782.65415	0.98023
3780.59724	0.97998
3778.54033	0.97936
3776.48342	0.97923
3774.42652	0.98025
3772.36961	0.98149
3770.31270	0.98168
3768.25579	0.98100
3766.19888	0.98059
3764.14197	0.98073
3762.08507	0.98115
3760.02816	0.98129
3757.97125	0.98073
3755.91434	0.98051
3753.85743	0.98121
3751.80053	0.98169
3749.74362	0.98102
3747.68671	0.98023
3745.62980	0.98025
3743.57289	0.98084
3741.51598	0.98134
3739.45908	0.98129
3737.40217	0.98041
3735.34526	0.98022
3733.28835	0.98141
3731.23144	0.98151
3729.17454	0.98097
3727.11763	0.98086
3725.06072	0.98031
3723.00381	0.97950
3720.94690	0.97981
3718.88999	0.98075
3716.83309	0.98112
3714.77618	0.98078
3712.71927	0.98054
3710.66236	0.98118
3708.60545	0.98168
3706.54855	0.98160
3704.49164	0.98141
3702.43473	0.98103
3700.37782	0.98063
3698.32091	0.98066
3696.26400	0.98078
3694.20710	0.98054
3692.15019	0.98065
3690.09328	0.98145
3688.03637	0.98135
3685.97946	0.98050
3683.92256	0.98018
3681.86565	0.98000
3679.80874	0.97939
3677.75183	0.97913
3675.69492	0.97994
3673.63801	0.98021
3671.58111	0.98011
3669.52420	0.98121
3667.46729	0.98184
3665.41038	0.98094
3663.35347	0.98030
3661.29657	0.98021
3659.23966	0.97930
3657.18275	0.97844
3655.12584	0.97925
3653.06893	0.98058
3651.01202	0.98124
3648.95512	0.98071
3646.89821	0.97951
3644.84130	0.97955
3642.78439	0.98054
3640.72748	0.98099
3638.67058	0.98053
3636.61367	0.98022
3634.55676	0.98002
3632.49985	0.97970
3630.44294	0.97967
3628.38603	0.97942
3626.32913	0.97881
3624.27222	0.97853
3622.21531	0.97868
3620.15840	0.97912
3618.10149	0.97932
3616.04459	0.97894
3613.98768	0.97804
3611.93077	0.97712
3609.87386	0.97725
3607.81695	0.97843
3605.76004	0.97889
3603.70314	0.97821
3601.64623	0.97769
3599.58932	0.97746
3597.53241	0.97736
3595.47550	0.97792
3593.41860	0.97827
3591.36169	0.97775
3589.30478	0.97713
3587.24787	0.97721
3585.19096	0.97765
3583.13405	0.97770
3581.07715	0.97733
3579.02024	0.97713
3576.96333	0.97724
3574.90642	0.97679
3572.84951	0.97591
3570.79261	0.97525
3568.73570	0.97441
3566.67879	0.97350
3564.62188	0.97359
3562.56497	0.97411
3560.50806	0.97411
3558.45116	0.97366
3556.39425	0.97319
3554.33734	0.97287
3552.28043	0.97240
3550.22352	0.97211
3548.16662	0.97253
3546.10971	0.97293
3544.05280	0.97262
3541.99589	0.97204
3539.93898	0.97131
3537.88207	0.97047
3535.82517	0.96993
3533.76826	0.96976
3531.71135	0.96980
3529.65444	0.96998
3527.59753	0.97004
3525.54063	0.96982
3523.48372	0.96917
3521.42681	0.96832
3519.36990	0.96819
3517.31299	0.96862
3515.25608	0.96857
3513.19918	0.96801
3511.14227	0.96770
3509.08536	0.96752
3507.02845	0.96700
3504.97154	0.96653
3502.91464	0.96632
3500.85773	0.96628
3498.80082	0.96661
3496.74391	0.96688
3494.68700	0.96642
3492.63009	0.96573
3490.57319	0.96552
3488.51628	0.96573
3486.45937	0.96609
3484.40246	0.96639
3482.34555	0.96599
3480.28865	0.96478
3478.23174	0.96431
3476.17483	0.96484
3474.11792	0.96512
3472.06101	0.96519
3470.00410	0.96540
3467.94720	0.96541
3465.89029	0.96533
3463.83338	0.96590
3461.77647	0.96646
3459.71956	0.96621
3457.66266	0.96607
3455.60575	0.96631
3453.54884	0.96625
3451.49193	0.96615
3449.43502	0.96652
3447.37811	0.96737
3445.32121	0.96793
3443.26430	0.96740
3441.20739	0.96668
3439.15048	0.96674
3437.09357	0.96751
3435.03667	0.96837
3432.97976	0.96874
3430.92285	0.96901
3428.86594	0.96911
3426.80903	0.96869
3424.75212	0.96839
3422.69522	0.96871
3420.63831	0.96930
3418.58140	0.96964
3416.52449	0.96957
3414.46758	0.96961
3412.41068	0.97002
3410.35377	0.97050
3408.29686	0.97084
3406.23995	0.97111
3404.18304	0.97178
3402.12613	0.97232
3400.06923	0.97218
3398.01232	0.97218
3395.95541	0.97244
3393.89850	0.97252
3391.84159	0.97240
3389.78469	0.97221
3387.72778	0.97254
3385.67087	0.97305
3383.61396	0.97278
3381.55705	0.97197
3379.50014	0.97151
3377.44324	0.97190
3375.38633	0.97279
3373.32942	0.97350
3371.27251	0.97385
3369.21560	0.97389
3367.15870	0.97370
3365.10179	0.97379
3363.04488	0.97453
3360.98797	0.97498
3358.93106	0.97484
3356.87415	0.97467
3354.81725	0.97431
3352.76034	0.97389
3350.70343	0.97399
3348.64652	0.97451
3346.58961	0.97500
3344.53271	0.97530
3342.47580	0.97509
3340.41889	0.97449
3338.36198	0.97435
3336.30507	0.97469
3334.24816	0.97497
3332.19126	0.97491
3330.13435	0.97443
3328.07744	0.97398
3326.02053	0.97392
3323.96362	0.97408
3321.90672	0.97440
3319.84981	0.97518
3317.79290	0.97563
3315.73599	0.97519
3313.67908	0.97503
3311.62217	0.97547
3309.56527	0.97565
3307.50836	0.97561
3305.45145	0.97562
3303.39454	0.97562
3301.33763	0.97573
3299.28073	0.97599
3297.22382	0.97595
3295.16691	0.97524
3293.11000	0.97490
3291.05309	0.97557
3288.99618	0.97613
3286.93928	0.97627
3284.88237	0.97668
3282.82546	0.97734
3280.76855	0.97763
3278.71164	0.97719
3276.65474	0.97650
3274.59783	0.97602
3272.54092	0.97597
3270.48401	0.97643
3268.42710	0.97700
3266.37019	0.97739
3264.31329	0.97749
3262.25638	0.97736
3260.19947	0.97697
3258.14256	0.97631
3256.08565	0.97614
3254.02875	0.97646
3251.97184	0.97676
3249.91493	0.97729
3247.85802	0.97779
3245.80111	0.97791
3243.74420	0.97780
3241.68730	0.97779
3239.63039	0.97782
3237.57348	0.97728
3235.51657	0.97632
3233.45966	0.97622
3231.40276	0.97720
3229.34585	0.97803
3227.28894	0.97813
3225.23203	0.97777
3223.17512	0.97749
3221.11821	0.97773
3219.06131	0.97790
3217.00440	0.97746
3214.94749	0.97699
3212.89058	0.97704
3210.83367	0.97760
3208.77677	0.97817
3206.71986	0.97816
3204.66295	0.97767
3202.60604	0.97729
3200.54913	0.97757
3198.49222	0.97802
3196.43532	0.97794
3194.37841	0.97744
3192.32150	0.97709
3190.26459	0.97735
3188.20768	0.97763
3186.15078	0.97733
3184.09387	0.97690
3182.03696	0.97707
3179.98005	0.97793
3177.92314	0.97873
3175.86623	0.97877
3173.80933	0.97834
3171.75242	0.97818
3169.69551	0.97817
3167.63860	0.97803
3165.58169	0.97820
3163.52479	0.97878
3161.46788	0.97892
3159.41097	0.97839
3157.35406	0.97815
3155.29715	0.97853
3153.24024	0.97853
3151.18334	0.97803
3149.12643	0.97796
3147.06952	0.97821
3145.01261	0.97819
3142.95570	0.97807
3140.89880	0.97808
3138.84189	0.97790
3136.78498	0.97749
3134.72807	0.97743
3132.67116	0.97763
3130.61425	0.97758
3128.55735	0.97744
3126.50044	0.97774
3124.44353	0.97835
3122.38662	0.97864
3120.32971	0.97847
3118.27281	0.97835
3116.21590	0.97876
3114.15899	0.97907
3112.10208	0.97860
3110.04517	0.97828
3107.98826	0.97834
3105.93136	0.97805
3103.87445	0.97785
3101.81754	0.97816
3099.76063	0.97845
3097.70372	0.97831
3095.64682	0.97808
3093.58991	0.97811
3091.53300	0.97800
3089.47609	0.97785
3087.41918	0.97810
3085.36227	0.97868
3083.30537	0.97916
3081.24846	0.97916
3079.19155	0.97918
3077.13464	0.97922
3075.07773	0.97872
3073.02083	0.97833
3070.96392	0.97849
3068.90701	0.97842
3066.85010	0.97827
3064.79319	0.97874
3062.73628	0.97894
3060.67938	0.97840
3058.62247	0.97812
3056.56556	0.97802
3054.50865	0.97761
3052.45174	0.97745
3050.39484	0.97785
3048.33793	0.97833
3046.28102	0.97858
3044.22411	0.97864
3042.16720	0.97853
3040.11029	0.97823
3038.05339	0.97769
3035.99648	0.97734
3033.93957	0.97767
3031.88266	0.97806
3029.82575	0.97807
3027.76885	0.97796
3025.71194	0.97761
3023.65503	0.97713
3021.59812	0.97681
3019.54121	0.97661
3017.48430	0.97651
3015.42740	0.97638
3013.37049	0.97614
3011.31358	0.97617
3009.25667	0.97661
3007.19976	0.97693
3005.14286	0.97662
3003.08595	0.97624
3001.02904	0.97623
2998.97213	0.97620
2996.91522	0.97606
2994.85831	0.97603
2992.80141	0.97605
2990.74450	0.97590
2988.68759	0.97558
2986.63068	0.97520
2984.57377	0.97488
2982.51687	0.97466
2980.45996	0.97472
2978.40305	0.97496
2976.34614	0.97480
2974.28923	0.97429
2972.23232	0.97370
2970.17542	0.97299
2968.11851	0.97242
2966.06160	0.97251
2964.00469	0.97287
2961.94778	0.97256
2959.89088	0.97174
2957.83397	0.97152
2955.77706	0.97208
2953.72015	0.97223
2951.66324	0.97136
2949.60633	0.97045
2947.54943	0.97028
2945.49252	0.97031
2943.43561	0.97013
2941.37870	0.97018
2939.32179	0.97072
2937.26489	0.97127
2935.20798	0.97161
2933.15107	0.97188
2931.09416	0.97205
2929.03725	0.97239
2926.98034	0.97265
2924.92344	0.97275
2922.86653	0.97297
2920.80962	0.97291
2918.75271	0.97276
2916.69580	0.97293
2914.63890	0.97288
2912.58199	0.97246
2910.52508	0.97225
2908.46817	0.97212
2906.41126	0.97176
2904.35435	0.97150
2902.29745	0.97153
2900.24054	0.97171
2898.18363	0.97199
2896.12672	0.97212
2894.06981	0.97200
2892.01291	0.97192
2889.95600	0.97190
2887.89909	0.97176
2885.84218	0.97164
2883.78527	0.97164
2881.72836	0.97164
2879.67146	0.97175
2877.61455	0.97188
2875.55764	0.97188
2873.50073	0.97200
2871.44382	0.97238
2869.38692	0.97273
2867.33001	0.97293
2865.27310	0.97312
2863.21619	0.97336
2861.15928	0.97352
2859.10237	0.97369
2857.04547	0.97409
2854.98856	0.97457
2852.93165	0.97508
2850.87474	0.97559
2848.81783	0.97580
2846.76093	0.97567
2844.70402	0.97559
2842.64711	0.97581
2840.59020	0.97622
2838.53329	0.97639
2836.47638	0.97611
2834.41948	0.97609
2832.36257	0.97659
2830.30566	0.97708
2828.24875	0.97708
2826.19184	0.97675
2824.13494	0.97670
2822.07803	0.97690
2820.02112	0.97694
2817.96421	0.97685
2815.90730	0.97703
2813.85039	0.97714
2811.79349	0.97679
2809.73658	0.97657
2807.67967	0.97676
2805.62276	0.97705
2803.56585	0.97729
2801.50895	0.97722
2799.45204	0.97696
2797.39513	0.97685
2795.33822	0.97693
2793.28131	0.97721
2791.22440	0.97751
2789.16750	0.97748
2787.11059	0.97731
2785.05368	0.97736
2782.99677	0.97740
2780.93986	0.97720
2778.88296	0.97724
2776.82605	0.97768
2774.76914	0.97798
2772.71223	0.97802
2770.65532	0.97806
2768.59841	0.97816
2766.54151	0.97824
2764.48460	0.97832
2762.42769	0.97842
2760.37078	0.97845
2758.31387	0.97831
2756.25697	0.97813
2754.20006	0.97802
2752.14315	0.97803
2750.08624	0.97817
2748.02933	0.97827
2745.97242	0.97813
2743.91552	0.97795
2741.85861	0.97796
2739.80170	0.97797
2737.74479	0.97777
2735.68788	0.97751
2733.63098	0.97760
2731.57407	0.97779
2729.51716	0.97755
2727.46025	0.97726
2725.40334	0.97738
2723.34643	0.97767
2721.28953	0.97786
2719.23262	0.97782
2717.17571	0.97769
2715.11880	0.97782
2713.06189	0.97802
2711.00499	0.97781
2708.94808	0.97749
2706.89117	0.97769
2704.83426	0.97819
2702.77735	0.97833
2700.72044	0.97797
2698.66354	0.97765
2696.60663	0.97795
2694.54972	0.97835
2692.49281	0.97824
2690.43590	0.97812
2688.37900	0.97822
2686.32209	0.97824
2684.26518	0.97830
2682.20827	0.97848
2680.15136	0.97845
2678.09445	0.97824
2676.03755	0.97815
2673.98064	0.97824
2671.92373	0.97833
2669.86682	0.97830
2667.80991	0.97807
2665.75301	0.97779
2663.69610	0.97776
2661.63919	0.97779
2659.58228	0.97764
2657.52537	0.97746
2655.46846	0.97737
2653.41156	0.97757
2651.35465	0.97788
2649.29774	0.97795
2647.24083	0.97814
2645.18392	0.97870
2643.12702	0.97896
2641.07011	0.97872
2639.01320	0.97859
2636.95629	0.97868
2634.89938	0.97864
2632.84247	0.97844
2630.78557	0.97811
2628.72866	0.97790
2626.67175	0.97798
2624.61484	0.97822
2622.55793	0.97843
2620.50103	0.97852
2618.44412	0.97871
2616.38721	0.97897
2614.33030	0.97891
2612.27339	0.97869
2610.21648	0.97864
2608.15958	0.97859
2606.10267	0.97857
2604.04576	0.97888
2601.98885	0.97932
2599.93194	0.97977
2597.87504	0.98002
2595.81813	0.97976
2593.76122	0.97944
2591.70431	0.97980
2589.64740	0.98048
2587.59049	0.98077
2585.53359	0.98051
2583.47668	0.98004
2581.41977	0.97976
2579.36286	0.97957
2577.30595	0.97935
2575.24905	0.97890
2573.19214	0.97831
2571.13523	0.97826
2569.07832	0.97880
2567.02141	0.97923
2564.96450	0.97945
2562.90760	0.97982
2560.85069	0.98018
2558.79378	0.98017
2556.73687	0.97976
2554.67996	0.97959
2552.62306	0.97985
2550.56615	0.97968
2548.50924	0.97909
2546.45233	0.97889
2544.39542	0.97934
2542.33851	0.98008
2540.28161	0.98087
2538.22470	0.98135
2536.16779	0.98106
2534.11088	0.98036
2532.05397	0.98004
2529.99707	0.98020
2527.94016	0.98021
2525.88325	0.97999
2523.82634	0.97991
2521.76943	0.98012
2519.71252	0.98053
2517.65562	0.98086
2515.59871	0.98092
2513.54180	0.98075
2511.48489	0.98034
2509.42798	0.97971
2507.37108	0.97916
2505.31417	0.97934
2503.25726	0.98006
2501.20035	0.98053
2499.14344	0.98084
2497.08653	0.98098
2495.02963	0.98077
2492.97272	0.98048
2490.91581	0.98012
2488.85890	0.98036
2486.80199	0.98116
2484.74509	0.98131
2482.68818	0.98090
2480.63127	0.98031
2478.57436	0.97948
2476.51745	0.97913
2474.46054	0.97938
2472.40364	0.97948
2470.34673	0.97966
2468.28982	0.98021
2466.23291	0.98068
2464.17600	0.98104
2462.11910	0.98113
2460.06219	0.98078
2458.00528	0.98042
2455.94837	0.98014
2453.89146	0.97982
2451.83455	0.97945
2449.77765	0.97902
2447.72074	0.97902
2445.66383	0.97962
2443.60692	0.98024
2441.55001	0.98052
2439.49311	0.98070
2437.43620	0.98075
2435.37929	0.98041
2433.32238	0.98010
2431.26547	0.98016
2429.20856	0.98013
2427.15166	0.97991
2425.09475	0.97992
2423.03784	0.98023
2420.98093	0.98045
2418.92402	0.98034
2416.86712	0.98028
2414.81021	0.98041
2412.75330	0.98039
2410.69639	0.98007
2408.63948	0.97993
2406.58257	0.97999
2404.52567	0.97995
2402.46876	0.98005
2400.41185	0.98043
2398.35494	0.98103
2396.29803	0.98129
2394.24113	0.98080
2392.18422	0.98058
2390.12731	0.98109
2388.07040	0.98143
2386.01349	0.98089
2383.95658	0.98002
2381.89968	0.97981
2379.84277	0.98005
2377.78586	0.98002
2375.72895	0.98016
2373.67204	0.98104
2371.61514	0.98177
2369.55823	0.98192
2367.50132	0.98188
2365.44441	0.98156
2363.38750	0.98128
2361.33059	0.98115
2359.27369	0.98066
2357.21678	0.97995
2355.15987	0.97942
2353.10296	0.97924
2351.04605	0.97983
2348.98915	0.98087
2346.93224	0.98143
2344.87533	0.98102
2342.81842	0.98053
2340.76151	0.98080
2338.70460	0.98100
2336.64770	0.98089
2334.59079	0.98110
2332.53388	0.98126
2330.47697	0.98092
2328.42006	0.98057
2326.36316	0.97986
2324.30625	0.97917
2322.24934	0.97977
2320.19243	0.98058
2318.13552	0.97981
2316.07861	0.97856
2314.02171	0.97879
2311.96480	0.97981
2309.90789	0.98023
2307.85098	0.98052
2305.79407	0.98120
2303.73717	0.98169
2301.68026	0.98168
2299.62335	0.98167
2297.56644	0.98191
2295.50953	0.98212
2293.45262	0.98233
2291.39572	0.98256
2289.33881	0.98244
2287.28190	0.98170
2285.22499	0.98060
2283.16808	0.97960
2281.11117	0.97908
2279.05427	0.97957
2276.99736	0.98075
2274.94045	0.98102
2272.88354	0.98018
2270.82663	0.97983
2268.76973	0.98044
2266.71282	0.98100
2264.65591	0.98115
2262.59900	0.98121
2260.54209	0.98160
2258.48518	0.98236
2256.42828	0.98260
2254.37137	0.98230
2252.31446	0.98218
2250.25755	0.98186
2248.20064	0.98117
2246.14374	0.98083
2244.08683	0.98142
2242.02992	0.98179
2239.97301	0.98118
2237.91610	0.98121
2235.85919	0.98183
2233.80229	0.98174
2231.74538	0.98197
2229.68847	0.98260
2227.63156	0.98281
2225.57465	0.98328
2223.51775	0.98391
2221.46084	0.98393
2219.40393	0.98335
2217.34702	0.98299
2215.29011	0.98298
2213.23320	0.98281
2211.17630	0.98241
2209.11939	0.98229
2207.06248	0.98320
2205.00557	0.98399
2202.94866	0.98358
2200.89176	0.98294
2198.83485	0.98202
2196.77794	0.98072
2194.72103	0.98072
2192.66412	0.98148
2190.60721	0.98110
2188.55031	0.97968
2186.49340	0.97861
2184.43649	0.97895
2182.37958	0.97978
2180.32267	0.98022
2178.26577	0.98104
2176.20886	0.98132
2174.15195	0.97937
2172.09504	0.97853
2170.03813	0.98156
2167.98122	0.98501
2165.92432	0.98558
2163.86741	0.98365
2161.81050	0.98189
2159.75359	0.98248
2157.69668	0.98430
2155.63978	0.98460
2153.58287	0.98409
2151.52596	0.98468
2149.46905	0.98511
2147.41214	0.98454
2145.35523	0.98334
2143.29833	0.98215
2141.24142	0.98287
2139.18451	0.98462
2137.12760	0.98506
2135.07069	0.98428
2133.01379	0.98348
2130.95688	0.98281
2128.89997	0.98168
2126.84306	0.98054
2124.78615	0.98025
2122.72924	0.98045
2120.67234	0.98053
2118.61543	0.98043
2116.55852	0.98036
2114.50161	0.98055
2112.44470	0.98030
2110.38780	0.97937
2108.33089	0.97929
2106.27398	0.98092
2104.21707	0.98216
2102.16016	0.98172
2100.10325	0.98127
2098.04635	0.98147
2095.98944	0.98181
2093.93253	0.98198
2091.87562	0.98167
2089.81871	0.98105
2087.76181	0.98112
2085.70490	0.98181
2083.64799	0.98197
2081.59108	0.98190
2079.53417	0.98251
2077.47726	0.98329
2075.42036	0.98276
2073.36345	0.98222
2071.30654	0.98289
2069.24963	0.98289
2067.19272	0.98249
2065.13582	0.98291
2063.07891	0.98344
2061.02200	0.98369
2058.96509	0.98382
2056.90818	0.98372
2054.85127	0.98335
2052.79437	0.98342
2050.73746	0.98413
2048.68055	0.98459
2046.62364	0.98460
2044.56673	0.98402
2042.50983	0.98225
2040.45292	0.98131
2038.39601	0.98310
2036.33910	0.98559
2034.28219	0.98667
2032.22528	0.98675
2030.16838	0.98697
2028.11147	0.98728
2026.05456	0.98665
2023.99765	0.98585
2021.94074	0.98578
2019.88384	0.98631
2017.82693	0.98706
2015.77002	0.98647
2013.71311	0.98443
2011.65620	0.98290
2009.59929	0.98285
2007.54239	0.98353
2005.48548	0.98430
2003.42857	0.98481
2001.37166	0.98489
1999.31475	0.98475
1997.25785	0.98391
1995.20094	0.98222
1993.14403	0.98095
1991.08712	0.98216
1989.03021	0.98476
1986.97330	0.98520
1984.91640	0.98466
1982.85949	0.98530
1980.80258	0.98553
1978.74567	0.98656
1976.68876	0.98865
1974.63186	0.98737
1972.57495	0.98475
1970.51804	0.98516
1968.46113	0.98632
1966.40422	0.98566
1964.34731	0.98513
1962.29041	0.98541
1960.23350	0.98540
1958.17659	0.98540
1956.11968	0.98585
1954.06277	0.98646
1952.00587	0.98690
1949.94896	0.98667
1947.89205	0.98565
1945.83514	0.98414
1943.77823	0.98284
1941.72132	0.98299
1939.66442	0.98413
1937.60751	0.98511
1935.55060	0.98578
1933.49369	0.98542
1931.43678	0.98425
1929.37988	0.98367
1927.32297	0.98350
1925.26606	0.98320
1923.20915	0.98305
1921.15224	0.98323
1919.09533	0.98336
1917.03843	0.98358
1914.98152	0.98445
1912.92461	0.98497
1910.86770	0.98442
1908.81079	0.98397
1906.75389	0.98443
1904.69698	0.98484
1902.64007	0.98500
1900.58316	0.98561
1898.52625	0.98653
1896.46934	0.98705
1894.41244	0.98699
1892.35553	0.98680
1890.29862	0.98605
1888.24171	0.98483
1886.18480	0.98479
1884.12790	0.98616
1882.07099	0.98681
1880.01408	0.98572
1877.95717	0.98437
1875.90026	0.98385
1873.84335	0.98412
1871.78645	0.98464
1869.72954	0.98479
1867.67263	0.98505
1865.61572	0.98584
1863.55881	0.98600
1861.50191	0.98540
1859.44500	0.98532
1857.38809	0.98576
1855.33118	0.98559
1853.27427	0.98536
1851.21736	0.98579
1849.16046	0.98617
1847.10355	0.98575
1845.04664	0.98503
1842.98973	0.98479
1840.93282	0.98472
1838.87592	0.98507
1836.81901	0.98579
1834.76210	0.98611
1832.70519	0.98633
1830.64828	0.98695
1828.59137	0.98686
1826.53447	0.98584
1824.47756	0.98520
1822.42065	0.98514
1820.36374	0.98530
1818.30683	0.98561
1816.24993	0.98564
1814.19302	0.98520
1812.13611	0.98481
1810.07920	0.98462
1808.02229	0.98436
1805.96538	0.98385
1803.90848	0.98332
1801.85157	0.98290
1799.79466	0.98263
1797.73775	0.98268
1795.68084	0.98280
1793.62394	0.98243
1791.56703	0.98131
1789.51012	0.98020
1787.45321	0.97958
1785.39630	0.97892
1783.33939	0.97757
1781.28249	0.97592
1779.22558	0.97405
1777.16867	0.97146
1775.11176	0.96818
1773.05485	0.96346
1770.99795	0.95654
1768.94104	0.94802
1766.88413	0.93735
1764.82722	0.92520
1762.77031	0.91083
1760.71340	0.89445
1758.65650	0.87972
1756.59959	0.86529
1754.54268	0.85251
1752.48577	0.84210
1750.42886	0.83075
1748.37196	0.81913
1746.31505	0.80985
1744.25814	0.80310
1742.20123	0.79858
1740.14432	0.79549
1738.08741	0.79444
1736.03051	0.79644
1733.97360	0.80124
1731.91669	0.80807
1729.85978	0.81605
1727.80287	0.82529
1725.74597	0.83527
1723.68906	0.84593
1721.63215	0.85620
1719.57524	0.86619
1717.51833	0.87810
1715.46142	0.89048
1713.40452	0.90040
1711.34761	0.90876
1709.29070	0.91637
1707.23379	0.92330
1705.17688	0.92915
1703.11998	0.93369
1701.06307	0.93804
1699.00616	0.94252
1696.94925	0.94604
1694.89234	0.94897
1692.83543	0.95136
1690.77853	0.95342
1688.72162	0.95517
1686.66471	0.95662
1684.60780	0.95846
1682.55089	0.96014
1680.49399	0.96129
1678.43708	0.96222
1676.38017	0.96272
1674.32326	0.96318
1672.26635	0.96412
1670.20944	0.96505
1668.15254	0.96530
1666.09563	0.96540
1664.03872	0.96577
1661.98181	0.96618
1659.92490	0.96637
1657.86800	0.96636
1655.81109	0.96600
1653.75418	0.96562
1651.69727	0.96607
1649.64036	0.96644
1647.58345	0.96640
1645.52655	0.96658
1643.46964	0.96707
1641.41273	0.96742
1639.35582	0.96760
1637.29891	0.96756
1635.24201	0.96734
1633.18510	0.96744
1631.12819	0.96798
1629.07128	0.96861
1627.01437	0.96910
1624.95746	0.96951
1622.90056	0.96998
1620.84365	0.97045
1618.78674	0.97081
1616.72983	0.97139
1614.67292	0.97245
1612.61602	0.97326
1610.55911	0.97354
1608.50220	0.97388
1606.44529	0.97422
1604.38838	0.97414
1602.33147	0.97415
1600.27457	0.97453
1598.21766	0.97489
1596.16075	0.97517
1594.10384	0.97557
1592.04693	0.97603
1589.99003	0.97628
1587.93312	0.97639
1585.87621	0.97665
1583.81930	0.97682
1581.76239	0.97673
1579.70548	0.97662
1577.64858	0.97681
1575.59167	0.97709
1573.53476	0.97717
1571.47785	0.97747
1569.42094	0.97793
1567.36404	0.97805
1565.30713	0.97792
1563.25022	0.97769
1561.19331	0.97751
1559.13640	0.97777
1557.07949	0.97833
1555.02259	0.97865
1552.96568	0.97881
1550.90877	0.97865
1548.85186	0.97841
1546.79495	0.97863
1544.73805	0.97909
1542.68114	0.97919
1540.62423	0.97879
1538.56732	0.97851
1536.51041	0.97873
1534.45350	0.97895
1532.39660	0.97882
1530.33969	0.97856
1528.28278	0.97848
1526.22587	0.97855
1524.16896	0.97874
1522.11206	0.97893
1520.05515	0.97909
1517.99824	0.97940
1515.94133	0.97958
1513.88442	0.97944
1511.82751	0.97928
1509.77061	0.97927
1507.71370	0.97926
1505.65679	0.97920
1503.59988	0.97932
1501.54297	0.97944
1499.48607	0.97946
1497.42916	0.97964
1495.37225	0.97982
1493.31534	0.97969
1491.25843	0.97962
1489.20152	0.97954
1487.14462	0.97930
1485.08771	0.97918
1483.03080	0.97905
1480.97389	0.97878
1478.91698	0.97840
1476.86008	0.97785
1474.80317	0.97713
1472.74626	0.97620
1470.68935	0.97514
1468.63244	0.97407
1466.57553	0.97266
1464.51863	0.97076
1462.46172	0.96900
1460.40481	0.96768
1458.34790	0.96638
1456.29099	0.96486
1454.23409	0.96366
1452.17718	0.96265
1450.12027	0.96149
1448.06336	0.96007
1446.00645	0.95842
1443.94954	0.95678
1441.89264	0.95518
1439.83573	0.95369
1437.77882	0.95218
1435.72191	0.95056
1433.66500	0.94976
1431.60810	0.94973
1429.55119	0.95024
1427.49428	0.95138
1425.43737	0.95257
1423.38046	0.95367
1421.32355	0.95500
1419.26665	0.95627
1417.20974	0.95708
1415.15283	0.95780
1413.09592	0.95881
1411.03901	0.95985
1408.98211	0.96049
1406.92520	0.96074
1404.86829	0.96073
1402.81138	0.96058
1400.75447	0.96041
1398.69756	0.95983
1396.64066	0.95811
1394.58375	0.95500
1392.52684	0.95100
1390.46993	0.94642
1388.41302	0.94049
1386.35612	0.93305
1384.29921	0.92554
1382.24230	0.91790
1380.18539	0.90982
1378.12848	0.90193
1376.07157	0.89431
1374.01467	0.88669
1371.95776	0.88058
1369.90085	0.87725
1367.84394	0.87678
1365.78703	0.87985
1363.73013	0.88716
1361.67322	0.89869
1359.61631	0.91185
1357.55940	0.92415
1355.50249	0.93464
1353.44558	0.94280
1351.38868	0.94859
1349.33177	0.95262
1347.27486	0.95553
1345.21795	0.95753
1343.16104	0.95878
1341.10414	0.95954
1339.04723	0.96013
1336.99032	0.96065
1334.93341	0.96090
1332.87650	0.96088
1330.81959	0.96061
1328.76269	0.96029
1326.70578	0.95998
1324.64887	0.95948
1322.59196	0.95896
1320.53505	0.95883
1318.47815	0.95912
1316.42124	0.95953
1314.36433	0.95993
1312.30742	0.96026
1310.25051	0.96046
1308.19360	0.96065
1306.13670	0.96075
1304.07979	0.96061
1302.02288	0.96030
1299.96597	0.95983
1297.90906	0.95903
1295.85216	0.95783
1293.79525	0.95640
1291.73834	0.95471
1289.68143	0.95283
1287.62452	0.95064
1285.56761	0.94795
1283.51071	0.94504
1281.45380	0.94179
1279.39689	0.93796
1277.33998	0.93365
1275.28307	0.92873
1273.22617	0.92327
1271.16926	0.91756
1269.11235	0.91141
1267.05544	0.90463
1264.99853	0.89739
1262.94162	0.88950
1260.88472	0.88077
1258.82781	0.87141
1256.77090	0.86152
1254.71399	0.85095
1252.65708	0.83996
1250.60018	0.82882
1248.54327	0.81736
1246.48636	0.80553
1244.42945	0.79347
1242.37254	0.78145
1240.31563	0.76946
1238.25873	0.75743
1236.20182	0.74578
1234.14491	0.73493
1232.08800	0.72519
1230.03109	0.71695
1227.97419	0.71069
1225.91728	0.70650
1223.86037	0.70398
1221.80346	0.70322
1219.74655	0.70478
1217.68964	0.70882
1215.63274	0.71549
1213.57583	0.72507
1211.51892	0.73769
1209.46201	0.75343
1207.40510	0.77178
1205.34820	0.79167
1203.29129	0.81199
1201.23438	0.83195
1199.17747	0.85057
1197.12056	0.86677
1195.06365	0.88028
1193.00675	0.89117
1190.94984	0.89933
1188.89293	0.90490
1186.83602	0.90841
1184.77911	0.91019
1182.72221	0.91038
1180.66530	0.90927
1178.60839	0.90709
1176.55148	0.90416
1174.49457	0.90130
1172.43766	0.89897
1170.38076	0.89693
1168.32385	0.89511
1166.26694	0.89390
1164.21003	0.89360
1162.15312	0.89416
1160.09622	0.89543
1158.03931	0.89728
1155.98240	0.89968
1153.92549	0.90256
1151.86858	0.90554
1149.81167	0.90833
1147.75477	0.91076
1145.69786	0.91239
1143.64095	0.91286
1141.58404	0.91210
1139.52713	0.91026
1137.47023	0.90771
1135.41332	0.90484
1133.35641	0.90165
1131.29950	0.89830
1129.24259	0.89513
1127.18568	0.89232
1125.12878	0.89007
1123.07187	0.88844
1121.01496	0.88748
1118.95805	0.88734
1116.90114	0.88769
1114.84424	0.88759
1112.78733	0.88684
1110.73042	0.88600
1108.67351	0.88488
1106.61660	0.88344
1104.55969	0.88208
1102.50279	0.88025
1100.44588	0.87742
1098.38897	0.87388
1096.33206	0.86987
1094.27515	0.86527
1092.21825	0.86012
1090.16134	0.85453
1088.10443	0.84820
1086.04752	0.84107
1083.99061	0.83359
1081.93370	0.82639
1079.87680	0.81954
1077.81989	0.81252
1075.76298	0.80553
1073.70607	0.79921
1071.64916	0.79327
1069.59226	0.78727
1067.53535	0.78147
1065.47844	0.77584
1063.42153	0.77021
1061.36462	0.76457
1059.30771	0.75863
1057.25081	0.75218
1055.19390	0.74521
1053.13699	0.73794
1051.08008	0.73082
1049.02317	0.72424
1046.96627	0.71863
1044.90936	0.71372
1042.85245	0.70883
1040.79554	0.70402
1038.73863	0.69943
1036.68172	0.69535
1034.62482	0.69250
1032.56791	0.69152
1030.51100	0.69316
1028.45409	0.69774
1026.39718	0.70468
1024.34028	0.71366
1022.28337	0.72441
1020.22646	0.73583
1018.16955	0.74719
1016.11264	0.75844
1014.05573	0.76935
1011.99883	0.77964
1009.94192	0.78950
1007.88501	0.79917
1005.82810	0.80853
1003.77119	0.81725
1001.71429	0.82505
999.65738	0.83201
997.60047	0.83852
995.54356	0.84456
993.48665	0.84955
991.42974	0.85346
989.37284	0.85694
987.31593	0.86042
985.25902	0.86367
983.20211	0.86645
981.14520	0.86931
979.08830	0.87270
977.03139	0.87634
974.97448	0.88042
972.91757	0.88534
970.86066	0.89038
968.80375	0.89463
966.74685	0.89816
964.68994	0.90137
962.63303	0.90409
960.57612	0.90603
958.51921	0.90743
956.46231	0.90873
954.40540	0.91008
952.34849	0.91142
950.29158	0.91261
948.23467	0.91356
946.17776	0.91455
944.12086	0.91596
942.06395	0.91765
940.00704	0.91923
937.95013	0.92050
935.89322	0.92115
933.83632	0.92101
931.77941	0.92065
929.72250	0.91999
927.66559	0.91836
925.60868	0.91658
923.55177	0.91537
921.49487	0.91400
919.43796	0.91258
917.38105	0.91163
915.32414	0.91067
913.26723	0.90934
911.21033	0.90796
909.15342	0.90659
907.09651	0.90511
905.03960	0.90384
902.98269	0.90316
900.92578	0.90319
898.86888	0.90388
896.81197	0.90548
894.75506	0.90819
892.69815	0.91112
890.64124	0.91335
888.58434	0.91499
886.52743	0.91657
884.47052	0.91841
882.41361	0.92055
880.35670	0.92269
878.29979	0.92452
876.24289	0.92632
874.18598	0.92853
872.12907	0.93133
870.07216	0.93422
868.01525	0.93669
865.95835	0.93883
863.90144	0.94096
861.84453	0.94294
859.78762	0.94445
857.73071	0.94546
855.67380	0.94619
853.61690	0.94699
851.55999	0.94731
849.50308	0.94667
847.44617	0.94591
845.38926	0.94540
843.33236	0.94497
841.27545	0.94484
839.21854	0.94480
837.16163	0.94457
835.10472	0.94485
833.04781	0.94607
830.99091	0.94755
828.93400	0.94899
826.87709	0.95034
824.82018	0.95161
822.76327	0.95279
820.70637	0.95357
818.64946	0.95443
816.59255	0.95572
814.53564	0.95669
812.47873	0.95709
810.42182	0.95765
808.36492	0.95843
806.30801	0.95888
804.25110	0.95914
802.19419	0.95936
800.13728	0.95927
798.08038	0.95941
796.02347	0.96012
793.96656	0.96070
791.90965	0.96084
789.85274	0.96084
787.79583	0.96091
785.73893	0.96102
783.68202	0.96111
781.62511	0.96141
779.56820	0.96161
777.51129	0.96128
775.45439	0.96120
773.39748	0.96163
771.34057	0.96181
769.28366	0.96192
767.22675	0.96212
765.16984	0.96236
763.11294	0.96268
761.05603	0.96292
758.99912	0.96317
756.94221	0.96328
754.88530	0.96289
752.82839	0.96252
750.77149	0.96299
748.71458	0.96396
746.65767	0.96456
744.60076	0.96468
742.54385	0.96462
740.48695	0.96444
738.43004	0.96423
736.37313	0.96370
734.31622	0.96288
732.25931	0.96239
730.20240	0.96204
728.14550	0.96122
726.08859	0.95975
724.03168	0.95824
721.97477	0.95776
719.91786	0.95818
717.86096	0.95808
715.80405	0.95716
713.74714	0.95622
711.69023	0.95579
709.63332	0.95589
707.57641	0.95604
705.51951	0.95615
703.46260	0.95643
701.40569	0.95653
699.34878	0.95573
697.29187	0.95412
695.23497	0.95246
693.17806	0.95119
691.12115	0.95055
689.06424	0.95051
687.00733	0.95056
684.95042	0.95065
682.89352	0.95060
680.83661	0.94998
678.77970	0.94974
676.72279	0.95010
674.66588	0.95057
672.60898	0.95128
670.55207	0.95186
668.49516	0.95177
666.43825	0.95102
664.38134	0.95044
662.32443	0.94988
660.26753	0.94901
658.21062	0.94808
656.15371	0.94721
654.09680	0.94643
652.03989	0.94551
649.98299	0.94412
647.92608	0.94247
645.86917	0.94064
643.81226	0.93860
641.75535	0.93684
639.69844	0.93541
637.64154	0.93376
635.58463	0.93242
633.52772	0.93221
631.47081	0.93204
629.41390	0.93106
627.35700	0.92948
625.30009	0.92809
623.24318	0.92742
621.18627	0.92588
619.12936	0.92237
617.07245	0.91876
615.01555	0.91607
612.95864	0.91234
610.90173	0.90715
608.84482	0.90135
606.78791	0.89510
604.73101	0.88991
602.67410	0.88771
600.61719	0.88931
598.56028	0.89383
596.50337	0.89918
594.44646	0.90412
592.38956	0.90915
590.33265	0.91493
588.27574	0.91996
586.21883	0.92315
584.16192	0.92618
582.10502	0.92956
580.04811	0.93145
577.99120	0.93150
575.93429	0.93054
573.87738	0.92866
571.82047	0.92652
569.76357	0.92507
567.70666	0.92438
565.64975	0.92461
563.59284	0.92454
561.53593	0.92302
559.47903	0.92175
557.42212	0.92176
555.36521	0.92227
553.30830	0.92347
551.25139	0.92562
549.19448	0.92761
547.13758	0.92826
545.08067	0.92765
543.02376	0.92757
540.96685	0.92806
538.90994	0.92763
536.85304	0.92784
534.79613	0.92900
532.73922	0.92849
530.68231	0.92740
528.62540	0.92781
526.56849	0.92726
524.51159	0.92554
522.45468	0.92581
520.39777	0.92669
518.34086	0.92583
516.28395	0.92431
514.22705	0.92303
512.17014	0.92171
510.11323	0.92106
508.05632	0.92114
505.99941	0.92133
503.94250	0.92214
501.88560	0.92246
499.82869	0.92118
497.77178	0.92011
495.71487	0.91925
493.65796	0.91733
491.60106	0.91502
489.54415	0.91385
487.48724	0.91415
485.43033	0.91377
483.37342	0.91316
481.31651	0.91458
479.25961	0.91584
477.20270	0.91559
475.14579	0.91546
473.08888	0.91499
471.03197	0.91254
468.97507	0.90926
466.91816	0.90664
464.86125	0.90434
462.80434	0.90217
460.74743	0.90065
458.69052	0.89876
456.63362	0.89724
454.57671	0.89893
452.51980	0.90188
450.46289	0.90340
448.40598	0.90413
446.34908	0.90571
444.29217	0.90794
442.23526	0.90880
440.17835	0.90829
438.12144	0.90900
436.06453	0.91067
434.00763	0.91163
431.95072	0.91293
429.89381	0.91427
427.83690	0.91320
425.77999	0.90999
423.72309	0.90767
421.66618	0.90939
419.60927	0.91451
417.55236	0.91564
415.49545	0.91336
413.43854	0.91274
411.38164	0.91271
409.32473	0.91265
407.26782	0.91169
405.21091	0.90978
403.15400	0.90904
401.09710	0.90971
399.04019	0.90884
