3996.57260	0.98964
3994.51569	0.98884
3992.45878	0.98841
3990.40188	0.98859
3988.34497	0.98910
3986.28806	0.98944
3984.23115	0.98942
3982.17424	0.98877
3980.11733	0.98791
3978.06043	0.98754
3976.00352	0.98775
3973.94661	0.98835
3971.88970	0.98914
3969.83279	0.98947
3967.77589	0.98905
3965.71898	0.98903
3963.66207	0.98978
3961.60516	0.99021
3959.54825	0.99017
3957.49134	0.99017
3955.43444	0.99005
3953.37753	0.98947
3951.32062	0.98889
3949.26371	0.98885
3947.20680	0.98898
3945.14990	0.98909
3943.09299	0.98959
3941.03608	0.99003
3938.97917	0.98953
3936.92226	0.98864
3934.86535	0.98847
3932.80845	0.98863
3930.75154	0.98853
3928.69463	0.98878
3926.63772	0.98945
3924.58081	0.98961
3922.52391	0.98907
3920.46700	0.98857
3918.41009	0.98832
3916.35318	0.98846
3914.29627	0.98893
3912.23936	0.98914
3910.18246	0.98904
3908.12555	0.98919
3906.06864	0.98955
3904.01173	0.98971
3901.95482	0.98973
3899.89792	0.98949
3897.84101	0.98928
3895.78410	0.98936
3893.72719	0.98934
3891.67028	0.98903
3889.61337	0.98864
3887.55647	0.98837
3885.49956	0.98826
3883.44265	0.98842
3881.38574	0.98844
3879.32883	0.98844
3877.27193	0.98896
3875.21502	0.98920
3873.15811	0.98852
3871.10120	0.98801
3869.04429	0.98807
3866.98738	0.98794
3864.93048	0.98782
3862.87357	0.98813
3860.81666	0.98863
3858.75975	0.98905
3856.70284	0.98945
3854.64594	0.98950
3852.58903	0.98874
3850.53212	0.98847
3848.47521	0.98879
3846.41830	0.98922
3844.36139	0.98952
3842.30449	0.98939
3840.24758	0.98938
3838.19067	0.99002
3836.13376	0.99054
3834.07685	0.99040
3832.01995	0.99006
3829.96304	0.98965
3827.90613	0.98887
3825.84922	0.98798
3823.79231	0.98782
3821.73540	0.98858
3819.67850	0.98944
3817.62159	0.98977
3815.56468	0.98937
3813.50777	0.98877
3811.45086	0.98885
3809.39396	0.98908
3807.33705	0.98893
3805.28014	0.98900
3803.22323	0.98969
3801.16632	0.99055
3799.10941	0.99069
3797.05251	0.98987
3794.99560	0.98894
3792.93869	0.98902
3790.88178	0.98950
3788.82487	0.98943
3786.76796	0.98914
3784.71106	0.98920
3782.65415	0.98942
3780.59724	0.98926
3778.54033	0.98906
3776.48342	0.98960
3774.42652	0.99035
3772.36961	0.99074
3770.31270	0.99097
3768.25579	0.99073
3766.19888	0.98982
3764.14197	0.98893
3762.08507	0.98869
3760.02816	0.98938
3757.97125	0.99028
3755.91434	0.99017
3753.85743	0.98958
3751.80053	0.98896
3749.74362	0.98816
3747.68671	0.98853
3745.62980	0.99001
3743.57289	0.99049
3741.51598	0.99018
3739.45908	0.99026
3737.40217	0.99000
3735.34526	0.99002
3733.28835	0.99064
3731.23144	0.99032
3729.17454	0.99004
3727.11763	0.99016
3725.06072	0.99001
3723.00381	0.99018
3720.94690	0.99042
3718.88999	0.99012
3716.83309	0.99009
3714.77618	0.99026
3712.71927	0.98979
3710.66236	0.98883
3708.60545	0.98858
3706.54855	0.98906
3704.49164	0.98942
3702.43473	0.98964
3700.37782	0.99028
3698.32091	0.99112
3696.26400	0.99116
3694.20710	0.99019
3692.15019	0.98936
3690.09328	0.98933
3688.03637	0.98995
3685.97946	0.99050
3683.92256	0.99066
3681.86565	0.99037
3679.80874	0.98981
3677.75183	0.99001
3675.69492	0.99116
3673.63801	0.99127
3671.58111	0.98980
3669.52420	0.98851
3667.46729	0.98901
3665.41038	0.99002
3663.35347	0.99038
3661.29657	0.99020
3659.23966	0.99004
3657.18275	0.99042
3655.12584	0.99117
3653.06893	0.99125
3651.01202	0.99071
3648.95512	0.99058
3646.89821	0.99040
3644.84130	0.98955
3642.78439	0.98875
3640.72748	0.98844
3638.67058	0.98889
3636.61367	0.98980
3634.55676	0.99056
3632.49985	0.99088
3630.44294	0.99078
3628.38603	0.99024
3626.32913	0.99002
3624.27222	0.99019
3622.21531	0.98970
3620.15840	0.98864
3618.10149	0.98838
3616.04459	0.98895
3613.98768	0.98922
3611.93077	0.98919
3609.87386	0.98904
3607.81695	0.98842
3605.76004	0.98831
3603.70314	0.98871
3601.64623	0.98829
3599.58932	0.98715
3597.53241	0.98642
3595.47550	0.98638
3593.41860	0.98638
3591.36169	0.98617
3589.30478	0.98615
3587.24787	0.98591
3585.19096	0.98509
3583.13405	0.98466
3581.07715	0.98508
3579.02024	0.98533
3576.96333	0.98456
3574.90642	0.98365
3572.84951	0.98357
3570.79261	0.98366
3568.73570	0.98318
3566.67879	0.98295
3564.62188	0.98300
3562.56497	0.98226
3560.50806	0.98133
3558.45116	0.98081
3556.39425	0.98019
3554.33734	0.97974
3552.28043	0.97990
3550.22352	0.97973
3548.16662	0.97887
3546.10971	0.97817
3544.05280	0.97795
3541.99589	0.97746
3539.93898	0.97647
3537.88207	0.97568
3535.82517	0.97550
3533.76826	0.97564
3531.71135	0.97568
3529.65444	0.97555
3527.59753	0.97551
3525.54063	0.97545
3523.48372	0.97485
3521.42681	0.97397
3519.36990	0.97302
3517.31299	0.97212
3515.25608	0.97162
3513.19918	0.97137
3511.14227	0.97115
3509.08536	0.97097
3507.02845	0.97058
3504.97154	0.96942
3502.91464	0.96798
3500.85773	0.96747
3498.80082	0.96766
3496.74391	0.96764
3494.68700	0.96715
3492.63009	0.96670
3490.57319	0.96680
3488.51628	0.96658
3486.45937	0.96516
3484.40246	0.96390
3482.34555	0.96388
3480.28865	0.96399
3478.23174	0.96349
3476.17483	0.96277
3474.11792	0.96197
3472.06101	0.96145
3470.00410	0.96135
3467.94720	0.96128
3465.89029	0.96139
3463.83338	0.96166
3461.77647	0.96135
3459.71956	0.96031
3457.66266	0.95892
3455.60575	0.95802
3453.54884	0.95827
3451.49193	0.95881
3449.43502	0.95883
3447.37811	0.95854
3445.32121	0.95813
3443.26430	0.95763
3441.20739	0.95715
3439.15048	0.95696
3437.09357	0.95718
3435.03667	0.95735
3432.97976	0.95718
3430.92285	0.95687
3428.86594	0.95642
3426.80903	0.95569
3424.75212	0.95529
3422.69522	0.95588
3420.63831	0.95646
3418.58140	0.95615
3416.52449	0.95596
3414.46758	0.95625
3412.41068	0.95618
3410.35377	0.95581
3408.29686	0.95550
3406.23995	0.95501
3404.18304	0.95456
3402.12613	0.95462
3400.06923	0.95491
3398.01232	0.95500
3395.95541	0.95478
3393.89850	0.95424
3391.84159	0.95391
3389.78469	0.95446
3387.72778	0.95546
3385.67087	0.95589
3383.61396	0.95560
3381.55705	0.95543
3379.50014	0.95561
3377.44324	0.95584
3375.38633	0.95605
3373.32942	0.95596
3371.27251	0.95556
3369.21560	0.95502
3367.15870	0.95477
3365.10179	0.95503
3363.04488	0.95527
3360.98797	0.95517
3358.93106	0.95490
3356.87415	0.95460
3354.81725	0.95459
3352.76034	0.95516
3350.70343	0.95564
3348.64652	0.95551
3346.58961	0.95575
3344.53271	0.95651
3342.47580	0.95696
3340.41889	0.95707
3338.36198	0.95672
3336.30507	0.95619
3334.24816	0.95614
3332.19126	0.95626
3330.13435	0.95651
3328.07744	0.95725
3326.02053	0.95811
3323.96362	0.95866
3321.90672	0.95878
3319.84981	0.95824
3317.79290	0.95743
3315.73599	0.95729
3313.67908	0.95751
3311.62217	0.95750
3309.56527	0.95769
3307.50836	0.95818
3305.45145	0.95849
3303.39454	0.95870
3301.33763	0.95912
3299.28073	0.95932
3297.22382	0.95904
3295.16691	0.95907
3293.11000	0.95978
3291.05309	0.96048
3288.99618	0.96062
3286.93928	0.96056
3284.88237	0.96078
3282.82546	0.96105
3280.76855	0.96122
3278.71164	0.96132
3276.65474	0.96126
3274.59783	0.96119
3272.54092	0.96125
3270.48401	0.96134
3268.42710	0.96145
3266.37019	0.96156
3264.31329	0.96170
3262.25638	0.96231
3260.19947	0.96324
3258.14256	0.96373
3256.08565	0.96366
3254.02875	0.96373
3251.97184	0.96429
3249.91493	0.96476
3247.85802	0.96470
3245.80111	0.96441
3243.74420	0.96444
3241.68730	0.96464
3239.63039	0.96459
3237.57348	0.96476
3235.51657	0.96532
3233.45966	0.96566
3231.40276	0.96578
3229.34585	0.96590
3227.28894	0.96610
3225.23203	0.96664
3223.17512	0.96727
3221.11821	0.96772
3219.06131	0.96813
3217.00440	0.96846
3214.94749	0.96848
3212.89058	0.96845
3210.83367	0.96862
3208.77677	0.96902
3206.71986	0.96951
3204.66295	0.96948
3202.60604	0.96916
3200.54913	0.96905
3198.49222	0.96919
3196.43532	0.96968
3194.37841	0.96994
3192.32150	0.96974
3190.26459	0.96986
3188.20768	0.97041
3186.15078	0.97088
3184.09387	0.97106
3182.03696	0.97119
3179.98005	0.97160
3177.92314	0.97247
3175.86623	0.97336
3173.80933	0.97350
3171.75242	0.97291
3169.69551	0.97232
3167.63860	0.97236
3165.58169	0.97293
3163.52479	0.97337
3161.46788	0.97358
3159.41097	0.97392
3157.35406	0.97425
3155.29715	0.97432
3153.24024	0.97440
3151.18334	0.97453
3149.12643	0.97443
3147.06952	0.97417
3145.01261	0.97410
3142.95570	0.97434
3140.89880	0.97477
3138.84189	0.97534
3136.78498	0.97594
3134.72807	0.97607
3132.67116	0.97572
3130.61425	0.97558
3128.55735	0.97553
3126.50044	0.97565
3124.44353	0.97634
3122.38662	0.97682
3120.32971	0.97661
3118.27281	0.97654
3116.21590	0.97670
3114.15899	0.97649
3112.10208	0.97613
3110.04517	0.97622
3107.98826	0.97687
3105.93136	0.97761
3103.87445	0.97825
3101.81754	0.97886
3099.76063	0.97881
3097.70372	0.97811
3095.64682	0.97771
3093.58991	0.97790
3091.53300	0.97840
3089.47609	0.97891
3087.41918	0.97906
3085.36227	0.97889
3083.30537	0.97894
3081.24846	0.97943
3079.19155	0.97990
3077.13464	0.97985
3075.07773	0.97964
3073.02083	0.97951
3070.96392	0.97928
3068.90701	0.97885
3066.85010	0.97850
3064.79319	0.97879
3062.73628	0.97945
3060.67938	0.97971
3058.62247	0.97964
3056.56556	0.97981
3054.50865	0.98000
3052.45174	0.97966
3050.39484	0.97935
3048.33793	0.97969
3046.28102	0.98031
3044.22411	0.98069
3042.16720	0.98057
3040.11029	0.98017
3038.05339	0.98021
3035.99648	0.98075
3033.93957	0.98113
3031.88266	0.98099
3029.82575	0.98066
3027.76885	0.98071
3025.71194	0.98107
3023.65503	0.98137
3021.59812	0.98140
3019.54121	0.98104
3017.48430	0.98060
3015.42740	0.98074
3013.37049	0.98132
3011.31358	0.98170
3009.25667	0.98164
3007.19976	0.98126
3005.14286	0.98112
3003.08595	0.98155
3001.02904	0.98177
2998.97213	0.98137
2996.91522	0.98106
2994.85831	0.98095
2992.80141	0.98076
2990.74450	0.98077
2988.68759	0.98076
2986.63068	0.98053
2984.57377	0.98044
2982.51687	0.98027
2980.45996	0.97983
2978.40305	0.97976
2976.34614	0.97989
2974.28923	0.97955
2972.23232	0.97899
2970.17542	0.97869
2968.11851	0.97835
2966.06160	0.97811
2964.00469	0.97835
2961.94778	0.97846
2959.89088	0.97826
2957.83397	0.97796
2955.77706	0.97727
2953.72015	0.97650
2951.66324	0.97604
2949.60633	0.97566
2947.54943	0.97530
2945.49252	0.97483
2943.43561	0.97404
2941.37870	0.97336
2939.32179	0.97317
2937.26489	0.97304
2935.20798	0.97261
2933.15107	0.97228
2931.09416	0.97219
2929.03725	0.97180
2926.98034	0.97131
2924.92344	0.97081
2922.86653	0.97042
2920.80962	0.97076
2918.75271	0.97130
2916.69580	0.97131
2914.63890	0.97091
2912.58199	0.97039
2910.52508	0.96995
2908.46817	0.96967
2906.41126	0.96957
2904.35435	0.96930
2902.29745	0.96870
2900.24054	0.96846
2898.18363	0.96878
2896.12672	0.96905
2894.06981	0.96892
2892.01291	0.96854
2889.95600	0.96808
2887.89909	0.96775
2885.84218	0.96780
2883.78527	0.96807
2881.72836	0.96821
2879.67146	0.96836
2877.61455	0.96864
2875.55764	0.96878
2873.50073	0.96868
2871.44382	0.96845
2869.38692	0.96865
2867.33001	0.96929
2865.27310	0.96980
2863.21619	0.97016
2861.15928	0.97054
2859.10237	0.97108
2857.04547	0.97170
2854.98856	0.97230
2852.93165	0.97300
2850.87474	0.97364
2848.81783	0.97401
2846.76093	0.97419
2844.70402	0.97418
2842.64711	0.97428
2840.59020	0.97486
2838.53329	0.97568
2836.47638	0.97633
2834.41948	0.97670
2832.36257	0.97683
2830.30566	0.97705
2828.24875	0.97742
2826.19184	0.97743
2824.13494	0.97733
2822.07803	0.97759
2820.02112	0.97798
2817.96421	0.97838
2815.90730	0.97866
2813.85039	0.97874
2811.79349	0.97869
2809.73658	0.97853
2807.67967	0.97840
2805.62276	0.97856
2803.56585	0.97885
2801.50895	0.97879
2799.45204	0.97853
2797.39513	0.97841
2795.33822	0.97837
2793.28131	0.97858
2791.22440	0.97905
2789.16750	0.97941
2787.11059	0.97967
2785.05368	0.97971
2782.99677	0.97944
2780.93986	0.97928
2778.88296	0.97941
2776.82605	0.97948
2774.76914	0.97952
2772.71223	0.97973
2770.65532	0.97993
2768.59841	0.97998
2766.54151	0.98008
2764.48460	0.98009
2762.42769	0.97978
2760.37078	0.97964
2758.31387	0.98002
2756.25697	0.98032
2754.20006	0.98014
2752.14315	0.97991
2750.08624	0.97993
2748.02933	0.98006
2745.97242	0.97993
2743.91552	0.97966
2741.85861	0.97967
2739.80170	0.98002
2737.74479	0.98038
2735.68788	0.98051
2733.63098	0.98052
2731.57407	0.98045
2729.51716	0.98027
2727.46025	0.98016
2725.40334	0.98009
2723.34643	0.97986
2721.28953	0.97965
2719.23262	0.97968
2717.17571	0.98011
2715.11880	0.98084
2713.06189	0.98127
2711.00499	0.98120
2708.94808	0.98079
2706.89117	0.98046
2704.83426	0.98057
2702.77735	0.98080
2700.72044	0.98083
2698.66354	0.98081
2696.60663	0.98071
2694.54972	0.98051
2692.49281	0.98052
2690.43590	0.98075
2688.37900	0.98093
2686.32209	0.98115
2684.26518	0.98142
2682.20827	0.98139
2680.15136	0.98116
2678.09445	0.98103
2676.03755	0.98107
2673.98064	0.98119
2671.92373	0.98115
2669.86682	0.98108
2667.80991	0.98101
2665.75301	0.98100
2663.69610	0.98114
2661.63919	0.98115
2659.58228	0.98113
2657.52537	0.98104
2655.46846	0.98064
2653.41156	0.98023
2651.35465	0.98017
2649.29774	0.98045
2647.24083	0.98096
2645.18392	0.98159
2643.12702	0.98201
2641.07011	0.98175
2639.01320	0.98132
2636.95629	0.98109
2634.89938	0.98096
2632.84247	0.98127
2630.78557	0.98175
2628.72866	0.98164
2626.67175	0.98102
2624.61484	0.98075
2622.55793	0.98134
2620.50103	0.98183
2618.44412	0.98153
2616.38721	0.98140
2614.33030	0.98210
2612.27339	0.98278
2610.21648	0.98280
2608.15958	0.98239
2606.10267	0.98200
2604.04576	0.98186
2601.98885	0.98191
2599.93194	0.98239
2597.87504	0.98314
2595.81813	0.98334
2593.76122	0.98293
2591.70431	0.98237
2589.64740	0.98193
2587.59049	0.98177
2585.53359	0.98186
2583.47668	0.98207
2581.41977	0.98193
2579.36286	0.98173
2577.30595	0.98206
2575.24905	0.98220
2573.19214	0.98218
2571.13523	0.98246
2569.07832	0.98252
2567.02141	0.98247
2564.96450	0.98292
2562.90760	0.98365
2560.85069	0.98358
2558.79378	0.98283
2556.73687	0.98261
2554.67996	0.98294
2552.62306	0.98301
2550.56615	0.98261
2548.50924	0.98230
2546.45233	0.98233
2544.39542	0.98249
2542.33851	0.98251
2540.28161	0.98264
2538.22470	0.98334
2536.16779	0.98407
2534.11088	0.98426
2532.05397	0.98385
2529.99707	0.98338
2527.94016	0.98335
2525.88325	0.98323
2523.82634	0.98304
2521.76943	0.98310
2519.71252	0.98307
2517.65562	0.98300
2515.59871	0.98321
2513.54180	0.98329
2511.48489	0.98322
2509.42798	0.98351
2507.37108	0.98390
2505.31417	0.98371
2503.25726	0.98330
2501.20035	0.98328
2499.14344	0.98312
2497.08653	0.98297
2495.02963	0.98356
2492.97272	0.98404
2490.91581	0.98363
2488.85890	0.98351
2486.80199	0.98413
2484.74509	0.98435
2482.68818	0.98403
2480.63127	0.98387
2478.57436	0.98400
2476.51745	0.98388
2474.46054	0.98319
2472.40364	0.98270
2470.34673	0.98299
2468.28982	0.98392
2466.23291	0.98482
2464.17600	0.98491
2462.11910	0.98432
2460.06219	0.98392
2458.00528	0.98383
2455.94837	0.98346
2453.89146	0.98297
2451.83455	0.98287
2449.77765	0.98333
2447.72074	0.98389
2445.66383	0.98399
2443.60692	0.98406
2441.55001	0.98402
2439.49311	0.98338
2437.43620	0.98327
2435.37929	0.98410
2433.32238	0.98434
2431.26547	0.98348
2429.20856	0.98270
2427.15166	0.98284
2425.09475	0.98373
2423.03784	0.98444
2420.98093	0.98429
2418.92402	0.98422
2416.86712	0.98459
2414.81021	0.98456
2412.75330	0.98418
2410.69639	0.98378
2408.63948	0.98335
2406.58257	0.98325
2404.52567	0.98354
2402.46876	0.98372
2400.41185	0.98381
2398.35494	0.98413
2396.29803	0.98452
2394.24113	0.98471
2392.18422	0.98476
2390.12731	0.98478
2388.07040	0.98487
2386.01349	0.98505
2383.95658	0.98498
2381.89968	0.98461
2379.84277	0.98420
2377.78586	0.98370
2375.72895	0.98329
2373.67204	0.98337
2371.61514	0.98378
2369.55823	0.98429
2367.50132	0.98446
2365.44441	0.98459
2363.38750	0.98556
2361.33059	0.98656
2359.27369	0.98638
2357.21678	0.98554
2355.15987	0.98481
2353.10296	0.98419
2351.04605	0.98382
2348.98915	0.98320
2346.93224	0.98230
2344.87533	0.98247
2342.81842	0.98351
2340.76151	0.98382
2338.70460	0.98375
2336.64770	0.98371
2334.59079	0.98386
2332.53388	0.98422
2330.47697	0.98413
2328.42006	0.98330
2326.36316	0.98192
2324.30625	0.98101
2322.24934	0.98156
2320.19243	0.98258
2318.13552	0.98273
2316.07861	0.98270
2314.02171	0.98315
2311.96480	0.98347
2309.90789	0.98340
2307.85098	0.98342
2305.79407	0.98350
2303.73717	0.98328
2301.68026	0.98291
2299.62335	0.98265
2297.56644	0.98270
2295.50953	0.98311
2293.45262	0.98346
2291.39572	0.98386
2289.33881	0.98437
2287.28190	0.98427
2285.22499	0.98359
2283.16808	0.98273
2281.11117	0.98213
2279.05427	0.98253
2276.99736	0.98389
2274.94045	0.98496
2272.88354	0.98493
2270.82663	0.98437
2268.76973	0.98386
2266.71282	0.98345
2264.65591	0.98309
2262.59900	0.98348
2260.54209	0.98443
2258.48518	0.98472
2256.42828	0.98525
2254.37137	0.98591
2252.31446	0.98554
2250.25755	0.98522
2248.20064	0.98562
2246.14374	0.98639
2244.08683	0.98682
2242.02992	0.98654
2239.97301	0.98657
2237.91610	0.98668
2235.85919	0.98548
2233.80229	0.98391
2231.74538	0.98357
2229.68847	0.98382
2227.63156	0.98400
2225.57465	0.98470
2223.51775	0.98534
2221.46084	0.98494
2219.40393	0.98436
2217.34702	0.98441
2215.29011	0.98463
2213.23320	0.98476
2211.17630	0.98412
2209.11939	0.98307
2207.06248	0.98303
2205.00557	0.98418
2202.94866	0.98570
2200.89176	0.98591
2198.83485	0.98441
2196.77794	0.98337
2194.72103	0.98388
2192.66412	0.98515
2190.60721	0.98593
2188.55031	0.98583
2186.49340	0.98597
2184.43649	0.98686
2182.37958	0.98796
2180.32267	0.98788
2178.26577	0.98608
2176.20886	0.98404
2174.15195	0.98293
2172.09504	0.98340
2170.03813	0.98462
2167.98122	0.98399
2165.92432	0.98185
2163.86741	0.98164
2161.81050	0.98328
2159.75359	0.98519
2157.69668	0.98785
2155.63978	0.98935
2153.58287	0.98864
2151.52596	0.98779
2149.46905	0.98769
2147.41214	0.98750
2145.35523	0.98703
2143.29833	0.98656
2141.24142	0.98594
2139.18451	0.98554
2137.12760	0.98591
2135.07069	0.98659
2133.01379	0.98725
2130.95688	0.98726
2128.89997	0.98606
2126.84306	0.98509
2124.78615	0.98522
2122.72924	0.98563
2120.67234	0.98654
2118.61543	0.98724
2116.55852	0.98641
2114.50161	0.98528
2112.44470	0.98487
2110.38780	0.98497
2108.33089	0.98517
2106.27398	0.98511
2104.21707	0.98505
2102.16016	0.98516
2100.10325	0.98567
2098.04635	0.98628
2095.98944	0.98583
2093.93253	0.98458
2091.87562	0.98446
2089.81871	0.98519
2087.76181	0.98532
2085.70490	0.98575
2083.64799	0.98703
2081.59108	0.98775
2079.53417	0.98785
2077.47726	0.98777
2075.42036	0.98699
2073.36345	0.98634
2071.30654	0.98645
2069.24963	0.98635
2067.19272	0.98608
2065.13582	0.98632
2063.07891	0.98670
2061.02200	0.98671
2058.96509	0.98640
2056.90818	0.98585
2054.85127	0.98472
2052.79437	0.98314
2050.73746	0.98261
2048.68055	0.98373
2046.62364	0.98490
2044.56673	0.98365
2042.50983	0.98129
2040.45292	0.98188
2038.39601	0.98470
2036.33910	0.98629
2034.28219	0.98630
2032.22528	0.98667
2030.16838	0.98779
2028.11147	0.98909
2026.05456	0.99055
2023.99765	0.99074
2021.94074	0.98928
2019.88384	0.98883
2017.82693	0.98970
2015.77002	0.98866
2013.71311	0.98573
2011.65620	0.98442
2009.59929	0.98520
2007.54239	0.98604
2005.48548	0.98706
2003.42857	0.98872
2001.37166	0.98926
1999.31475	0.98777
1997.25785	0.98605
1995.20094	0.98572
1993.14403	0.98663
1991.08712	0.98781
1989.03021	0.98793
1986.97330	0.98685
1984.91640	0.98620
1982.85949	0.98567
1980.80258	0.98397
1978.74567	0.98261
1976.68876	0.98316
1974.63186	0.98538
1972.57495	0.98770
1970.51804	0.98848
1968.46113	0.98847
1966.40422	0.98812
1964.34731	0.98720
1962.29041	0.98701
1960.23350	0.98810
1958.17659	0.98986
1956.11968	0.99088
1954.06277	0.99025
1952.00587	0.98921
1949.94896	0.98853
1947.89205	0.98778
1945.83514	0.98812
1943.77823	0.98993
1941.72132	0.98986
1939.66442	0.98710
1937.60751	0.98502
1935.55060	0.98484
1933.49369	0.98551
1931.43678	0.98629
1929.37988	0.98693
1927.32297	0.98751
1925.26606	0.98788
1923.20915	0.98790
1921.15224	0.98778
1919.09533	0.98731
1917.03843	0.98674
1914.98152	0.98658
1912.92461	0.98656
1910.86770	0.98648
1908.81079	0.98640
1906.75389	0.98601
1904.69698	0.98533
1902.64007	0.98511
1900.58316	0.98532
1898.52625	0.98556
1896.46934	0.98573
1894.41244	0.98576
1892.35553	0.98598
1890.29862	0.98676
1888.24171	0.98778
1886.18480	0.98791
1884.12790	0.98744
1882.07099	0.98736
1880.01408	0.98735
1877.95717	0.98667
1875.90026	0.98574
1873.84335	0.98533
1871.78645	0.98534
1869.72954	0.98573
1867.67263	0.98631
1865.61572	0.98624
1863.55881	0.98556
1861.50191	0.98501
1859.44500	0.98531
1857.38809	0.98639
1855.33118	0.98733
1853.27427	0.98774
1851.21736	0.98769
1849.16046	0.98715
1847.10355	0.98665
1845.04664	0.98651
1842.98973	0.98654
1840.93282	0.98658
1838.87592	0.98655
1836.81901	0.98680
1834.76210	0.98738
1832.70519	0.98748
1830.64828	0.98707
1828.59137	0.98682
1826.53447	0.98667
1824.47756	0.98642
1822.42065	0.98658
1820.36374	0.98696
1818.30683	0.98671
1816.24993	0.98623
1814.19302	0.98621
1812.13611	0.98632
1810.07920	0.98619
1808.02229	0.98599
1805.96538	0.98599
1803.90848	0.98615
1801.85157	0.98612
1799.79466	0.98614
1797.73775	0.98647
1795.68084	0.98655
1793.62394	0.98626
1791.56703	0.98608
1789.51012	0.98628
1787.45321	0.98635
1785.39630	0.98608
1783.33939	0.98574
1781.28249	0.98568
1779.22558	0.98598
1777.16867	0.98621
1775.11176	0.98609
1773.05485	0.98578
1770.99795	0.98526
1768.94104	0.98433
1766.88413	0.98327
1764.82722	0.98250
1762.77031	0.98144
1760.71340	0.97952
1758.65650	0.97727
1756.59959	0.97480
1754.54268	0.97229
1752.48577	0.96940
1750.42886	0.96604
1748.37196	0.96323
1746.31505	0.96092
1744.25814	0.95860
1742.20123	0.95630
1740.14432	0.95418
1738.08741	0.95260
1736.03051	0.95147
1733.97360	0.94979
1731.91669	0.94825
1729.85978	0.94771
1727.80287	0.94739
1725.74597	0.94731
1723.68906	0.94793
1721.63215	0.94904
1719.57524	0.95003
1717.51833	0.95104
1715.46142	0.95272
1713.40452	0.95464
1711.34761	0.95647
1709.29070	0.95816
1707.23379	0.95968
1705.17688	0.96157
1703.11998	0.96383
1701.06307	0.96611
1699.00616	0.96812
1696.94925	0.96967
1694.89234	0.97142
1692.83543	0.97282
1690.77853	0.97358
1688.72162	0.97434
1686.66471	0.97549
1684.60780	0.97684
1682.55089	0.97766
1680.49399	0.97792
1678.43708	0.97806
1676.38017	0.97814
1674.32326	0.97822
1672.26635	0.97836
1670.20944	0.97839
1668.15254	0.97860
1666.09563	0.97934
1664.03872	0.97988
1661.98181	0.97974
1659.92490	0.97938
1657.86800	0.97907
1655.81109	0.97876
1653.75418	0.97853
1651.69727	0.97881
1649.64036	0.97927
1647.58345	0.97949
1645.52655	0.97929
1643.46964	0.97911
1641.41273	0.97926
1639.35582	0.97949
1637.29891	0.97961
1635.24201	0.97973
1633.18510	0.97985
1631.12819	0.97989
1629.07128	0.97999
1627.01437	0.98015
1624.95746	0.98008
1622.90056	0.97999
1620.84365	0.98018
1618.78674	0.98033
1616.72983	0.98036
1614.67292	0.98045
1612.61602	0.98052
1610.55911	0.98054
1608.50220	0.98042
1606.44529	0.98038
1604.38838	0.98054
1602.33147	0.98044
1600.27457	0.98007
1598.21766	0.98005
1596.16075	0.98044
1594.10384	0.98072
1592.04693	0.98071
1589.99003	0.98064
1587.93312	0.98082
1585.87621	0.98110
1583.81930	0.98104
1581.76239	0.98086
1579.70548	0.98105
1577.64858	0.98141
1575.59167	0.98138
1573.53476	0.98118
1571.47785	0.98118
1569.42094	0.98111
1567.36404	0.98092
1565.30713	0.98096
1563.25022	0.98127
1561.19331	0.98143
1559.13640	0.98135
1557.07949	0.98169
1555.02259	0.98208
1552.96568	0.98214
1550.90877	0.98197
1548.85186	0.98169
1546.79495	0.98148
1544.73805	0.98145
1542.68114	0.98173
1540.62423	0.98237
1538.56732	0.98299
1536.51041	0.98310
1534.45350	0.98311
1532.39660	0.98324
1530.33969	0.98314
1528.28278	0.98292
1526.22587	0.98299
1524.16896	0.98304
1522.11206	0.98266
1520.05515	0.98256
1517.99824	0.98307
1515.94133	0.98332
1513.88442	0.98300
1511.82751	0.98256
1509.77061	0.98241
1507.71370	0.98266
1505.65679	0.98299
1503.59988	0.98305
1501.54297	0.98312
1499.48607	0.98320
1497.42916	0.98289
1495.37225	0.98246
1493.31534	0.98244
1491.25843	0.98251
1489.20152	0.98236
1487.14462	0.98199
1485.08771	0.98141
1483.03080	0.98086
1480.97389	0.98048
1478.91698	0.98003
1476.86008	0.97933
1474.80317	0.97845
1472.74626	0.97729
1470.68935	0.97617
1468.63244	0.97552
1466.57553	0.97487
1464.51863	0.97392
1462.46172	0.97323
1460.40481	0.97295
1458.34790	0.97256
1456.29099	0.97137
1454.23409	0.97022
1452.17718	0.96952
1450.12027	0.96871
1448.06336	0.96781
1446.00645	0.96696
1443.94954	0.96615
1441.89264	0.96560
1439.83573	0.96517
1437.77882	0.96430
1435.72191	0.96315
1433.66500	0.96261
1431.60810	0.96221
1429.55119	0.96166
1427.49428	0.96157
1425.43737	0.96180
1423.38046	0.96172
1421.32355	0.96150
1419.26665	0.96144
1417.20974	0.96135
1415.15283	0.96113
1413.09592	0.96102
1411.03901	0.96113
1408.98211	0.96130
1406.92520	0.96141
1404.86829	0.96156
1402.81138	0.96181
1400.75447	0.96195
1398.69756	0.96173
1396.64066	0.96118
1394.58375	0.96054
1392.52684	0.95968
1390.46993	0.95863
1388.41302	0.95770
1386.35612	0.95674
1384.29921	0.95539
1382.24230	0.95365
1380.18539	0.95164
1378.12848	0.94963
1376.07157	0.94780
1374.01467	0.94604
1371.95776	0.94480
1369.90085	0.94446
1367.84394	0.94458
1365.78703	0.94495
1363.73013	0.94594
1361.67322	0.94760
1359.61631	0.94934
1357.55940	0.95086
1355.50249	0.95213
1353.44558	0.95310
1351.38868	0.95398
1349.33177	0.95500
1347.27486	0.95577
1345.21795	0.95608
1343.16104	0.95624
1341.10414	0.95627
1339.04723	0.95620
1336.99032	0.95635
1334.93341	0.95659
1332.87650	0.95661
1330.81959	0.95643
1328.76269	0.95649
1326.70578	0.95684
1324.64887	0.95695
1322.59196	0.95689
1320.53505	0.95682
1318.47815	0.95669
1316.42124	0.95675
1314.36433	0.95703
1312.30742	0.95732
1310.25051	0.95756
1308.19360	0.95761
1306.13670	0.95761
1304.07979	0.95788
1302.02288	0.95817
1299.96597	0.95836
1297.90906	0.95870
1295.85216	0.95901
1293.79525	0.95906
1291.73834	0.95887
1289.68143	0.95860
1287.62452	0.95831
1285.56761	0.95769
1283.51071	0.95672
1281.45380	0.95587
1279.39689	0.95538
1277.33998	0.95464
1275.28307	0.95328
1273.22617	0.95197
1271.16926	0.95087
1269.11235	0.94932
1267.05544	0.94733
1264.99853	0.94540
1262.94162	0.94368
1260.88472	0.94178
1258.82781	0.93961
1256.77090	0.93746
1254.71399	0.93552
1252.65708	0.93372
1250.60018	0.93192
1248.54327	0.92998
1246.48636	0.92801
1244.42945	0.92650
1242.37254	0.92547
1240.31563	0.92440
1238.25873	0.92325
1236.20182	0.92253
1234.14491	0.92237
1232.08800	0.92245
1230.03109	0.92266
1227.97419	0.92345
1225.91728	0.92501
1223.86037	0.92710
1221.80346	0.92969
1219.74655	0.93271
1217.68964	0.93592
1215.63274	0.93925
1213.57583	0.94249
1211.51892	0.94523
1209.46201	0.94754
1207.40510	0.94944
1205.34820	0.95061
1203.29129	0.95126
1201.23438	0.95192
1199.17747	0.95285
1197.12056	0.95415
1195.06365	0.95574
1193.00675	0.95737
1190.94984	0.95882
1188.89293	0.95994
1186.83602	0.96076
1184.77911	0.96116
1182.72221	0.96085
1180.66530	0.95969
1178.60839	0.95800
1176.55148	0.95618
1174.49457	0.95398
1172.43766	0.95118
1170.38076	0.94802
1168.32385	0.94496
1166.26694	0.94253
1164.21003	0.94020
1162.15312	0.93736
1160.09622	0.93487
1158.03931	0.93372
1155.98240	0.93359
1153.92549	0.93397
1151.86858	0.93485
1149.81167	0.93602
1147.75477	0.93734
1145.69786	0.93839
1143.64095	0.93863
1141.58404	0.93830
1139.52713	0.93784
1137.47023	0.93678
1135.41332	0.93489
1133.35641	0.93277
1131.29950	0.93074
1129.24259	0.92868
1127.18568	0.92654
1125.12878	0.92414
1123.07187	0.92147
1121.01496	0.91897
1118.95805	0.91679
1116.90114	0.91481
1114.84424	0.91314
1112.78733	0.91161
1110.73042	0.90997
1108.67351	0.90825
1106.61660	0.90664
1104.55969	0.90509
1102.50279	0.90332
1100.44588	0.90116
1098.38897	0.89875
1096.33206	0.89648
1094.27515	0.89447
1092.21825	0.89260
1090.16134	0.89087
1088.10443	0.88913
1086.04752	0.88701
1083.99061	0.88456
1081.93370	0.88186
1079.87680	0.87887
1077.81989	0.87593
1075.76298	0.87309
1073.70607	0.87015
1071.64916	0.86718
1069.59226	0.86428
1067.53535	0.86157
1065.47844	0.85899
1063.42153	0.85652
1061.36462	0.85456
1059.30771	0.85314
1057.25081	0.85163
1055.19390	0.84997
1053.13699	0.84850
1051.08008	0.84709
1049.02317	0.84564
1046.96627	0.84418
1044.90936	0.84274
1042.85245	0.84146
1040.79554	0.84003
1038.73863	0.83823
1036.68172	0.83643
1034.62482	0.83471
1032.56791	0.83295
1030.51100	0.83102
1028.45409	0.82895
1026.39718	0.82701
1024.34028	0.82555
1022.28337	0.82450
1020.22646	0.82367
1018.16955	0.82330
1016.11264	0.82362
1014.05573	0.82429
1011.99883	0.82522
1009.94192	0.82676
1007.88501	0.82851
1005.82810	0.82992
1003.77119	0.83108
1001.71429	0.83215
999.65738	0.83321
997.60047	0.83392
995.54356	0.83418
993.48665	0.83467
991.42974	0.83568
989.37284	0.83715
987.31593	0.83930
985.25902	0.84182
983.20211	0.84448
981.14520	0.84772
979.08830	0.85136
977.03139	0.85500
974.97448	0.85859
972.91757	0.86190
970.86066	0.86473
968.80375	0.86727
966.74685	0.86989
964.68994	0.87264
962.63303	0.87535
960.57612	0.87822
958.51921	0.88114
956.46231	0.88360
954.40540	0.88568
952.34849	0.88809
950.29158	0.89092
948.23467	0.89351
946.17776	0.89556
944.12086	0.89740
942.06395	0.89909
940.00704	0.90055
937.95013	0.90206
935.89322	0.90358
933.83632	0.90476
931.77941	0.90590
929.72250	0.90732
927.66559	0.90878
925.60868	0.90961
923.55177	0.91008
921.49487	0.91121
919.43796	0.91252
917.38105	0.91309
915.32414	0.91307
913.26723	0.91283
911.21033	0.91259
909.15342	0.91211
907.09651	0.91104
905.03960	0.90947
902.98269	0.90802
900.92578	0.90729
898.86888	0.90707
896.81197	0.90711
894.75506	0.90725
892.69815	0.90757
890.64124	0.90834
888.58434	0.90936
886.52743	0.91061
884.47052	0.91245
882.41361	0.91461
880.35670	0.91671
878.29979	0.91906
876.24289	0.92137
874.18598	0.92333
872.12907	0.92510
870.07216	0.92637
868.01525	0.92739
865.95835	0.92893
863.90144	0.93080
861.84453	0.93259
859.78762	0.93382
857.73071	0.93410
855.67380	0.93413
853.61690	0.93479
851.55999	0.93600
849.50308	0.93682
847.44617	0.93687
845.38926	0.93689
843.33236	0.93706
841.27545	0.93713
839.21854	0.93738
837.16163	0.93760
835.10472	0.93775
833.04781	0.93805
830.99091	0.93819
828.93400	0.93855
826.87709	0.93938
824.82018	0.93995
822.76327	0.93995
820.70637	0.93997
818.64946	0.94065
816.59255	0.94148
814.53564	0.94165
812.47873	0.94148
810.42182	0.94154
808.36492	0.94195
806.30801	0.94254
804.25110	0.94286
802.19419	0.94263
800.13728	0.94221
798.08038	0.94204
796.02347	0.94210
793.96656	0.94265
791.90965	0.94358
789.85274	0.94429
787.79583	0.94464
785.73893	0.94455
783.68202	0.94441
781.62511	0.94450
779.56820	0.94425
777.51129	0.94373
775.45439	0.94401
773.39748	0.94488
771.34057	0.94500
769.28366	0.94460
767.22675	0.94488
765.16984	0.94531
763.11294	0.94462
761.05603	0.94376
758.99912	0.94391
756.94221	0.94424
754.88530	0.94413
752.82839	0.94409
750.77149	0.94440
748.71458	0.94451
746.65767	0.94419
744.60076	0.94404
742.54385	0.94395
740.48695	0.94346
738.43004	0.94362
736.37313	0.94417
734.31622	0.94377
732.25931	0.94312
730.20240	0.94295
728.14550	0.94290
726.08859	0.94263
724.03168	0.94215
721.97477	0.94173
719.91786	0.94167
717.86096	0.94187
715.80405	0.94184
713.74714	0.94136
711.69023	0.94042
709.63332	0.93923
707.57641	0.93815
705.51951	0.93713
703.46260	0.93673
701.40569	0.93765
699.34878	0.93840
697.29187	0.93763
695.23497	0.93652
693.17806	0.93598
691.12115	0.93605
689.06424	0.93657
687.00733	0.93654
684.95042	0.93544
682.89352	0.93363
680.83661	0.93154
678.77970	0.92987
676.72279	0.92867
674.66588	0.92689
672.60898	0.92427
670.55207	0.92166
668.49516	0.91964
666.43825	0.91912
664.38134	0.91916
662.32443	0.91877
660.26753	0.91837
658.21062	0.91829
656.15371	0.91788
654.09680	0.91748
652.03989	0.91793
649.98299	0.91781
647.92608	0.91636
645.86917	0.91509
643.81226	0.91450
641.75535	0.91402
639.69844	0.91338
637.64154	0.91244
635.58463	0.91121
633.52772	0.91015
631.47081	0.90952
629.41390	0.90919
627.35700	0.90909
625.30009	0.90857
623.24318	0.90721
621.18627	0.90538
619.12936	0.90381
617.07245	0.90294
615.01555	0.90209
612.95864	0.90065
610.90173	0.89897
608.84482	0.89779
606.78791	0.89715
604.73101	0.89623
602.67410	0.89517
600.61719	0.89461
598.56028	0.89427
596.50337	0.89422
594.44646	0.89479
592.38956	0.89525
590.33265	0.89504
588.27574	0.89500
586.21883	0.89558
584.16192	0.89531
582.10502	0.89414
580.04811	0.89350
577.99120	0.89318
575.93429	0.89285
573.87738	0.89204
571.82047	0.89077
569.76357	0.88997
567.70666	0.88917
565.64975	0.88824
563.59284	0.88792
561.53593	0.88743
559.47903	0.88677
557.42212	0.88685
555.36521	0.88738
553.30830	0.88799
551.25139	0.88826
549.19448	0.88796
547.13758	0.88731
545.08067	0.88676
543.02376	0.88675
540.96685	0.88644
538.90994	0.88529
536.85304	0.88456
534.79613	0.88450
532.73922	0.88406
530.68231	0.88340
528.62540	0.88304
526.56849	0.88321
524.51159	0.88374
522.45468	0.88337
520.39777	0.88195
518.34086	0.88016
516.28395	0.87861
514.22705	0.87824
512.17014	0.87879
510.11323	0.87911
508.05632	0.87857
505.99941	0.87780
503.94250	0.87719
501.88560	0.87619
499.82869	0.87537
497.77178	0.87561
495.71487	0.87548
493.65796	0.87367
491.60106	0.87233
489.54415	0.87301
487.48724	0.87341
485.43033	0.87156
483.37342	0.86986
481.31651	0.87007
479.25961	0.87024
477.20270	0.86993
475.14579	0.86923
473.08888	0.86752
471.03197	0.86545
468.97507	0.86325
466.91816	0.86162
464.86125	0.86310
462.80434	0.86707
460.74743	0.86926
458.69052	0.86686
456.63362	0.86347
454.57671	0.86259
452.51980	0.86099
450.46289	0.85971
448.40598	0.86233
446.34908	0.86592
444.29217	0.86614
442.23526	0.86396
440.17835	0.86223
438.12144	0.86241
436.06453	0.86340
434.00763	0.86206
431.95072	0.85828
429.89381	0.85655
427.83690	0.85979
425.77999	0.86323
423.72309	0.86242
421.66618	0.85868
419.60927	0.85347
417.55236	0.85106
415.49545	0.85365
413.43854	0.85611
411.38164	0.85578
409.32473	0.85534
407.26782	0.85720
405.21091	0.86083
403.15400	0.86504
401.09710	0.86847
399.04019	0.86689
