3996.57260	0.99228
3994.51569	0.99257
3992.45878	0.99321
3990.40188	0.99356
3988.34497	0.99339
3986.28806	0.99302
3984.23115	0.99250
3982.17424	0.99222
3980.11733	0.99270
3978.06043	0.99370
3976.00352	0.99455
3973.94661	0.99481
3971.88970	0.99452
3969.83279	0.99385
3967.77589	0.99319
3965.71898	0.99309
3963.66207	0.99325
3961.60516	0.99299
3959.54825	0.99248
3957.49134	0.99229
3955.43444	0.99247
3953.37753	0.99289
3951.32062	0.99334
3949.26371	0.99364
3947.20680	0.99359
3945.14990	0.99264
3943.09299	0.99148
3941.03608	0.99166
3938.97917	0.99256
3936.92226	0.99293
3934.86535	0.99317
3932.80845	0.99363
3930.75154	0.99361
3928.69463	0.99323
3926.63772	0.99321
3924.58081	0.99340
3922.52391	0.99383
3920.46700	0.99401
3918.41009	0.99341
3916.35318	0.99268
3914.29627	0.99208
3912.23936	0.99187
3910.18246	0.99212
3908.12555	0.99247
3906.06864	0.99303
3904.01173	0.99346
3901.95482	0.99295
3899.89792	0.99213
3897.84101	0.99244
3895.78410	0.99350
3893.72719	0.99430
3891.67028	0.99458
3889.61337	0.99411
3887.55647	0.99307
3885.49956	0.99217
3883.44265	0.99176
3881.38574	0.99198
3879.32883	0.99286
3877.27193	0.99369
3875.21502	0.99390
3873.15811	0.99326
3871.10120	0.99249
3869.04429	0.99226
3866.98738	0.99197
3864.93048	0.99202
3862.87357	0.99277
3860.81666	0.99350
3858.75975	0.99409
3856.70284	0.99415
3854.64594	0.99312
3852.58903	0.99238
3850.53212	0.99298
3848.47521	0.99331
3846.41830	0.99296
3844.36139	0.99259
3842.30449	0.99266
3840.24758	0.99272
3838.19067	0.99238
3836.13376	0.99228
3834.07685	0.99249
3832.01995	0.99272
3829.96304	0.99302
3827.90613	0.99313
3825.84922	0.99271
3823.79231	0.99202
3821.73540	0.99205
3819.67850	0.99268
3817.62159	0.99267
3815.56468	0.99257
3813.50777	0.99307
3811.45086	0.99346
3809.39396	0.99328
3807.33705	0.99317
3805.28014	0.99307
3803.22323	0.99256
3801.16632	0.99230
3799.10941	0.99239
3797.05251	0.99286
3794.99560	0.99377
3792.93869	0.99410
3790.88178	0.99391
3788.82487	0.99390
3786.76796	0.99375
3784.71106	0.99313
3782.65415	0.99238
3780.59724	0.99217
3778.54033	0.99259
3776.48342	0.99284
3774.42652	0.99283
3772.36961	0.99302
3770.31270	0.99347
3768.25579	0.99359
3766.19888	0.99324
3764.14197	0.99301
3762.08507	0.99297
3760.02816	0.99258
3757.97125	0.99196
3755.91434	0.99191
3753.85743	0.99229
3751.80053	0.99269
3749.74362	0.99250
3747.68671	0.99173
3745.62980	0.99145
3743.57289	0.99246
3741.51598	0.99335
3739.45908	0.99300
3737.40217	0.99198
3735.34526	0.99208
3733.28835	0.99391
3731.23144	0.99502
3729.17454	0.99497
3727.11763	0.99438
3725.06072	0.99324
3723.00381	0.99274
3720.94690	0.99336
3718.88999	0.99371
3716.83309	0.99335
3714.77618	0.99294
3712.71927	0.99272
3710.66236	0.99288
3708.60545	0.99322
3706.54855	0.99315
3704.49164	0.99315
3702.43473	0.99347
3700.37782	0.99339
3698.32091	0.99323
3696.26400	0.99340
3694.20710	0.99350
3692.15019	0.99364
3690.09328	0.99377
3688.03637	0.99363
3685.97946	0.99336
3683.92256	0.99318
3681.86565	0.99340
3679.80874	0.99391
3677.75183	0.99412
3675.69492	0.99363
3673.63801	0.99262
3671.58111	0.99194
3669.52420	0.99191
3667.46729	0.99213
3665.41038	0.99213
3663.35347	0.99207
3661.29657	0.99220
3659.23966	0.99283
3657.18275	0.99366
3655.12584	0.99393
3653.06893	0.99404
3651.01202	0.99463
3648.95512	0.99526
3646.89821	0.99514
3644.84130	0.99430
3642.78439	0.99345
3640.72748	0.99282
3638.67058	0.99228
3636.61367	0.99198
3634.55676	0.99194
3632.49985	0.99192
3630.44294	0.99234
3628.38603	0.99307
3626.32913	0.99321
3624.27222	0.99354
3622.21531	0.99377
3620.15840	0.99283
3618.10149	0.99132
3616.04459	0.99094
3613.98768	0.99118
3611.93077	0.99125
3609.87386	0.99150
3607.81695	0.99200
3605.76004	0.99210
3603.70314	0.99165
3601.64623	0.99142
3599.58932	0.99165
3597.53241	0.99147
3595.47550	0.99071
3593.41860	0.99012
3591.36169	0.98991
3589.30478	0.98993
3587.24787	0.98982
3585.19096	0.98997
3583.13405	0.99095
3581.07715	0.99158
3579.02024	0.99116
3576.96333	0.99035
3574.90642	0.98979
3572.84951	0.98996
3570.79261	0.99048
3568.73570	0.99029
3566.67879	0.98953
3564.62188	0.98926
3562.56497	0.98942
3560.50806	0.98945
3558.45116	0.98920
3556.39425	0.98895
3554.33734	0.98868
3552.28043	0.98860
3550.22352	0.98903
3548.16662	0.98902
3546.10971	0.98810
3544.05280	0.98751
3541.99589	0.98767
3539.93898	0.98770
3537.88207	0.98757
3535.82517	0.98727
3533.76826	0.98667
3531.71135	0.98657
3529.65444	0.98678
3527.59753	0.98632
3525.54063	0.98586
3523.48372	0.98566
3521.42681	0.98507
3519.36990	0.98446
3517.31299	0.98432
3515.25608	0.98425
3513.19918	0.98407
3511.14227	0.98441
3509.08536	0.98498
3507.02845	0.98506
3504.97154	0.98482
3502.91464	0.98445
3500.85773	0.98417
3498.80082	0.98411
3496.74391	0.98412
3494.68700	0.98380
3492.63009	0.98311
3490.57319	0.98281
3488.51628	0.98296
3486.45937	0.98280
3484.40246	0.98226
3482.34555	0.98198
3480.28865	0.98222
3478.23174	0.98231
3476.17483	0.98177
3474.11792	0.98103
3472.06101	0.98066
3470.00410	0.98072
3467.94720	0.98105
3465.89029	0.98148
3463.83338	0.98164
3461.77647	0.98123
3459.71956	0.98059
3457.66266	0.98034
3455.60575	0.98056
3453.54884	0.98066
3451.49193	0.98013
3449.43502	0.97936
3447.37811	0.97915
3445.32121	0.97962
3443.26430	0.98022
3441.20739	0.98052
3439.15048	0.98035
3437.09357	0.97973
3435.03667	0.97943
3432.97976	0.97962
3430.92285	0.97966
3428.86594	0.97969
3426.80903	0.97989
3424.75212	0.98005
3422.69522	0.98024
3420.63831	0.98013
3418.58140	0.97986
3416.52449	0.97992
3414.46758	0.97983
3412.41068	0.97942
3410.35377	0.97887
3408.29686	0.97815
3406.23995	0.97788
3404.18304	0.97822
3402.12613	0.97856
3400.06923	0.97867
3398.01232	0.97863
3395.95541	0.97878
3393.89850	0.97917
3391.84159	0.97906
3389.78469	0.97865
3387.72778	0.97871
3385.67087	0.97898
3383.61396	0.97883
3381.55705	0.97847
3379.50014	0.97831
3377.44324	0.97840
3375.38633	0.97884
3373.32942	0.97934
3371.27251	0.97953
3369.21560	0.97928
3367.15870	0.97901
3365.10179	0.97920
3363.04488	0.97962
3360.98797	0.97991
3358.93106	0.97969
3356.87415	0.97924
3354.81725	0.97929
3352.76034	0.97956
3350.70343	0.97961
3348.64652	0.97973
3346.58961	0.98018
3344.53271	0.98072
3342.47580	0.98089
3340.41889	0.98065
3338.36198	0.98053
3336.30507	0.98084
3334.24816	0.98130
3332.19126	0.98162
3330.13435	0.98158
3328.07744	0.98111
3326.02053	0.98047
3323.96362	0.97977
3321.90672	0.97930
3319.84981	0.97964
3317.79290	0.98061
3315.73599	0.98108
3313.67908	0.98086
3311.62217	0.98072
3309.56527	0.98072
3307.50836	0.98116
3305.45145	0.98159
3303.39454	0.98118
3301.33763	0.98095
3299.28073	0.98135
3297.22382	0.98161
3295.16691	0.98163
3293.11000	0.98191
3291.05309	0.98229
3288.99618	0.98220
3286.93928	0.98181
3284.88237	0.98180
3282.82546	0.98225
3280.76855	0.98251
3278.71164	0.98244
3276.65474	0.98232
3274.59783	0.98219
3272.54092	0.98216
3270.48401	0.98219
3268.42710	0.98231
3266.37019	0.98284
3264.31329	0.98316
3262.25638	0.98275
3260.19947	0.98224
3258.14256	0.98229
3256.08565	0.98284
3254.02875	0.98306
3251.97184	0.98275
3249.91493	0.98262
3247.85802	0.98285
3245.80111	0.98314
3243.74420	0.98330
3241.68730	0.98339
3239.63039	0.98347
3237.57348	0.98351
3235.51657	0.98337
3233.45966	0.98293
3231.40276	0.98294
3229.34585	0.98387
3227.28894	0.98473
3225.23203	0.98508
3223.17512	0.98537
3221.11821	0.98522
3219.06131	0.98438
3217.00440	0.98385
3214.94749	0.98424
3212.89058	0.98509
3210.83367	0.98580
3208.77677	0.98607
3206.71986	0.98594
3204.66295	0.98572
3202.60604	0.98548
3200.54913	0.98537
3198.49222	0.98541
3196.43532	0.98555
3194.37841	0.98604
3192.32150	0.98659
3190.26459	0.98667
3188.20768	0.98637
3186.15078	0.98601
3184.09387	0.98580
3182.03696	0.98551
3179.98005	0.98495
3177.92314	0.98499
3175.86623	0.98574
3173.80933	0.98627
3171.75242	0.98667
3169.69551	0.98728
3167.63860	0.98772
3165.58169	0.98767
3163.52479	0.98742
3161.46788	0.98731
3159.41097	0.98712
3157.35406	0.98691
3155.29715	0.98709
3153.24024	0.98726
3151.18334	0.98736
3149.12643	0.98781
3147.06952	0.98793
3145.01261	0.98766
3142.95570	0.98759
3140.89880	0.98735
3138.84189	0.98678
3136.78498	0.98632
3134.72807	0.98632
3132.67116	0.98668
3130.61425	0.98703
3128.55735	0.98744
3126.50044	0.98788
3124.44353	0.98812
3122.38662	0.98813
3120.32971	0.98820
3118.27281	0.98867
3116.21590	0.98908
3114.15899	0.98910
3112.10208	0.98908
3110.04517	0.98875
3107.98826	0.98811
3105.93136	0.98784
3103.87445	0.98815
3101.81754	0.98847
3099.76063	0.98837
3097.70372	0.98824
3095.64682	0.98847
3093.58991	0.98858
3091.53300	0.98827
3089.47609	0.98810
3087.41918	0.98852
3085.36227	0.98905
3083.30537	0.98925
3081.24846	0.98951
3079.19155	0.98968
3077.13464	0.98960
3075.07773	0.98941
3073.02083	0.98911
3070.96392	0.98890
3068.90701	0.98893
3066.85010	0.98906
3064.79319	0.98918
3062.73628	0.98926
3060.67938	0.98930
3058.62247	0.98933
3056.56556	0.98929
3054.50865	0.98914
3052.45174	0.98926
3050.39484	0.98981
3048.33793	0.99028
3046.28102	0.99029
3044.22411	0.99004
3042.16720	0.99003
3040.11029	0.99016
3038.05339	0.98994
3035.99648	0.98942
3033.93957	0.98933
3031.88266	0.98973
3029.82575	0.98999
3027.76885	0.99020
3025.71194	0.99041
3023.65503	0.99011
3021.59812	0.98942
3019.54121	0.98917
3017.48430	0.98978
3015.42740	0.99048
3013.37049	0.99044
3011.31358	0.99023
3009.25667	0.99017
3007.19976	0.98983
3005.14286	0.98940
3003.08595	0.98915
3001.02904	0.98924
2998.97213	0.98966
2996.91522	0.98998
2994.85831	0.99022
2992.80141	0.99045
2990.74450	0.99040
2988.68759	0.99005
2986.63068	0.98962
2984.57377	0.98940
2982.51687	0.98958
2980.45996	0.98984
2978.40305	0.98986
2976.34614	0.98953
2974.28923	0.98895
2972.23232	0.98848
2970.17542	0.98817
2968.11851	0.98816
2966.06160	0.98870
2964.00469	0.98913
2961.94778	0.98889
2959.89088	0.98865
2957.83397	0.98876
2955.77706	0.98844
2953.72015	0.98775
2951.66324	0.98736
2949.60633	0.98734
2947.54943	0.98738
2945.49252	0.98726
2943.43561	0.98703
2941.37870	0.98677
2939.32179	0.98642
2937.26489	0.98601
2935.20798	0.98568
2933.15107	0.98551
2931.09416	0.98568
2929.03725	0.98603
2926.98034	0.98599
2924.92344	0.98557
2922.86653	0.98542
2920.80962	0.98572
2918.75271	0.98603
2916.69580	0.98621
2914.63890	0.98632
2912.58199	0.98608
2910.52508	0.98558
2908.46817	0.98511
2906.41126	0.98498
2904.35435	0.98520
2902.29745	0.98505
2900.24054	0.98473
2898.18363	0.98489
2896.12672	0.98522
2894.06981	0.98530
2892.01291	0.98513
2889.95600	0.98479
2887.89909	0.98449
2885.84218	0.98448
2883.78527	0.98472
2881.72836	0.98487
2879.67146	0.98481
2877.61455	0.98492
2875.55764	0.98523
2873.50073	0.98520
2871.44382	0.98509
2869.38692	0.98539
2867.33001	0.98569
2865.27310	0.98576
2863.21619	0.98587
2861.15928	0.98611
2859.10237	0.98623
2857.04547	0.98619
2854.98856	0.98621
2852.93165	0.98621
2850.87474	0.98623
2848.81783	0.98657
2846.76093	0.98718
2844.70402	0.98771
2842.64711	0.98795
2840.59020	0.98820
2838.53329	0.98860
2836.47638	0.98867
2834.41948	0.98847
2832.36257	0.98829
2830.30566	0.98816
2828.24875	0.98823
2826.19184	0.98835
2824.13494	0.98832
2822.07803	0.98836
2820.02112	0.98852
2817.96421	0.98861
2815.90730	0.98863
2813.85039	0.98868
2811.79349	0.98888
2809.73658	0.98923
2807.67967	0.98933
2805.62276	0.98894
2803.56585	0.98866
2801.50895	0.98893
2799.45204	0.98915
2797.39513	0.98891
2795.33822	0.98861
2793.28131	0.98856
2791.22440	0.98856
2789.16750	0.98868
2787.11059	0.98902
2785.05368	0.98945
2782.99677	0.98966
2780.93986	0.98971
2778.88296	0.98979
2776.82605	0.98983
2774.76914	0.98979
2772.71223	0.98959
2770.65532	0.98931
2768.59841	0.98920
2766.54151	0.98918
2764.48460	0.98904
2762.42769	0.98898
2760.37078	0.98917
2758.31387	0.98925
2756.25697	0.98909
2754.20006	0.98905
2752.14315	0.98941
2750.08624	0.98980
2748.02933	0.98982
2745.97242	0.98982
2743.91552	0.98977
2741.85861	0.98944
2739.80170	0.98938
2737.74479	0.98966
2735.68788	0.98973
2733.63098	0.98974
2731.57407	0.98986
2729.51716	0.98978
2727.46025	0.98963
2725.40334	0.98968
2723.34643	0.98979
2721.28953	0.98984
2719.23262	0.98973
2717.17571	0.98945
2715.11880	0.98934
2713.06189	0.98971
2711.00499	0.99011
2708.94808	0.99032
2706.89117	0.99052
2704.83426	0.99033
2702.77735	0.98996
2700.72044	0.98990
2698.66354	0.98989
2696.60663	0.98999
2694.54972	0.99042
2692.49281	0.99079
2690.43590	0.99065
2688.37900	0.99019
2686.32209	0.98995
2684.26518	0.98999
2682.20827	0.99004
2680.15136	0.99006
2678.09445	0.99013
2676.03755	0.99015
2673.98064	0.99000
2671.92373	0.98990
2669.86682	0.98999
2667.80991	0.99011
2665.75301	0.99007
2663.69610	0.98967
2661.63919	0.98929
2659.58228	0.98956
2657.52537	0.99017
2655.46846	0.99040
2653.41156	0.99026
2651.35465	0.99001
2649.29774	0.98979
2647.24083	0.98967
2645.18392	0.98964
2643.12702	0.98971
2641.07011	0.98993
2639.01320	0.99001
2636.95629	0.98973
2634.89938	0.98948
2632.84247	0.98948
2630.78557	0.98950
2628.72866	0.98961
2626.67175	0.98994
2624.61484	0.99001
2622.55793	0.98983
2620.50103	0.98988
2618.44412	0.99000
2616.38721	0.98989
2614.33030	0.98980
2612.27339	0.99011
2610.21648	0.99043
2608.15958	0.99014
2606.10267	0.98982
2604.04576	0.99006
2601.98885	0.99032
2599.93194	0.99026
2597.87504	0.99011
2595.81813	0.98998
2593.76122	0.99000
2591.70431	0.99023
2589.64740	0.99030
2587.59049	0.99001
2585.53359	0.98958
2583.47668	0.98925
2581.41977	0.98932
2579.36286	0.98974
2577.30595	0.99022
2575.24905	0.99062
2573.19214	0.99079
2571.13523	0.99095
2569.07832	0.99108
2567.02141	0.99061
2564.96450	0.98968
2562.90760	0.98931
2560.85069	0.98999
2558.79378	0.99083
2556.73687	0.99114
2554.67996	0.99111
2552.62306	0.99076
2550.56615	0.99051
2548.50924	0.99075
2546.45233	0.99089
2544.39542	0.99064
2542.33851	0.99044
2540.28161	0.99068
2538.22470	0.99130
2536.16779	0.99148
2534.11088	0.99113
2532.05397	0.99097
2529.99707	0.99079
2527.94016	0.99057
2525.88325	0.99062
2523.82634	0.99078
2521.76943	0.99067
2519.71252	0.99051
2517.65562	0.99080
2515.59871	0.99129
2513.54180	0.99178
2511.48489	0.99188
2509.42798	0.99135
2507.37108	0.99084
2505.31417	0.99085
2503.25726	0.99107
2501.20035	0.99106
2499.14344	0.99134
2497.08653	0.99187
2495.02963	0.99171
2492.97272	0.99105
2490.91581	0.99087
2488.85890	0.99132
2486.80199	0.99143
2484.74509	0.99087
2482.68818	0.99074
2480.63127	0.99134
2478.57436	0.99187
2476.51745	0.99204
2474.46054	0.99172
2472.40364	0.99093
2470.34673	0.99082
2468.28982	0.99147
2466.23291	0.99154
2464.17600	0.99126
2462.11910	0.99129
2460.06219	0.99112
2458.00528	0.99091
2455.94837	0.99133
2453.89146	0.99167
2451.83455	0.99148
2449.77765	0.99136
2447.72074	0.99149
2445.66383	0.99143
2443.60692	0.99096
2441.55001	0.99048
2439.49311	0.99060
2437.43620	0.99099
2435.37929	0.99123
2433.32238	0.99152
2431.26547	0.99173
2429.20856	0.99202
2427.15166	0.99243
2425.09475	0.99222
2423.03784	0.99167
2420.98093	0.99164
2418.92402	0.99202
2416.86712	0.99217
2414.81021	0.99166
2412.75330	0.99076
2410.69639	0.99043
2408.63948	0.99096
2406.58257	0.99163
2404.52567	0.99176
2402.46876	0.99147
2400.41185	0.99143
2398.35494	0.99177
2396.29803	0.99237
2394.24113	0.99292
2392.18422	0.99277
2390.12731	0.99214
2388.07040	0.99185
2386.01349	0.99193
2383.95658	0.99197
2381.89968	0.99216
2379.84277	0.99243
2377.78586	0.99225
2375.72895	0.99182
2373.67204	0.99198
2371.61514	0.99256
2369.55823	0.99234
2367.50132	0.99196
2365.44441	0.99247
2363.38750	0.99242
2361.33059	0.99172
2359.27369	0.99179
2357.21678	0.99216
2355.15987	0.99209
2353.10296	0.99218
2351.04605	0.99240
2348.98915	0.99261
2346.93224	0.99309
2344.87533	0.99336
2342.81842	0.99256
2340.76151	0.99154
2338.70460	0.99103
2336.64770	0.99037
2334.59079	0.98984
2332.53388	0.99064
2330.47697	0.99226
2328.42006	0.99245
2326.36316	0.99093
2324.30625	0.98970
2322.24934	0.98973
2320.19243	0.99034
2318.13552	0.99089
2316.07861	0.99130
2314.02171	0.99157
2311.96480	0.99171
2309.90789	0.99154
2307.85098	0.99120
2305.79407	0.99083
2303.73717	0.99027
2301.68026	0.99012
2299.62335	0.99098
2297.56644	0.99180
2295.50953	0.99166
2293.45262	0.99099
2291.39572	0.99044
2289.33881	0.99065
2287.28190	0.99106
2285.22499	0.99051
2283.16808	0.98963
2281.11117	0.98957
2279.05427	0.99011
2276.99736	0.99026
2274.94045	0.99004
2272.88354	0.99005
2270.82663	0.99041
2268.76973	0.99107
2266.71282	0.99169
2264.65591	0.99134
2262.59900	0.99011
2260.54209	0.98963
2258.48518	0.99033
2256.42828	0.99128
2254.37137	0.99160
2252.31446	0.99103
2250.25755	0.99070
2248.20064	0.99113
2246.14374	0.99228
2244.08683	0.99396
2242.02992	0.99375
2239.97301	0.99155
2237.91610	0.99052
2235.85919	0.99100
2233.80229	0.99100
2231.74538	0.99047
2229.68847	0.99053
2227.63156	0.99195
2225.57465	0.99393
2223.51775	0.99477
2221.46084	0.99482
2219.40393	0.99406
2217.34702	0.99245
2215.29011	0.99220
2213.23320	0.99311
2211.17630	0.99293
2209.11939	0.99268
2207.06248	0.99370
2205.00557	0.99541
2202.94866	0.99586
2200.89176	0.99364
2198.83485	0.99155
2196.77794	0.99095
2194.72103	0.99145
2192.66412	0.99339
2190.60721	0.99444
2188.55031	0.99447
2186.49340	0.99524
2184.43649	0.99562
2182.37958	0.99419
2180.32267	0.99145
2178.26577	0.99020
2176.20886	0.99140
2174.15195	0.99190
2172.09504	0.99111
2170.03813	0.99170
2167.98122	0.99285
2165.92432	0.99268
2163.86741	0.99307
2161.81050	0.99522
2159.75359	0.99673
2157.69668	0.99598
2155.63978	0.99597
2153.58287	0.99779
2151.52596	0.99750
2149.46905	0.99501
2147.41214	0.99433
2145.35523	0.99519
2143.29833	0.99528
2141.24142	0.99386
2139.18451	0.99214
2137.12760	0.99184
2135.07069	0.99258
2133.01379	0.99341
2130.95688	0.99366
2128.89997	0.99348
2126.84306	0.99335
2124.78615	0.99309
2122.72924	0.99287
2120.67234	0.99275
2118.61543	0.99226
2116.55852	0.99202
2114.50161	0.99265
2112.44470	0.99311
2110.38780	0.99295
2108.33089	0.99269
2106.27398	0.99255
2104.21707	0.99225
2102.16016	0.99162
2100.10325	0.99108
2098.04635	0.99115
2095.98944	0.99215
2093.93253	0.99299
2091.87562	0.99236
2089.81871	0.99160
2087.76181	0.99211
2085.70490	0.99283
2083.64799	0.99279
2081.59108	0.99217
2079.53417	0.99133
2077.47726	0.99120
2075.42036	0.99195
2073.36345	0.99259
2071.30654	0.99322
2069.24963	0.99413
2067.19272	0.99459
2065.13582	0.99448
2063.07891	0.99373
2061.02200	0.99228
2058.96509	0.99086
2056.90818	0.99032
2054.85127	0.99097
2052.79437	0.99178
2050.73746	0.99214
2048.68055	0.99305
2046.62364	0.99409
2044.56673	0.99442
2042.50983	0.99512
2040.45292	0.99553
2038.39601	0.99337
2036.33910	0.99069
2034.28219	0.99151
2032.22528	0.99421
2030.16838	0.99642
2028.11147	0.99757
2026.05456	0.99563
2023.99765	0.99282
2021.94074	0.99138
2019.88384	0.99012
2017.82693	0.98976
2015.77002	0.99066
2013.71311	0.99156
2011.65620	0.99105
2009.59929	0.98983
2007.54239	0.99049
2005.48548	0.99286
2003.42857	0.99488
2001.37166	0.99652
1999.31475	0.99758
1997.25785	0.99662
1995.20094	0.99370
1993.14403	0.99114
1991.08712	0.99184
1989.03021	0.99425
1986.97330	0.99406
1984.91640	0.99218
1982.85949	0.99237
1980.80258	0.99441
1978.74567	0.99472
1976.68876	0.99285
1974.63186	0.99282
1972.57495	0.99411
1970.51804	0.99400
1968.46113	0.99423
1966.40422	0.99464
1964.34731	0.99388
1962.29041	0.99363
1960.23350	0.99414
1958.17659	0.99460
1956.11968	0.99529
1954.06277	0.99565
1952.00587	0.99446
1949.94896	0.99267
1947.89205	0.99275
1945.83514	0.99440
1943.77823	0.99577
1941.72132	0.99655
1939.66442	0.99597
1937.60751	0.99462
1935.55060	0.99482
1933.49369	0.99572
1931.43678	0.99507
1929.37988	0.99372
1927.32297	0.99289
1925.26606	0.99227
1923.20915	0.99285
1921.15224	0.99440
1919.09533	0.99430
1917.03843	0.99303
1914.98152	0.99304
1912.92461	0.99352
1910.86770	0.99317
1908.81079	0.99350
1906.75389	0.99477
1904.69698	0.99519
1902.64007	0.99476
1900.58316	0.99420
1898.52625	0.99372
1896.46934	0.99342
1894.41244	0.99326
1892.35553	0.99327
1890.29862	0.99378
1888.24171	0.99405
1886.18480	0.99318
1884.12790	0.99223
1882.07099	0.99230
1880.01408	0.99295
1877.95717	0.99352
1875.90026	0.99386
1873.84335	0.99368
1871.78645	0.99315
1869.72954	0.99334
1867.67263	0.99412
1865.61572	0.99426
1863.55881	0.99370
1861.50191	0.99275
1859.44500	0.99209
1857.38809	0.99233
1855.33118	0.99307
1853.27427	0.99369
1851.21736	0.99383
1849.16046	0.99343
1847.10355	0.99313
1845.04664	0.99324
1842.98973	0.99328
1840.93282	0.99344
1838.87592	0.99389
1836.81901	0.99421
1834.76210	0.99433
1832.70519	0.99443
1830.64828	0.99433
1828.59137	0.99369
1826.53447	0.99311
1824.47756	0.99296
1822.42065	0.99283
1820.36374	0.99276
1818.30683	0.99297
1816.24993	0.99333
1814.19302	0.99387
1812.13611	0.99425
1810.07920	0.99399
1808.02229	0.99361
1805.96538	0.99333
1803.90848	0.99275
1801.85157	0.99234
1799.79466	0.99279
1797.73775	0.99357
1795.68084	0.99417
1793.62394	0.99442
1791.56703	0.99414
1789.51012	0.99383
1787.45321	0.99366
1785.39630	0.99349
1783.33939	0.99306
1781.28249	0.99250
1779.22558	0.99230
1777.16867	0.99261
1775.11176	0.99305
1773.05485	0.99287
1770.99795	0.99192
1768.94104	0.99129
1766.88413	0.99096
1764.82722	0.99020
1762.77031	0.98873
1760.71340	0.98690
1758.65650	0.98527
1756.59959	0.98372
1754.54268	0.98237
1752.48577	0.98083
1750.42886	0.97860
1748.37196	0.97672
1746.31505	0.97558
1744.25814	0.97438
1742.20123	0.97295
1740.14432	0.97165
1738.08741	0.97074
1736.03051	0.96987
1733.97360	0.96862
1731.91669	0.96780
1729.85978	0.96783
1727.80287	0.96819
1725.74597	0.96855
1723.68906	0.96894
1721.63215	0.96955
1719.57524	0.97029
1717.51833	0.97104
1715.46142	0.97185
1713.40452	0.97298
1711.34761	0.97456
1709.29070	0.97616
1707.23379	0.97722
1705.17688	0.97808
1703.11998	0.97917
1701.06307	0.98066
1699.00616	0.98243
1696.94925	0.98361
1694.89234	0.98422
1692.83543	0.98481
1690.77853	0.98575
1688.72162	0.98656
1686.66471	0.98669
1684.60780	0.98630
1682.55089	0.98619
1680.49399	0.98660
1678.43708	0.98715
1676.38017	0.98796
1674.32326	0.98863
1672.26635	0.98836
1670.20944	0.98754
1668.15254	0.98728
1666.09563	0.98748
1664.03872	0.98740
1661.98181	0.98728
1659.92490	0.98776
1657.86800	0.98850
1655.81109	0.98892
1653.75418	0.98890
1651.69727	0.98854
1649.64036	0.98808
1647.58345	0.98764
1645.52655	0.98764
1643.46964	0.98801
1641.41273	0.98821
1639.35582	0.98827
1637.29891	0.98842
1635.24201	0.98842
1633.18510	0.98824
1631.12819	0.98822
1629.07128	0.98829
1627.01437	0.98828
1624.95746	0.98814
1622.90056	0.98821
1620.84365	0.98856
1618.78674	0.98877
1616.72983	0.98868
1614.67292	0.98859
1612.61602	0.98867
1610.55911	0.98879
1608.50220	0.98891
1606.44529	0.98917
1604.38838	0.98944
1602.33147	0.98933
1600.27457	0.98916
1598.21766	0.98939
1596.16075	0.98970
1594.10384	0.98966
1592.04693	0.98959
1589.99003	0.98961
1587.93312	0.98949
1585.87621	0.98922
1583.81930	0.98907
1581.76239	0.98920
1579.70548	0.98932
1577.64858	0.98941
1575.59167	0.98977
1573.53476	0.99012
1571.47785	0.99022
1569.42094	0.99027
1567.36404	0.99025
1565.30713	0.98991
1563.25022	0.98954
1561.19331	0.98947
1559.13640	0.98942
1557.07949	0.98920
1555.02259	0.98918
1552.96568	0.98921
1550.90877	0.98932
1548.85186	0.98957
1546.79495	0.98987
1544.73805	0.99003
1542.68114	0.98986
1540.62423	0.98957
1538.56732	0.98970
1536.51041	0.99009
1534.45350	0.99039
1532.39660	0.99024
1530.33969	0.98973
1528.28278	0.98936
1526.22587	0.98933
1524.16896	0.98952
1522.11206	0.98944
1520.05515	0.98901
1517.99824	0.98876
1515.94133	0.98872
1513.88442	0.98891
1511.82751	0.98924
1509.77061	0.98953
1507.71370	0.98961
1505.65679	0.98910
1503.59988	0.98858
1501.54297	0.98835
1499.48607	0.98830
1497.42916	0.98844
1495.37225	0.98856
1493.31534	0.98842
1491.25843	0.98819
1489.20152	0.98786
1487.14462	0.98733
1485.08771	0.98683
1483.03080	0.98643
1480.97389	0.98608
1478.91698	0.98577
1476.86008	0.98550
1474.80317	0.98525
1472.74626	0.98488
1470.68935	0.98420
1468.63244	0.98357
1466.57553	0.98302
1464.51863	0.98234
1462.46172	0.98180
1460.40481	0.98155
1458.34790	0.98124
1456.29099	0.98067
1454.23409	0.98019
1452.17718	0.97978
1450.12027	0.97940
1448.06336	0.97892
1446.00645	0.97838
1443.94954	0.97801
1441.89264	0.97751
1439.83573	0.97665
1437.77882	0.97576
1435.72191	0.97512
1433.66500	0.97464
1431.60810	0.97421
1429.55119	0.97396
1427.49428	0.97385
1425.43737	0.97371
1423.38046	0.97350
1421.32355	0.97329
1419.26665	0.97304
1417.20974	0.97279
1415.15283	0.97270
1413.09592	0.97265
1411.03901	0.97245
1408.98211	0.97212
1406.92520	0.97199
1404.86829	0.97213
1402.81138	0.97230
1400.75447	0.97231
1398.69756	0.97209
1396.64066	0.97174
1394.58375	0.97132
1392.52684	0.97074
1390.46993	0.97021
1388.41302	0.96974
1386.35612	0.96884
1384.29921	0.96773
1382.24230	0.96679
1380.18539	0.96570
1378.12848	0.96461
1376.07157	0.96376
1374.01467	0.96298
1371.95776	0.96230
1369.90085	0.96201
1367.84394	0.96229
1365.78703	0.96308
1363.73013	0.96416
1361.67322	0.96538
1359.61631	0.96661
1357.55940	0.96787
1355.50249	0.96906
1353.44558	0.96991
1351.38868	0.97033
1349.33177	0.97059
1347.27486	0.97090
1345.21795	0.97126
1343.16104	0.97164
1341.10414	0.97186
1339.04723	0.97194
1336.99032	0.97216
1334.93341	0.97247
1332.87650	0.97268
1330.81959	0.97285
1328.76269	0.97305
1326.70578	0.97330
1324.64887	0.97365
1322.59196	0.97397
1320.53505	0.97419
1318.47815	0.97413
1316.42124	0.97388
1314.36433	0.97398
1312.30742	0.97439
1310.25051	0.97455
1308.19360	0.97451
1306.13670	0.97476
1304.07979	0.97526
1302.02288	0.97555
1299.96597	0.97570
1297.90906	0.97587
1295.85216	0.97580
1293.79525	0.97549
1291.73834	0.97522
1289.68143	0.97506
1287.62452	0.97482
1285.56761	0.97427
1283.51071	0.97362
1281.45380	0.97321
1279.39689	0.97285
1277.33998	0.97229
1275.28307	0.97148
1273.22617	0.97041
1271.16926	0.96931
1269.11235	0.96848
1267.05544	0.96778
1264.99853	0.96694
1262.94162	0.96570
1260.88472	0.96402
1258.82781	0.96227
1256.77090	0.96060
1254.71399	0.95892
1252.65708	0.95731
1250.60018	0.95569
1248.54327	0.95391
1246.48636	0.95225
1244.42945	0.95106
1242.37254	0.95008
1240.31563	0.94882
1238.25873	0.94731
1236.20182	0.94604
1234.14491	0.94513
1232.08800	0.94449
1230.03109	0.94424
1227.97419	0.94433
1225.91728	0.94464
1223.86037	0.94520
1221.80346	0.94603
1219.74655	0.94712
1217.68964	0.94839
1215.63274	0.94989
1213.57583	0.95171
1211.51892	0.95334
1209.46201	0.95437
1207.40510	0.95511
1205.34820	0.95585
1203.29129	0.95642
1201.23438	0.95654
1199.17747	0.95641
1197.12056	0.95665
1195.06365	0.95725
1193.00675	0.95771
1190.94984	0.95804
1188.89293	0.95834
1186.83602	0.95836
1184.77911	0.95807
1182.72221	0.95765
1180.66530	0.95697
1178.60839	0.95600
1176.55148	0.95504
1174.49457	0.95394
1172.43766	0.95252
1170.38076	0.95092
1168.32385	0.94905
1166.26694	0.94716
1164.21003	0.94559
1162.15312	0.94426
1160.09622	0.94319
1158.03931	0.94242
1155.98240	0.94180
1153.92549	0.94137
1151.86858	0.94118
1149.81167	0.94119
1147.75477	0.94116
1145.69786	0.94086
1143.64095	0.94051
1141.58404	0.94023
1139.52713	0.93959
1137.47023	0.93849
1135.41332	0.93733
1133.35641	0.93614
1131.29950	0.93474
1129.24259	0.93322
1127.18568	0.93140
1125.12878	0.92941
1123.07187	0.92782
1121.01496	0.92663
1118.95805	0.92548
1116.90114	0.92421
1114.84424	0.92277
1112.78733	0.92126
1110.73042	0.91971
1108.67351	0.91823
1106.61660	0.91709
1104.55969	0.91606
1102.50279	0.91482
1100.44588	0.91376
1098.38897	0.91306
1096.33206	0.91225
1094.27515	0.91097
1092.21825	0.90928
1090.16134	0.90771
1088.10443	0.90655
1086.04752	0.90522
1083.99061	0.90356
1081.93370	0.90210
1079.87680	0.90087
1077.81989	0.89933
1075.76298	0.89753
1073.70607	0.89578
1071.64916	0.89404
1069.59226	0.89257
1067.53535	0.89128
1065.47844	0.88988
1063.42153	0.88879
1061.36462	0.88822
1059.30771	0.88768
1057.25081	0.88690
1055.19390	0.88612
1053.13699	0.88514
1051.08008	0.88383
1049.02317	0.88277
1046.96627	0.88223
1044.90936	0.88188
1042.85245	0.88149
1040.79554	0.88078
1038.73863	0.87967
1036.68172	0.87856
1034.62482	0.87773
1032.56791	0.87715
1030.51100	0.87636
1028.45409	0.87538
1026.39718	0.87490
1024.34028	0.87502
1022.28337	0.87561
1020.22646	0.87637
1018.16955	0.87717
1016.11264	0.87795
1014.05573	0.87866
1011.99883	0.87956
1009.94192	0.88081
1007.88501	0.88231
1005.82810	0.88382
1003.77119	0.88495
1001.71429	0.88582
999.65738	0.88670
997.60047	0.88776
995.54356	0.88919
993.48665	0.89069
991.42974	0.89195
989.37284	0.89316
987.31593	0.89462
985.25902	0.89628
983.20211	0.89803
981.14520	0.89992
979.08830	0.90170
977.03139	0.90331
974.97448	0.90529
972.91757	0.90755
970.86066	0.90943
968.80375	0.91106
966.74685	0.91273
964.68994	0.91442
962.63303	0.91627
960.57612	0.91823
958.51921	0.91992
956.46231	0.92135
954.40540	0.92271
952.34849	0.92402
950.29158	0.92523
948.23467	0.92636
946.17776	0.92741
944.12086	0.92844
942.06395	0.92922
940.00704	0.92922
937.95013	0.92905
935.89322	0.92967
933.83632	0.93070
931.77941	0.93142
929.72250	0.93191
927.66559	0.93229
925.60868	0.93241
923.55177	0.93234
921.49487	0.93241
919.43796	0.93257
917.38105	0.93280
915.32414	0.93307
913.26723	0.93311
911.21033	0.93292
909.15342	0.93272
907.09651	0.93255
905.03960	0.93211
902.98269	0.93152
900.92578	0.93156
898.86888	0.93202
896.81197	0.93228
894.75506	0.93265
892.69815	0.93322
890.64124	0.93366
888.58434	0.93411
886.52743	0.93488
884.47052	0.93631
882.41361	0.93806
880.35670	0.93932
878.29979	0.94017
876.24289	0.94127
874.18598	0.94277
872.12907	0.94430
870.07216	0.94539
868.01525	0.94635
865.95835	0.94768
863.90144	0.94888
861.84453	0.94966
859.78762	0.95050
857.73071	0.95109
855.67380	0.95155
853.61690	0.95239
851.55999	0.95313
849.50308	0.95345
847.44617	0.95382
845.38926	0.95439
843.33236	0.95445
841.27545	0.95399
839.21854	0.95357
837.16163	0.95304
835.10472	0.95243
833.04781	0.95198
830.99091	0.95195
828.93400	0.95248
826.87709	0.95296
824.82018	0.95290
822.76327	0.95248
820.70637	0.95200
818.64946	0.95151
816.59255	0.95094
814.53564	0.95031
812.47873	0.94998
810.42182	0.95034
808.36492	0.95056
806.30801	0.94999
804.25110	0.94947
802.19419	0.94948
800.13728	0.94938
798.08038	0.94932
796.02347	0.94946
793.96656	0.94915
791.90965	0.94884
789.85274	0.94883
787.79583	0.94885
785.73893	0.94921
783.68202	0.94999
781.62511	0.95069
779.56820	0.95079
777.51129	0.95119
775.45439	0.95258
773.39748	0.95364
771.34057	0.95370
769.28366	0.95373
767.22675	0.95403
765.16984	0.95418
763.11294	0.95444
761.05603	0.95493
758.99912	0.95551
756.94221	0.95581
754.88530	0.95561
752.82839	0.95583
750.77149	0.95660
748.71458	0.95706
746.65767	0.95733
744.60076	0.95799
742.54385	0.95868
740.48695	0.95878
738.43004	0.95848
736.37313	0.95788
734.31622	0.95668
732.25931	0.95593
730.20240	0.95663
728.14550	0.95756
726.08859	0.95759
724.03168	0.95717
721.97477	0.95684
719.91786	0.95640
717.86096	0.95597
715.80405	0.95579
713.74714	0.95545
711.69023	0.95464
709.63332	0.95365
707.57641	0.95328
705.51951	0.95338
703.46260	0.95309
701.40569	0.95287
699.34878	0.95305
697.29187	0.95314
695.23497	0.95317
693.17806	0.95341
691.12115	0.95336
689.06424	0.95315
687.00733	0.95343
684.95042	0.95348
682.89352	0.95244
680.83661	0.95049
678.77970	0.94855
676.72279	0.94773
674.66588	0.94785
672.60898	0.94800
670.55207	0.94811
668.49516	0.94818
666.43825	0.94764
664.38134	0.94754
662.32443	0.94821
660.26753	0.94845
658.21062	0.94795
656.15371	0.94779
654.09680	0.94833
652.03989	0.94895
649.98299	0.94897
647.92608	0.94834
645.86917	0.94764
643.81226	0.94753
641.75535	0.94781
639.69844	0.94767
637.64154	0.94717
635.58463	0.94637
633.52772	0.94517
631.47081	0.94493
629.41390	0.94572
627.35700	0.94532
625.30009	0.94407
623.24318	0.94341
621.18627	0.94286
619.12936	0.94203
617.07245	0.94132
615.01555	0.94103
612.95864	0.94084
610.90173	0.94048
608.84482	0.93968
606.78791	0.93858
604.73101	0.93753
602.67410	0.93672
600.61719	0.93649
598.56028	0.93654
596.50337	0.93677
594.44646	0.93767
592.38956	0.93849
590.33265	0.93873
588.27574	0.93894
586.21883	0.93892
584.16192	0.93865
582.10502	0.93851
580.04811	0.93867
577.99120	0.93887
575.93429	0.93863
573.87738	0.93764
571.82047	0.93669
569.76357	0.93668
567.70666	0.93576
565.64975	0.93372
563.59284	0.93323
561.53593	0.93405
559.47903	0.93409
557.42212	0.93314
555.36521	0.93226
553.30830	0.93258
551.25139	0.93382
549.19448	0.93440
547.13758	0.93384
545.08067	0.93261
543.02376	0.93206
540.96685	0.93316
538.90994	0.93418
536.85304	0.93367
534.79613	0.93248
532.73922	0.93101
530.68231	0.92899
528.62540	0.92695
526.56849	0.92617
524.51159	0.92656
522.45468	0.92626
520.39777	0.92473
518.34086	0.92272
516.28395	0.92176
514.22705	0.92233
512.17014	0.92262
510.11323	0.92152
508.05632	0.91935
505.99941	0.91631
503.94250	0.91281
501.88560	0.90933
499.82869	0.90515
497.77178	0.90044
495.71487	0.89788
493.65796	0.89734
491.60106	0.89610
489.54415	0.89495
487.48724	0.89447
485.43033	0.89309
483.37342	0.89048
481.31651	0.88718
479.25961	0.88489
477.20270	0.88474
475.14579	0.88541
473.08888	0.88354
471.03197	0.87857
468.97507	0.87584
466.91816	0.87566
464.86125	0.87408
462.80434	0.87089
460.74743	0.86818
458.69052	0.86731
456.63362	0.86722
454.57671	0.86787
452.51980	0.86951
450.46289	0.86973
448.40598	0.86909
446.34908	0.87075
444.29217	0.87319
442.23526	0.87310
440.17835	0.87314
438.12144	0.87525
436.06453	0.87557
434.00763	0.87350
431.95072	0.87402
429.89381	0.87677
427.83690	0.87805
425.77999	0.87702
423.72309	0.87470
421.66618	0.87383
419.60927	0.87394
417.55236	0.87345
415.49545	0.87420
413.43854	0.87523
411.38164	0.87477
409.32473	0.87426
407.26782	0.87550
405.21091	0.87848
403.15400	0.88268
401.09710	0.88535
399.04019	0.88267
