3996.57260	0.97978
3994.51569	0.97995
3992.45878	0.97962
3990.40188	0.97953
3988.34497	0.97967
3986.28806	0.97960
3984.23115	0.97951
3982.17424	0.97925
3980.11733	0.97939
3978.06043	0.97987
3976.00352	0.97963
3973.94661	0.97898
3971.88970	0.97889
3969.83279	0.97911
3967.77589	0.97902
3965.71898	0.97927
3963.66207	0.97993
3961.60516	0.97967
3959.54825	0.97906
3957.49134	0.97974
3955.43444	0.98089
3953.37753	0.98079
3951.32062	0.98002
3949.26371	0.97975
3947.20680	0.97981
3945.14990	0.98000
3943.09299	0.98017
3941.03608	0.97988
3938.97917	0.97927
3936.92226	0.97920
3934.86535	0.97973
3932.80845	0.97995
3930.75154	0.97975
3928.69463	0.97957
3926.63772	0.97951
3924.58081	0.97935
3922.52391	0.97916
3920.46700	0.97945
3918.41009	0.97997
3916.35318	0.98000
3914.29627	0.97960
3912.23936	0.97948
3910.18246	0.97974
3908.12555	0.98017
3906.06864	0.98087
3904.01173	0.98138
3901.95482	0.98125
3899.89792	0.98113
3897.84101	0.98101
3895.78410	0.98071
3893.72719	0.98041
3891.67028	0.97995
3889.61337	0.97950
3887.55647	0.97939
3885.49956	0.97894
3883.44265	0.97843
3881.38574	0.97901
3879.32883	0.97993
3877.27193	0.98043
3875.21502	0.98089
3873.15811	0.98099
3871.10120	0.98063
3869.04429	0.98057
3866.98738	0.98093
3864.93048	0.98106
3862.87357	0.98107
3860.81666	0.98121
3858.75975	0.98130
3856.70284	0.98168
3854.64594	0.98174
3852.58903	0.98065
3850.53212	0.98014
3848.47521	0.98026
3846.41830	0.98036
3844.36139	0.98033
3842.30449	0.98039
3840.24758	0.98039
3838.19067	0.97975
3836.13376	0.97938
3834.07685	0.97973
3832.01995	0.97980
3829.96304	0.97963
3827.90613	0.97978
3825.84922	0.98029
3823.79231	0.98080
3821.73540	0.98077
3819.67850	0.98039
3817.62159	0.98001
3815.56468	0.97947
3813.50777	0.97928
3811.45086	0.97943
3809.39396	0.97967
3807.33705	0.97992
3805.28014	0.98022
3803.22323	0.98062
3801.16632	0.98062
3799.10941	0.98021
3797.05251	0.97988
3794.99560	0.98002
3792.93869	0.98053
3790.88178	0.98035
3788.82487	0.97995
3786.76796	0.98039
3784.71106	0.98097
3782.65415	0.98114
3780.59724	0.98082
3778.54033	0.98012
3776.48342	0.97999
3774.42652	0.98016
3772.36961	0.98001
3770.31270	0.97980
3768.25579	0.97987
3766.19888	0.98009
3764.14197	0.98013
3762.08507	0.98005
3760.02816	0.97977
3757.97125	0.97942
3755.91434	0.97920
3753.85743	0.97854
3751.80053	0.97821
3749.74362	0.97922
3747.68671	0.98018
3745.62980	0.98028
3743.57289	0.97948
3741.51598	0.97918
3739.45908	0.97995
3737.40217	0.98091
3735.34526	0.98123
3733.28835	0.98150
3731.23144	0.98208
3729.17454	0.98245
3727.11763	0.98274
3725.06072	0.98229
3723.00381	0.98131
3720.94690	0.98104
3718.88999	0.98109
3716.83309	0.98105
3714.77618	0.98072
3712.71927	0.97995
3710.66236	0.97980
3708.60545	0.98067
3706.54855	0.98135
3704.49164	0.98167
3702.43473	0.98167
3700.37782	0.98081
3698.32091	0.97980
3696.26400	0.97993
3694.20710	0.98085
3692.15019	0.98118
3690.09328	0.98070
3688.03637	0.98030
3685.97946	0.98028
3683.92256	0.98029
3681.86565	0.98053
3679.80874	0.98116
3677.75183	0.98141
3675.69492	0.98061
3673.63801	0.98032
3671.58111	0.98073
3669.52420	0.98072
3667.46729	0.98045
3665.41038	0.98009
3663.35347	0.97999
3661.29657	0.98039
3659.23966	0.98068
3657.18275	0.98018
3655.12584	0.97901
3653.06893	0.97848
3651.01202	0.97857
3648.95512	0.97844
3646.89821	0.97885
3644.84130	0.97943
3642.78439	0.97919
3640.72748	0.97873
3638.67058	0.97873
3636.61367	0.97882
3634.55676	0.97859
3632.49985	0.97859
3630.44294	0.97902
3628.38603	0.97838
3626.32913	0.97738
3624.27222	0.97729
3622.21531	0.97690
3620.15840	0.97634
3618.10149	0.97663
3616.04459	0.97757
3613.98768	0.97867
3611.93077	0.97892
3609.87386	0.97791
3607.81695	0.97690
3605.76004	0.97643
3603.70314	0.97579
3601.64623	0.97465
3599.58932	0.97380
3597.53241	0.97401
3595.47550	0.97427
3593.41860	0.97388
3591.36169	0.97393
3589.30478	0.97451
3587.24787	0.97459
3585.19096	0.97410
3583.13405	0.97391
3581.07715	0.97407
3579.02024	0.97361
3576.96333	0.97230
3574.90642	0.97098
3572.84951	0.97027
3570.79261	0.97018
3568.73570	0.97037
3566.67879	0.97037
3564.62188	0.97006
3562.56497	0.96981
3560.50806	0.96937
3558.45116	0.96838
3556.39425	0.96724
3554.33734	0.96654
3552.28043	0.96634
3550.22352	0.96603
3548.16662	0.96577
3546.10971	0.96618
3544.05280	0.96614
3541.99589	0.96506
3539.93898	0.96378
3537.88207	0.96255
3535.82517	0.96178
3533.76826	0.96157
3531.71135	0.96110
3529.65444	0.96050
3527.59753	0.96055
3525.54063	0.96091
3523.48372	0.96090
3521.42681	0.96086
3519.36990	0.96075
3517.31299	0.96006
3515.25608	0.95916
3513.19918	0.95866
3511.14227	0.95813
3509.08536	0.95726
3507.02845	0.95647
3504.97154	0.95575
3502.91464	0.95523
3500.85773	0.95504
3498.80082	0.95478
3496.74391	0.95455
3494.68700	0.95454
3492.63009	0.95425
3490.57319	0.95367
3488.51628	0.95336
3486.45937	0.95325
3484.40246	0.95290
3482.34555	0.95240
3480.28865	0.95212
3478.23174	0.95192
3476.17483	0.95157
3474.11792	0.95133
3472.06101	0.95114
3470.00410	0.95092
3467.94720	0.95094
3465.89029	0.95112
3463.83338	0.95123
3461.77647	0.95117
3459.71956	0.95081
3457.66266	0.95059
3455.60575	0.95074
3453.54884	0.95087
3451.49193	0.95107
3449.43502	0.95115
3447.37811	0.95074
3445.32121	0.95090
3443.26430	0.95160
3441.20739	0.95144
3439.15048	0.95093
3437.09357	0.95097
3435.03667	0.95143
3432.97976	0.95201
3430.92285	0.95225
3428.86594	0.95181
3426.80903	0.95117
3424.75212	0.95108
3422.69522	0.95149
3420.63831	0.95200
3418.58140	0.95248
3416.52449	0.95317
3414.46758	0.95393
3412.41068	0.95388
3410.35377	0.95331
3408.29686	0.95352
3406.23995	0.95404
3404.18304	0.95411
3402.12613	0.95415
3400.06923	0.95432
3398.01232	0.95450
3395.95541	0.95479
3393.89850	0.95512
3391.84159	0.95517
3389.78469	0.95519
3387.72778	0.95554
3385.67087	0.95612
3383.61396	0.95647
3381.55705	0.95623
3379.50014	0.95599
3377.44324	0.95617
3375.38633	0.95625
3373.32942	0.95629
3371.27251	0.95656
3369.21560	0.95666
3367.15870	0.95653
3365.10179	0.95652
3363.04488	0.95678
3360.98797	0.95738
3358.93106	0.95817
3356.87415	0.95885
3354.81725	0.95919
3352.76034	0.95919
3350.70343	0.95907
3348.64652	0.95908
3346.58961	0.95949
3344.53271	0.96001
3342.47580	0.96027
3340.41889	0.96036
3338.36198	0.96048
3336.30507	0.96072
3334.24816	0.96104
3332.19126	0.96126
3330.13435	0.96144
3328.07744	0.96166
3326.02053	0.96190
3323.96362	0.96193
3321.90672	0.96163
3319.84981	0.96165
3317.79290	0.96210
3315.73599	0.96241
3313.67908	0.96232
3311.62217	0.96196
3309.56527	0.96169
3307.50836	0.96192
3305.45145	0.96273
3303.39454	0.96361
3301.33763	0.96414
3299.28073	0.96409
3297.22382	0.96330
3295.16691	0.96289
3293.11000	0.96352
3291.05309	0.96423
3288.99618	0.96439
3286.93928	0.96442
3284.88237	0.96460
3282.82546	0.96458
3280.76855	0.96451
3278.71164	0.96463
3276.65474	0.96465
3274.59783	0.96431
3272.54092	0.96371
3270.48401	0.96393
3268.42710	0.96540
3266.37019	0.96655
3264.31329	0.96653
3262.25638	0.96631
3260.19947	0.96652
3258.14256	0.96674
3256.08565	0.96684
3254.02875	0.96697
3251.97184	0.96691
3249.91493	0.96680
3247.85802	0.96697
3245.80111	0.96722
3243.74420	0.96735
3241.68730	0.96753
3239.63039	0.96772
3237.57348	0.96769
3235.51657	0.96752
3233.45966	0.96725
3231.40276	0.96737
3229.34585	0.96830
3227.28894	0.96918
3225.23203	0.96940
3223.17512	0.96935
3221.11821	0.96929
3219.06131	0.96933
3217.00440	0.96938
3214.94749	0.96928
3212.89058	0.96946
3210.83367	0.96990
3208.77677	0.96998
3206.71986	0.96995
3204.66295	0.97032
3202.60604	0.97076
3200.54913	0.97091
3198.49222	0.97086
3196.43532	0.97094
3194.37841	0.97116
3192.32150	0.97120
3190.26459	0.97108
3188.20768	0.97093
3186.15078	0.97093
3184.09387	0.97100
3182.03696	0.97119
3179.98005	0.97166
3177.92314	0.97201
3175.86623	0.97207
3173.80933	0.97185
3171.75242	0.97137
3169.69551	0.97110
3167.63860	0.97141
3165.58169	0.97197
3163.52479	0.97250
3161.46788	0.97303
3159.41097	0.97328
3157.35406	0.97311
3155.29715	0.97279
3153.24024	0.97239
3151.18334	0.97228
3149.12643	0.97271
3147.06952	0.97309
3145.01261	0.97307
3142.95570	0.97279
3140.89880	0.97254
3138.84189	0.97292
3136.78498	0.97389
3134.72807	0.97426
3132.67116	0.97369
3130.61425	0.97322
3128.55735	0.97330
3126.50044	0.97342
3124.44353	0.97360
3122.38662	0.97398
3120.32971	0.97390
3118.27281	0.97339
3116.21590	0.97320
3114.15899	0.97347
3112.10208	0.97361
3110.04517	0.97365
3107.98826	0.97395
3105.93136	0.97420
3103.87445	0.97410
3101.81754	0.97410
3099.76063	0.97462
3097.70372	0.97496
3095.64682	0.97457
3093.58991	0.97395
3091.53300	0.97387
3089.47609	0.97425
3087.41918	0.97432
3085.36227	0.97424
3083.30537	0.97461
3081.24846	0.97517
3079.19155	0.97557
3077.13464	0.97562
3075.07773	0.97536
3073.02083	0.97522
3070.96392	0.97531
3068.90701	0.97530
3066.85010	0.97487
3064.79319	0.97421
3062.73628	0.97422
3060.67938	0.97500
3058.62247	0.97529
3056.56556	0.97461
3054.50865	0.97409
3052.45174	0.97409
3050.39484	0.97414
3048.33793	0.97423
3046.28102	0.97440
3044.22411	0.97447
3042.16720	0.97449
3040.11029	0.97473
3038.05339	0.97492
3035.99648	0.97464
3033.93957	0.97430
3031.88266	0.97447
3029.82575	0.97474
3027.76885	0.97454
3025.71194	0.97422
3023.65503	0.97430
3021.59812	0.97435
3019.54121	0.97395
3017.48430	0.97367
3015.42740	0.97383
3013.37049	0.97411
3011.31358	0.97431
3009.25667	0.97431
3007.19976	0.97413
3005.14286	0.97396
3003.08595	0.97369
3001.02904	0.97352
2998.97213	0.97373
2996.91522	0.97388
2994.85831	0.97356
2992.80141	0.97301
2990.74450	0.97274
2988.68759	0.97273
2986.63068	0.97253
2984.57377	0.97240
2982.51687	0.97255
2980.45996	0.97249
2978.40305	0.97212
2976.34614	0.97160
2974.28923	0.97092
2972.23232	0.97027
2970.17542	0.96991
2968.11851	0.96969
2966.06160	0.96955
2964.00469	0.96943
2961.94778	0.96901
2959.89088	0.96842
2957.83397	0.96807
2955.77706	0.96787
2953.72015	0.96762
2951.66324	0.96738
2949.60633	0.96747
2947.54943	0.96797
2945.49252	0.96798
2943.43561	0.96710
2941.37870	0.96648
2939.32179	0.96653
2937.26489	0.96643
2935.20798	0.96609
2933.15107	0.96586
2931.09416	0.96586
2929.03725	0.96603
2926.98034	0.96609
2924.92344	0.96593
2922.86653	0.96579
2920.80962	0.96600
2918.75271	0.96620
2916.69580	0.96596
2914.63890	0.96586
2912.58199	0.96593
2910.52508	0.96563
2908.46817	0.96517
2906.41126	0.96505
2904.35435	0.96529
2902.29745	0.96545
2900.24054	0.96518
2898.18363	0.96473
2896.12672	0.96472
2894.06981	0.96483
2892.01291	0.96448
2889.95600	0.96410
2887.89909	0.96415
2885.84218	0.96403
2883.78527	0.96372
2881.72836	0.96396
2879.67146	0.96437
2877.61455	0.96446
2875.55764	0.96458
2873.50073	0.96505
2871.44382	0.96562
2869.38692	0.96578
2867.33001	0.96562
2865.27310	0.96583
2863.21619	0.96653
2861.15928	0.96696
2859.10237	0.96687
2857.04547	0.96697
2854.98856	0.96759
2852.93165	0.96823
2850.87474	0.96853
2848.81783	0.96905
2846.76093	0.96980
2844.70402	0.97023
2842.64711	0.97032
2840.59020	0.97035
2838.53329	0.97083
2836.47638	0.97151
2834.41948	0.97159
2832.36257	0.97150
2830.30566	0.97176
2828.24875	0.97206
2826.19184	0.97219
2824.13494	0.97232
2822.07803	0.97233
2820.02112	0.97216
2817.96421	0.97231
2815.90730	0.97273
2813.85039	0.97276
2811.79349	0.97250
2809.73658	0.97259
2807.67967	0.97294
2805.62276	0.97321
2803.56585	0.97338
2801.50895	0.97342
2799.45204	0.97377
2797.39513	0.97442
2795.33822	0.97458
2793.28131	0.97429
2791.22440	0.97419
2789.16750	0.97425
2787.11059	0.97408
2785.05368	0.97364
2782.99677	0.97331
2780.93986	0.97339
2778.88296	0.97363
2776.82605	0.97388
2774.76914	0.97415
2772.71223	0.97400
2770.65532	0.97358
2768.59841	0.97358
2766.54151	0.97388
2764.48460	0.97409
2762.42769	0.97428
2760.37078	0.97458
2758.31387	0.97473
2756.25697	0.97476
2754.20006	0.97485
2752.14315	0.97478
2750.08624	0.97457
2748.02933	0.97446
2745.97242	0.97438
2743.91552	0.97427
2741.85861	0.97418
2739.80170	0.97413
2737.74479	0.97407
2735.68788	0.97418
2733.63098	0.97453
2731.57407	0.97471
2729.51716	0.97457
2727.46025	0.97457
2725.40334	0.97478
2723.34643	0.97485
2721.28953	0.97468
2719.23262	0.97429
2717.17571	0.97408
2715.11880	0.97449
2713.06189	0.97500
2711.00499	0.97509
2708.94808	0.97511
2706.89117	0.97511
2704.83426	0.97486
2702.77735	0.97466
2700.72044	0.97453
2698.66354	0.97436
2696.60663	0.97430
2694.54972	0.97430
2692.49281	0.97449
2690.43590	0.97478
2688.37900	0.97475
2686.32209	0.97468
2684.26518	0.97483
2682.20827	0.97490
2680.15136	0.97481
2678.09445	0.97465
2676.03755	0.97463
2673.98064	0.97493
2671.92373	0.97538
2669.86682	0.97556
2667.80991	0.97513
2665.75301	0.97454
2663.69610	0.97456
2661.63919	0.97484
2659.58228	0.97474
2657.52537	0.97450
2655.46846	0.97457
2653.41156	0.97461
2651.35465	0.97447
2649.29774	0.97457
2647.24083	0.97459
2645.18392	0.97426
2643.12702	0.97419
2641.07011	0.97460
2639.01320	0.97489
2636.95629	0.97481
2634.89938	0.97469
2632.84247	0.97477
2630.78557	0.97488
2628.72866	0.97480
2626.67175	0.97471
2624.61484	0.97488
2622.55793	0.97519
2620.50103	0.97522
2618.44412	0.97511
2616.38721	0.97508
2614.33030	0.97494
2612.27339	0.97496
2610.21648	0.97528
2608.15958	0.97560
2606.10267	0.97575
2604.04576	0.97561
2601.98885	0.97514
2599.93194	0.97511
2597.87504	0.97583
2595.81813	0.97645
2593.76122	0.97691
2591.70431	0.97715
2589.64740	0.97685
2587.59049	0.97657
2585.53359	0.97654
2583.47668	0.97631
2581.41977	0.97597
2579.36286	0.97608
2577.30595	0.97632
2575.24905	0.97616
2573.19214	0.97594
2571.13523	0.97613
2569.07832	0.97670
2567.02141	0.97715
2564.96450	0.97675
2562.90760	0.97587
2560.85069	0.97588
2558.79378	0.97659
2556.73687	0.97693
2554.67996	0.97666
2552.62306	0.97615
2550.56615	0.97618
2548.50924	0.97634
2546.45233	0.97604
2544.39542	0.97614
2542.33851	0.97695
2540.28161	0.97767
2538.22470	0.97751
2536.16779	0.97686
2534.11088	0.97691
2532.05397	0.97760
2529.99707	0.97784
2527.94016	0.97723
2525.88325	0.97670
2523.82634	0.97705
2521.76943	0.97714
2519.71252	0.97631
2517.65562	0.97595
2515.59871	0.97664
2513.54180	0.97749
2511.48489	0.97779
2509.42798	0.97744
2507.37108	0.97720
2505.31417	0.97759
2503.25726	0.97798
2501.20035	0.97807
2499.14344	0.97803
2497.08653	0.97788
2495.02963	0.97777
2492.97272	0.97772
2490.91581	0.97779
2488.85890	0.97787
2486.80199	0.97747
2484.74509	0.97689
2482.68818	0.97686
2480.63127	0.97726
2478.57436	0.97749
2476.51745	0.97748
2474.46054	0.97772
2472.40364	0.97787
2470.34673	0.97735
2468.28982	0.97664
2466.23291	0.97641
2464.17600	0.97684
2462.11910	0.97759
2460.06219	0.97834
2458.00528	0.97873
2455.94837	0.97861
2453.89146	0.97838
2451.83455	0.97822
2449.77765	0.97799
2447.72074	0.97785
2445.66383	0.97769
2443.60692	0.97718
2441.55001	0.97655
2439.49311	0.97646
2437.43620	0.97684
2435.37929	0.97680
2433.32238	0.97667
2431.26547	0.97734
2429.20856	0.97792
2427.15166	0.97752
2425.09475	0.97712
2423.03784	0.97738
2420.98093	0.97773
2418.92402	0.97778
2416.86712	0.97779
2414.81021	0.97770
2412.75330	0.97713
2410.69639	0.97659
2408.63948	0.97652
2406.58257	0.97690
2404.52567	0.97782
2402.46876	0.97843
2400.41185	0.97811
2398.35494	0.97763
2396.29803	0.97767
2394.24113	0.97807
2392.18422	0.97824
2390.12731	0.97795
2388.07040	0.97768
2386.01349	0.97767
2383.95658	0.97772
2381.89968	0.97803
2379.84277	0.97829
2377.78586	0.97811
2375.72895	0.97774
2373.67204	0.97740
2371.61514	0.97766
2369.55823	0.97870
2367.50132	0.97992
2365.44441	0.98065
2363.38750	0.98048
2361.33059	0.98000
2359.27369	0.97982
2357.21678	0.97940
2355.15987	0.97801
2353.10296	0.97661
2351.04605	0.97670
2348.98915	0.97797
2346.93224	0.97892
2344.87533	0.97845
2342.81842	0.97770
2340.76151	0.97786
2338.70460	0.97794
2336.64770	0.97786
2334.59079	0.97819
2332.53388	0.97864
2330.47697	0.97851
2328.42006	0.97733
2326.36316	0.97579
2324.30625	0.97524
2322.24934	0.97579
2320.19243	0.97622
2318.13552	0.97658
2316.07861	0.97751
2314.02171	0.97821
2311.96480	0.97786
2309.90789	0.97710
2307.85098	0.97702
2305.79407	0.97737
2303.73717	0.97695
2301.68026	0.97597
2299.62335	0.97578
2297.56644	0.97614
2295.50953	0.97633
2293.45262	0.97657
2291.39572	0.97668
2289.33881	0.97657
2287.28190	0.97665
2285.22499	0.97730
2283.16808	0.97762
2281.11117	0.97648
2279.05427	0.97538
2276.99736	0.97587
2274.94045	0.97709
2272.88354	0.97755
2270.82663	0.97700
2268.76973	0.97710
2266.71282	0.97811
2264.65591	0.97874
2262.59900	0.97891
2260.54209	0.97858
2258.48518	0.97763
2256.42828	0.97698
2254.37137	0.97782
2252.31446	0.97878
2250.25755	0.97843
2248.20064	0.97833
2246.14374	0.97912
2244.08683	0.97958
2242.02992	0.97874
2239.97301	0.97717
2237.91610	0.97663
2235.85919	0.97778
2233.80229	0.97895
2231.74538	0.97900
2229.68847	0.97878
2227.63156	0.97844
2225.57465	0.97798
2223.51775	0.97835
2221.46084	0.97896
2219.40393	0.97877
2217.34702	0.97804
2215.29011	0.97713
2213.23320	0.97717
2211.17630	0.97888
2209.11939	0.98082
2207.06248	0.98082
2205.00557	0.97923
2202.94866	0.97851
2200.89176	0.97918
2198.83485	0.98047
2196.77794	0.98162
2194.72103	0.98146
2192.66412	0.97940
2190.60721	0.97729
2188.55031	0.97659
2186.49340	0.97693
2184.43649	0.97810
2182.37958	0.97869
2180.32267	0.97834
2178.26577	0.97898
2176.20886	0.97949
2174.15195	0.97812
2172.09504	0.97670
2170.03813	0.97733
2167.98122	0.97904
2165.92432	0.97857
2163.86741	0.97773
2161.81050	0.98122
2159.75359	0.98559
2157.69668	0.98492
2155.63978	0.98217
2153.58287	0.98151
2151.52596	0.98134
2149.46905	0.98202
2147.41214	0.98459
2145.35523	0.98557
2143.29833	0.98400
2141.24142	0.98213
2139.18451	0.98029
2137.12760	0.97849
2135.07069	0.97839
2133.01379	0.97991
2130.95688	0.98051
2128.89997	0.98016
2126.84306	0.98037
2124.78615	0.98057
2122.72924	0.98034
2120.67234	0.97971
2118.61543	0.97872
2116.55852	0.97879
2114.50161	0.98005
2112.44470	0.98042
2110.38780	0.97950
2108.33089	0.97867
2106.27398	0.97870
2104.21707	0.97939
2102.16016	0.97985
2100.10325	0.98007
2098.04635	0.98088
2095.98944	0.98166
2093.93253	0.98101
2091.87562	0.97957
2089.81871	0.97934
2087.76181	0.98012
2085.70490	0.98080
2083.64799	0.98076
2081.59108	0.97977
2079.53417	0.97916
2077.47726	0.97927
2075.42036	0.97970
2073.36345	0.98039
2071.30654	0.98015
2069.24963	0.97956
2067.19272	0.97980
2065.13582	0.97944
2063.07891	0.97818
2061.02200	0.97828
2058.96509	0.97938
2056.90818	0.97913
2054.85127	0.97857
2052.79437	0.97911
2050.73746	0.97945
2048.68055	0.97870
2046.62364	0.97749
2044.56673	0.97705
2042.50983	0.97772
2040.45292	0.97899
2038.39601	0.98060
2036.33910	0.98217
2034.28219	0.98307
2032.22528	0.98390
2030.16838	0.98458
2028.11147	0.98391
2026.05456	0.98274
2023.99765	0.98098
2021.94074	0.97881
2019.88384	0.97897
2017.82693	0.98076
2015.77002	0.98137
2013.71311	0.98122
2011.65620	0.98167
2009.59929	0.98203
2007.54239	0.98242
2005.48548	0.98319
2003.42857	0.98300
2001.37166	0.98188
1999.31475	0.98085
1997.25785	0.98088
1995.20094	0.98243
1993.14403	0.98423
1991.08712	0.98472
1989.03021	0.98460
1986.97330	0.98432
1984.91640	0.98226
1982.85949	0.97948
1980.80258	0.97836
1978.74567	0.97921
1976.68876	0.98089
1974.63186	0.98070
1972.57495	0.97967
1970.51804	0.98092
1968.46113	0.98287
1966.40422	0.98325
1964.34731	0.98179
1962.29041	0.98028
1960.23350	0.98101
1958.17659	0.98216
1956.11968	0.98191
1954.06277	0.98189
1952.00587	0.98276
1949.94896	0.98313
1947.89205	0.98226
1945.83514	0.98090
1943.77823	0.98060
1941.72132	0.98187
1939.66442	0.98256
1937.60751	0.98196
1935.55060	0.98217
1933.49369	0.98370
1931.43678	0.98487
1929.37988	0.98478
1927.32297	0.98390
1925.26606	0.98273
1923.20915	0.98194
1921.15224	0.98180
1919.09533	0.98161
1917.03843	0.98158
1914.98152	0.98227
1912.92461	0.98259
1910.86770	0.98170
1908.81079	0.98095
1906.75389	0.98125
1904.69698	0.98199
1902.64007	0.98292
1900.58316	0.98329
1898.52625	0.98241
1896.46934	0.98120
1894.41244	0.98090
1892.35553	0.98152
1890.29862	0.98208
1888.24171	0.98216
1886.18480	0.98221
1884.12790	0.98249
1882.07099	0.98256
1880.01408	0.98239
1877.95717	0.98226
1875.90026	0.98248
1873.84335	0.98295
1871.78645	0.98293
1869.72954	0.98234
1867.67263	0.98212
1865.61572	0.98298
1863.55881	0.98415
1861.50191	0.98433
1859.44500	0.98347
1857.38809	0.98276
1855.33118	0.98280
1853.27427	0.98324
1851.21736	0.98329
1849.16046	0.98312
1847.10355	0.98318
1845.04664	0.98299
1842.98973	0.98262
1840.93282	0.98257
1838.87592	0.98286
1836.81901	0.98352
1834.76210	0.98415
1832.70519	0.98394
1830.64828	0.98324
1828.59137	0.98291
1826.53447	0.98268
1824.47756	0.98268
1822.42065	0.98314
1820.36374	0.98314
1818.30683	0.98277
1816.24993	0.98272
1814.19302	0.98279
1812.13611	0.98289
1810.07920	0.98277
1808.02229	0.98258
1805.96538	0.98250
1803.90848	0.98218
1801.85157	0.98154
1799.79466	0.98088
1797.73775	0.98063
1795.68084	0.98097
1793.62394	0.98115
1791.56703	0.98051
1789.51012	0.97989
1787.45321	0.97951
1785.39630	0.97901
1783.33939	0.97853
1781.28249	0.97806
1779.22558	0.97705
1777.16867	0.97568
1775.11176	0.97439
1773.05485	0.97214
1770.99795	0.96800
1768.94104	0.96291
1766.88413	0.95659
1764.82722	0.94935
1762.77031	0.94064
1760.71340	0.92965
1758.65650	0.91844
1756.59959	0.90708
1754.54268	0.89707
1752.48577	0.88840
1750.42886	0.87868
1748.37196	0.86931
1746.31505	0.86217
1744.25814	0.85629
1742.20123	0.85106
1740.14432	0.84636
1738.08741	0.84344
1736.03051	0.84253
1733.97360	0.84123
1731.91669	0.84026
1729.85978	0.84120
1727.80287	0.84329
1725.74597	0.84617
1723.68906	0.84992
1721.63215	0.85456
1719.57524	0.86010
1717.51833	0.86733
1715.46142	0.87602
1713.40452	0.88445
1711.34761	0.89241
1709.29070	0.90012
1707.23379	0.90781
1705.17688	0.91541
1703.11998	0.92149
1701.06307	0.92699
1699.00616	0.93293
1696.94925	0.93764
1694.89234	0.94153
1692.83543	0.94442
1690.77853	0.94646
1688.72162	0.94821
1686.66471	0.95002
1684.60780	0.95200
1682.55089	0.95347
1680.49399	0.95464
1678.43708	0.95577
1676.38017	0.95664
1674.32326	0.95741
1672.26635	0.95815
1670.20944	0.95868
1668.15254	0.95901
1666.09563	0.95916
1664.03872	0.95925
1661.98181	0.95935
1659.92490	0.95935
1657.86800	0.95943
1655.81109	0.95956
1653.75418	0.95919
1651.69727	0.95897
1649.64036	0.95971
1647.58345	0.96025
1645.52655	0.96007
1643.46964	0.96005
1641.41273	0.96030
1639.35582	0.96039
1637.29891	0.96036
1635.24201	0.96064
1633.18510	0.96135
1631.12819	0.96214
1629.07128	0.96272
1627.01437	0.96293
1624.95746	0.96310
1622.90056	0.96359
1620.84365	0.96425
1618.78674	0.96473
1616.72983	0.96520
1614.67292	0.96601
1612.61602	0.96685
1610.55911	0.96757
1608.50220	0.96824
1606.44529	0.96873
1604.38838	0.96898
1602.33147	0.96930
1600.27457	0.96978
1598.21766	0.97023
1596.16075	0.97053
1594.10384	0.97084
1592.04693	0.97121
1589.99003	0.97149
1587.93312	0.97167
1585.87621	0.97193
1583.81930	0.97223
1581.76239	0.97247
1579.70548	0.97277
1577.64858	0.97305
1575.59167	0.97291
1573.53476	0.97276
1571.47785	0.97290
1569.42094	0.97303
1567.36404	0.97320
1565.30713	0.97340
1563.25022	0.97336
1561.19331	0.97306
1559.13640	0.97261
1557.07949	0.97299
1555.02259	0.97353
1552.96568	0.97338
1550.90877	0.97306
1548.85186	0.97317
1546.79495	0.97366
1544.73805	0.97421
1542.68114	0.97446
1540.62423	0.97403
1538.56732	0.97367
1536.51041	0.97400
1534.45350	0.97423
1532.39660	0.97411
1530.33969	0.97419
1528.28278	0.97450
1526.22587	0.97451
1524.16896	0.97409
1522.11206	0.97364
1520.05515	0.97354
1517.99824	0.97360
1515.94133	0.97373
1513.88442	0.97417
1511.82751	0.97479
1509.77061	0.97542
1507.71370	0.97560
1505.65679	0.97488
1503.59988	0.97468
1501.54297	0.97494
1499.48607	0.97510
1497.42916	0.97512
1495.37225	0.97510
1493.31534	0.97523
1491.25843	0.97531
1489.20152	0.97489
1487.14462	0.97460
1485.08771	0.97478
1483.03080	0.97462
1480.97389	0.97416
1478.91698	0.97385
1476.86008	0.97344
1474.80317	0.97282
1472.74626	0.97185
1470.68935	0.97060
1468.63244	0.96951
1466.57553	0.96809
1464.51863	0.96625
1462.46172	0.96484
1460.40481	0.96395
1458.34790	0.96262
1456.29099	0.96059
1454.23409	0.95929
1452.17718	0.95835
1450.12027	0.95721
1448.06336	0.95585
1446.00645	0.95438
1443.94954	0.95294
1441.89264	0.95161
1439.83573	0.95048
1437.77882	0.94910
1435.72191	0.94734
1433.66500	0.94612
1431.60810	0.94540
1429.55119	0.94521
1427.49428	0.94577
1425.43737	0.94664
1423.38046	0.94744
1421.32355	0.94821
1419.26665	0.94883
1417.20974	0.94920
1415.15283	0.94964
1413.09592	0.95023
1411.03901	0.95102
1408.98211	0.95181
1406.92520	0.95222
1404.86829	0.95217
1402.81138	0.95194
1400.75447	0.95173
1398.69756	0.95144
1396.64066	0.95059
1394.58375	0.94862
1392.52684	0.94599
1390.46993	0.94301
1388.41302	0.93851
1386.35612	0.93235
1384.29921	0.92618
1382.24230	0.91996
1380.18539	0.91319
1378.12848	0.90645
1376.07157	0.90025
1374.01467	0.89471
1371.95776	0.89074
1369.90085	0.88909
1367.84394	0.88978
1365.78703	0.89289
1363.73013	0.89862
1361.67322	0.90680
1359.61631	0.91574
1357.55940	0.92423
1355.50249	0.93163
1353.44558	0.93746
1351.38868	0.94193
1349.33177	0.94514
1347.27486	0.94709
1345.21795	0.94846
1343.16104	0.94968
1341.10414	0.95066
1339.04723	0.95141
1336.99032	0.95202
1334.93341	0.95235
1332.87650	0.95231
1330.81959	0.95214
1328.76269	0.95203
1326.70578	0.95174
1324.64887	0.95117
1322.59196	0.95070
1320.53505	0.95058
1318.47815	0.95057
1316.42124	0.95049
1314.36433	0.95061
1312.30742	0.95101
1310.25051	0.95139
1308.19360	0.95164
1306.13670	0.95187
1304.07979	0.95215
1302.02288	0.95217
1299.96597	0.95172
1297.90906	0.95106
1295.85216	0.95027
1293.79525	0.94917
1291.73834	0.94766
1289.68143	0.94566
1287.62452	0.94351
1285.56761	0.94147
1283.51071	0.93910
1281.45380	0.93609
1279.39689	0.93278
1277.33998	0.92917
1275.28307	0.92501
1273.22617	0.92038
1271.16926	0.91529
1269.11235	0.90968
1267.05544	0.90399
1264.99853	0.89822
1262.94162	0.89194
1260.88472	0.88487
1258.82781	0.87703
1256.77090	0.86904
1254.71399	0.86128
1252.65708	0.85352
1250.60018	0.84554
1248.54327	0.83752
1246.48636	0.82990
1244.42945	0.82254
1242.37254	0.81472
1240.31563	0.80662
1238.25873	0.79907
1236.20182	0.79198
1234.14491	0.78498
1232.08800	0.77833
1230.03109	0.77252
1227.97419	0.76808
1225.91728	0.76538
1223.86037	0.76467
1221.80346	0.76607
1219.74655	0.76976
1217.68964	0.77601
1215.63274	0.78475
1213.57583	0.79563
1211.51892	0.80821
1209.46201	0.82162
1207.40510	0.83482
1205.34820	0.84758
1203.29129	0.86022
1201.23438	0.87248
1199.17747	0.88370
1197.12056	0.89359
1195.06365	0.90218
1193.00675	0.90952
1190.94984	0.91525
1188.89293	0.91918
1186.83602	0.92172
1184.77911	0.92299
1182.72221	0.92305
1180.66530	0.92237
1178.60839	0.92087
1176.55148	0.91855
1174.49457	0.91584
1172.43766	0.91279
1170.38076	0.90944
1168.32385	0.90638
1166.26694	0.90400
1164.21003	0.90184
1162.15312	0.89999
1160.09622	0.89934
1158.03931	0.89997
1155.98240	0.90142
1153.92549	0.90358
1151.86858	0.90604
1149.81167	0.90811
1147.75477	0.90973
1145.69786	0.91111
1143.64095	0.91202
1141.58404	0.91204
1139.52713	0.91105
1137.47023	0.90925
1135.41332	0.90688
1133.35641	0.90415
1131.29950	0.90120
1129.24259	0.89803
1127.18568	0.89483
1125.12878	0.89220
1123.07187	0.89018
1121.01496	0.88820
1118.95805	0.88616
1116.90114	0.88466
1114.84424	0.88366
1112.78733	0.88254
1110.73042	0.88141
1108.67351	0.88048
1106.61660	0.87924
1104.55969	0.87740
1102.50279	0.87546
1100.44588	0.87375
1098.38897	0.87169
1096.33206	0.86853
1094.27515	0.86466
1092.21825	0.86060
1090.16134	0.85590
1088.10443	0.85034
1086.04752	0.84442
1083.99061	0.83829
1081.93370	0.83182
1079.87680	0.82529
1077.81989	0.81905
1075.76298	0.81334
1073.70607	0.80805
1071.64916	0.80282
1069.59226	0.79779
1067.53535	0.79332
1065.47844	0.78911
1063.42153	0.78487
1061.36462	0.78056
1059.30771	0.77601
1057.25081	0.77119
1055.19390	0.76623
1053.13699	0.76129
1051.08008	0.75652
1049.02317	0.75161
1046.96627	0.74642
1044.90936	0.74142
1042.85245	0.73695
1040.79554	0.73266
1038.73863	0.72805
1036.68172	0.72332
1034.62482	0.71909
1032.56791	0.71585
1030.51100	0.71388
1028.45409	0.71348
1026.39718	0.71475
1024.34028	0.71740
1022.28337	0.72117
1020.22646	0.72578
1018.16955	0.73096
1016.11264	0.73675
1014.05573	0.74316
1011.99883	0.74983
1009.94192	0.75639
1007.88501	0.76286
1005.82810	0.76961
1003.77119	0.77648
1001.71429	0.78298
999.65738	0.78918
997.60047	0.79536
995.54356	0.80117
993.48665	0.80637
991.42974	0.81139
989.37284	0.81631
987.31593	0.82069
985.25902	0.82458
983.20211	0.82851
981.14520	0.83260
979.08830	0.83681
977.03139	0.84131
974.97448	0.84606
972.91757	0.85088
970.86066	0.85577
968.80375	0.86051
966.74685	0.86505
964.68994	0.86975
962.63303	0.87436
960.57612	0.87819
958.51921	0.88124
956.46231	0.88401
954.40540	0.88674
952.34849	0.88933
950.29158	0.89179
948.23467	0.89409
946.17776	0.89583
944.12086	0.89696
942.06395	0.89826
940.00704	0.89996
937.95013	0.90127
935.89322	0.90186
933.83632	0.90221
931.77941	0.90266
929.72250	0.90295
927.66559	0.90273
925.60868	0.90227
923.55177	0.90175
921.49487	0.90076
919.43796	0.89951
917.38105	0.89869
915.32414	0.89799
913.26723	0.89688
911.21033	0.89553
909.15342	0.89416
907.09651	0.89287
905.03960	0.89191
902.98269	0.89156
900.92578	0.89183
898.86888	0.89214
896.81197	0.89241
894.75506	0.89306
892.69815	0.89418
890.64124	0.89573
888.58434	0.89729
886.52743	0.89876
884.47052	0.90080
882.41361	0.90347
880.35670	0.90620
878.29979	0.90875
876.24289	0.91119
874.18598	0.91404
872.12907	0.91750
870.07216	0.92044
868.01525	0.92248
865.95835	0.92437
863.90144	0.92618
861.84453	0.92746
859.78762	0.92837
857.73071	0.92935
855.67380	0.92977
853.61690	0.92944
851.55999	0.92956
849.50308	0.93062
847.44617	0.93148
845.38926	0.93135
843.33236	0.93079
841.27545	0.93023
839.21854	0.93001
837.16163	0.93041
835.10472	0.93086
833.04781	0.93155
830.99091	0.93308
828.93400	0.93461
826.87709	0.93565
824.82018	0.93690
822.76327	0.93806
820.70637	0.93881
818.64946	0.93939
816.59255	0.93951
814.53564	0.93936
812.47873	0.93954
810.42182	0.94007
808.36492	0.94088
806.30801	0.94177
804.25110	0.94228
802.19419	0.94252
800.13728	0.94284
798.08038	0.94319
796.02347	0.94360
793.96656	0.94407
791.90965	0.94428
789.85274	0.94447
787.79583	0.94464
785.73893	0.94459
783.68202	0.94467
781.62511	0.94498
779.56820	0.94541
777.51129	0.94568
775.45439	0.94541
773.39748	0.94494
771.34057	0.94474
769.28366	0.94475
767.22675	0.94489
765.16984	0.94507
763.11294	0.94528
761.05603	0.94570
758.99912	0.94604
756.94221	0.94617
754.88530	0.94629
752.82839	0.94636
750.77149	0.94637
748.71458	0.94585
746.65767	0.94494
744.60076	0.94482
742.54385	0.94541
740.48695	0.94558
738.43004	0.94525
736.37313	0.94518
734.31622	0.94525
732.25931	0.94484
730.20240	0.94389
728.14550	0.94285
726.08859	0.94248
724.03168	0.94262
721.97477	0.94224
719.91786	0.94140
717.86096	0.94087
715.80405	0.94040
713.74714	0.93959
711.69023	0.93892
709.63332	0.93854
707.57641	0.93849
705.51951	0.93817
703.46260	0.93688
701.40569	0.93555
699.34878	0.93473
697.29187	0.93344
695.23497	0.93169
693.17806	0.93028
691.12115	0.92908
689.06424	0.92781
687.00733	0.92678
684.95042	0.92618
682.89352	0.92561
680.83661	0.92492
678.77970	0.92458
676.72279	0.92482
674.66588	0.92448
672.60898	0.92380
670.55207	0.92422
668.49516	0.92450
666.43825	0.92361
664.38134	0.92315
662.32443	0.92297
660.26753	0.92277
658.21062	0.92261
656.15371	0.92197
654.09680	0.92057
652.03989	0.91872
649.98299	0.91678
647.92608	0.91523
645.86917	0.91408
643.81226	0.91314
641.75535	0.91201
639.69844	0.91039
637.64154	0.90842
635.58463	0.90616
633.52772	0.90407
631.47081	0.90217
629.41390	0.90082
627.35700	0.90033
625.30009	0.89946
623.24318	0.89787
621.18627	0.89634
619.12936	0.89466
617.07245	0.89268
615.01555	0.89062
612.95864	0.88771
610.90173	0.88331
608.84482	0.87814
606.78791	0.87362
604.73101	0.87103
602.67410	0.86998
600.61719	0.86970
598.56028	0.87132
596.50337	0.87512
594.44646	0.87896
592.38956	0.88200
590.33265	0.88454
588.27574	0.88649
586.21883	0.88882
584.16192	0.89124
582.10502	0.89245
580.04811	0.89245
577.99120	0.89214
575.93429	0.89135
573.87738	0.88945
571.82047	0.88762
569.76357	0.88669
567.70666	0.88583
565.64975	0.88481
563.59284	0.88421
561.53593	0.88358
559.47903	0.88272
557.42212	0.88219
555.36521	0.88261
553.30830	0.88371
551.25139	0.88462
549.19448	0.88555
547.13758	0.88664
545.08067	0.88706
543.02376	0.88641
540.96685	0.88556
538.90994	0.88522
536.85304	0.88527
534.79613	0.88474
532.73922	0.88392
530.68231	0.88380
528.62540	0.88340
526.56849	0.88210
524.51159	0.88123
522.45468	0.88134
520.39777	0.88117
518.34086	0.88076
516.28395	0.88173
514.22705	0.88317
512.17014	0.88254
510.11323	0.88093
508.05632	0.88018
505.99941	0.87883
503.94250	0.87676
501.88560	0.87592
499.82869	0.87617
497.77178	0.87571
495.71487	0.87496
493.65796	0.87541
491.60106	0.87612
489.54415	0.87504
487.48724	0.87290
485.43033	0.87170
483.37342	0.87149
481.31651	0.87130
479.25961	0.87016
477.20270	0.86823
475.14579	0.86731
473.08888	0.86814
471.03197	0.86794
468.97507	0.86649
466.91816	0.86739
464.86125	0.86888
462.80434	0.86770
460.74743	0.86641
458.69052	0.86719
456.63362	0.86904
454.57671	0.86933
452.51980	0.86714
450.46289	0.86378
448.40598	0.86080
446.34908	0.86098
444.29217	0.86176
442.23526	0.86056
440.17835	0.86326
438.12144	0.86797
436.06453	0.86667
434.00763	0.85969
431.95072	0.85507
429.89381	0.85740
427.83690	0.86157
425.77999	0.86281
423.72309	0.86468
421.66618	0.86940
419.60927	0.87233
417.55236	0.86980
415.49545	0.86928
413.43854	0.87046
411.38164	0.86876
409.32473	0.86902
407.26782	0.87111
405.21091	0.86938
403.15400	0.86744
401.09710	0.86654
399.04019	0.86287
