3996.57260	0.98962
3994.51569	0.98903
3992.45878	0.98907
3990.40188	0.98946
3988.34497	0.98990
3986.28806	0.99033
3984.23115	0.99028
3982.17424	0.99006
3980.11733	0.98990
3978.06043	0.98919
3976.00352	0.98849
3973.94661	0.98861
3971.88970	0.98909
3969.83279	0.98902
3967.77589	0.98861
3965.71898	0.98907
3963.66207	0.99022
3961.60516	0.99047
3959.54825	0.98995
3957.49134	0.98999
3955.43444	0.99019
3953.37753	0.98987
3951.32062	0.98959
3949.26371	0.98949
3947.20680	0.98936
3945.14990	0.98930
3943.09299	0.98933
3941.03608	0.98942
3938.97917	0.98948
3936.92226	0.98941
3934.86535	0.98911
3932.80845	0.98850
3930.75154	0.98837
3928.69463	0.98937
3926.63772	0.99044
3924.58081	0.99038
3922.52391	0.98967
3920.46700	0.98932
3918.41009	0.98906
3916.35318	0.98864
3914.29627	0.98828
3912.23936	0.98809
3910.18246	0.98844
3908.12555	0.98911
3906.06864	0.98925
3904.01173	0.98932
3901.95482	0.99005
3899.89792	0.99040
3897.84101	0.99018
3895.78410	0.98990
3893.72719	0.98939
3891.67028	0.98879
3889.61337	0.98835
3887.55647	0.98802
3885.49956	0.98814
3883.44265	0.98880
3881.38574	0.98919
3879.32883	0.98927
3877.27193	0.98950
3875.21502	0.98968
3873.15811	0.98939
3871.10120	0.98884
3869.04429	0.98890
3866.98738	0.98919
3864.93048	0.98885
3862.87357	0.98833
3860.81666	0.98809
3858.75975	0.98815
3856.70284	0.98852
3854.64594	0.98850
3852.58903	0.98854
3850.53212	0.98956
3848.47521	0.99004
3846.41830	0.99018
3844.36139	0.99068
3842.30449	0.99083
3840.24758	0.99019
3838.19067	0.98976
3836.13376	0.98985
3834.07685	0.98987
3832.01995	0.98991
3829.96304	0.98972
3827.90613	0.98922
3825.84922	0.98894
3823.79231	0.98919
3821.73540	0.98975
3819.67850	0.98988
3817.62159	0.98960
3815.56468	0.98950
3813.50777	0.98968
3811.45086	0.99001
3809.39396	0.98996
3807.33705	0.98928
3805.28014	0.98843
3803.22323	0.98827
3801.16632	0.98913
3799.10941	0.98970
3797.05251	0.98924
3794.99560	0.98887
3792.93869	0.98931
3790.88178	0.98974
3788.82487	0.98963
3786.76796	0.98941
3784.71106	0.98906
3782.65415	0.98883
3780.59724	0.98893
3778.54033	0.98909
3776.48342	0.98951
3774.42652	0.98981
3772.36961	0.98992
3770.31270	0.99046
3768.25579	0.99079
3766.19888	0.99009
3764.14197	0.98921
3762.08507	0.98865
3760.02816	0.98848
3757.97125	0.98896
3755.91434	0.98945
3753.85743	0.98925
3751.80053	0.98850
3749.74362	0.98840
3747.68671	0.98939
3745.62980	0.99059
3743.57289	0.99100
3741.51598	0.99064
3739.45908	0.99080
3737.40217	0.99110
3735.34526	0.99086
3733.28835	0.99045
3731.23144	0.98994
3729.17454	0.99008
3727.11763	0.99075
3725.06072	0.99073
3723.00381	0.99033
3720.94690	0.99018
3718.88999	0.98996
3716.83309	0.98982
3714.77618	0.98988
3712.71927	0.98984
3710.66236	0.98970
3708.60545	0.98975
3706.54855	0.99006
3704.49164	0.99034
3702.43473	0.99020
3700.37782	0.99003
3698.32091	0.99059
3696.26400	0.99119
3694.20710	0.99076
3692.15019	0.98947
3690.09328	0.98859
3688.03637	0.98967
3685.97946	0.99113
3683.92256	0.99132
3681.86565	0.99072
3679.80874	0.99043
3677.75183	0.99117
3675.69492	0.99145
3673.63801	0.98989
3671.58111	0.98890
3669.52420	0.98941
3667.46729	0.99040
3665.41038	0.99074
3663.35347	0.99010
3661.29657	0.98910
3659.23966	0.98880
3657.18275	0.98929
3655.12584	0.99017
3653.06893	0.99053
3651.01202	0.99019
3648.95512	0.99042
3646.89821	0.99063
3644.84130	0.98980
3642.78439	0.98899
3640.72748	0.98892
3638.67058	0.98942
3636.61367	0.98952
3634.55676	0.98939
3632.49985	0.98974
3630.44294	0.99023
3628.38603	0.99022
3626.32913	0.98979
3624.27222	0.98983
3622.21531	0.98982
3620.15840	0.98859
3618.10149	0.98750
3616.04459	0.98820
3613.98768	0.98891
3611.93077	0.98861
3609.87386	0.98801
3607.81695	0.98735
3605.76004	0.98690
3603.70314	0.98656
3601.64623	0.98603
3599.58932	0.98558
3597.53241	0.98536
3595.47550	0.98534
3593.41860	0.98532
3591.36169	0.98514
3589.30478	0.98518
3587.24787	0.98526
3585.19096	0.98474
3583.13405	0.98428
3581.07715	0.98441
3579.02024	0.98440
3576.96333	0.98379
3574.90642	0.98293
3572.84951	0.98217
3570.79261	0.98177
3568.73570	0.98172
3566.67879	0.98196
3564.62188	0.98195
3562.56497	0.98159
3560.50806	0.98136
3558.45116	0.98107
3556.39425	0.98032
3554.33734	0.97948
3552.28043	0.97923
3550.22352	0.97919
3548.16662	0.97827
3546.10971	0.97691
3544.05280	0.97632
3541.99589	0.97613
3539.93898	0.97578
3537.88207	0.97532
3535.82517	0.97461
3533.76826	0.97418
3531.71135	0.97459
3529.65444	0.97489
3527.59753	0.97431
3525.54063	0.97323
3523.48372	0.97220
3521.42681	0.97144
3519.36990	0.97095
3517.31299	0.97103
3515.25608	0.97128
3513.19918	0.97103
3511.14227	0.97032
3509.08536	0.96951
3507.02845	0.96913
3504.97154	0.96856
3502.91464	0.96739
3500.85773	0.96662
3498.80082	0.96634
3496.74391	0.96587
3494.68700	0.96531
3492.63009	0.96515
3490.57319	0.96497
3488.51628	0.96435
3486.45937	0.96342
3484.40246	0.96284
3482.34555	0.96311
3480.28865	0.96343
3478.23174	0.96307
3476.17483	0.96211
3474.11792	0.96085
3472.06101	0.96010
3470.00410	0.96031
3467.94720	0.96079
3465.89029	0.96085
3463.83338	0.96072
3461.77647	0.96052
3459.71956	0.95969
3457.66266	0.95870
3455.60575	0.95866
3453.54884	0.95915
3451.49193	0.95923
3449.43502	0.95904
3447.37811	0.95879
3445.32121	0.95792
3443.26430	0.95672
3441.20739	0.95614
3439.15048	0.95615
3437.09357	0.95610
3435.03667	0.95564
3432.97976	0.95527
3430.92285	0.95532
3428.86594	0.95536
3426.80903	0.95493
3424.75212	0.95457
3422.69522	0.95479
3420.63831	0.95484
3418.58140	0.95453
3416.52449	0.95453
3414.46758	0.95449
3412.41068	0.95425
3410.35377	0.95442
3408.29686	0.95462
3406.23995	0.95423
3404.18304	0.95347
3402.12613	0.95280
3400.06923	0.95260
3398.01232	0.95275
3395.95541	0.95297
3393.89850	0.95297
3391.84159	0.95281
3389.78469	0.95280
3387.72778	0.95317
3385.67087	0.95368
3383.61396	0.95382
3381.55705	0.95349
3379.50014	0.95290
3377.44324	0.95267
3375.38633	0.95317
3373.32942	0.95391
3371.27251	0.95431
3369.21560	0.95372
3367.15870	0.95258
3365.10179	0.95239
3363.04488	0.95290
3360.98797	0.95308
3358.93106	0.95307
3356.87415	0.95309
3354.81725	0.95293
3352.76034	0.95278
3350.70343	0.95291
3348.64652	0.95343
3346.58961	0.95422
3344.53271	0.95446
3342.47580	0.95427
3340.41889	0.95428
3338.36198	0.95423
3336.30507	0.95417
3334.24816	0.95426
3332.19126	0.95446
3330.13435	0.95486
3328.07744	0.95538
3326.02053	0.95545
3323.96362	0.95500
3321.90672	0.95464
3319.84981	0.95454
3317.79290	0.95460
3315.73599	0.95496
3313.67908	0.95542
3311.62217	0.95571
3309.56527	0.95598
3307.50836	0.95613
3305.45145	0.95595
3303.39454	0.95594
3301.33763	0.95628
3299.28073	0.95636
3297.22382	0.95560
3295.16691	0.95472
3293.11000	0.95514
3291.05309	0.95619
3288.99618	0.95641
3286.93928	0.95642
3284.88237	0.95698
3282.82546	0.95783
3280.76855	0.95824
3278.71164	0.95808
3276.65474	0.95779
3274.59783	0.95759
3272.54092	0.95780
3270.48401	0.95813
3268.42710	0.95813
3266.37019	0.95823
3264.31329	0.95865
3262.25638	0.95921
3260.19947	0.95972
3258.14256	0.96006
3256.08565	0.96028
3254.02875	0.96035
3251.97184	0.96042
3249.91493	0.96069
3247.85802	0.96091
3245.80111	0.96102
3243.74420	0.96131
3241.68730	0.96158
3239.63039	0.96153
3237.57348	0.96142
3235.51657	0.96161
3233.45966	0.96181
3231.40276	0.96186
3229.34585	0.96201
3227.28894	0.96237
3225.23203	0.96308
3223.17512	0.96369
3221.11821	0.96378
3219.06131	0.96395
3217.00440	0.96464
3214.94749	0.96541
3212.89058	0.96571
3210.83367	0.96547
3208.77677	0.96537
3206.71986	0.96602
3204.66295	0.96670
3202.60604	0.96664
3200.54913	0.96624
3198.49222	0.96598
3196.43532	0.96609
3194.37841	0.96664
3192.32150	0.96712
3190.26459	0.96739
3188.20768	0.96780
3186.15078	0.96825
3184.09387	0.96842
3182.03696	0.96836
3179.98005	0.96854
3177.92314	0.96915
3175.86623	0.96958
3173.80933	0.96950
3171.75242	0.96938
3169.69551	0.96952
3167.63860	0.96990
3165.58169	0.97035
3163.52479	0.97059
3161.46788	0.97087
3159.41097	0.97124
3157.35406	0.97152
3155.29715	0.97175
3153.24024	0.97202
3151.18334	0.97227
3149.12643	0.97232
3147.06952	0.97199
3145.01261	0.97166
3142.95570	0.97191
3140.89880	0.97252
3138.84189	0.97300
3136.78498	0.97325
3134.72807	0.97332
3132.67116	0.97321
3130.61425	0.97293
3128.55735	0.97268
3126.50044	0.97296
3124.44353	0.97368
3122.38662	0.97387
3120.32971	0.97349
3118.27281	0.97348
3116.21590	0.97388
3114.15899	0.97407
3112.10208	0.97397
3110.04517	0.97413
3107.98826	0.97471
3105.93136	0.97559
3103.87445	0.97660
3101.81754	0.97704
3099.76063	0.97679
3097.70372	0.97663
3095.64682	0.97673
3093.58991	0.97675
3091.53300	0.97663
3089.47609	0.97664
3087.41918	0.97683
3085.36227	0.97690
3083.30537	0.97703
3081.24846	0.97732
3079.19155	0.97761
3077.13464	0.97792
3075.07773	0.97815
3073.02083	0.97793
3070.96392	0.97731
3068.90701	0.97672
3066.85010	0.97665
3064.79319	0.97742
3062.73628	0.97841
3060.67938	0.97905
3058.62247	0.97945
3056.56556	0.97962
3054.50865	0.97930
3052.45174	0.97846
3050.39484	0.97804
3048.33793	0.97850
3046.28102	0.97886
3044.22411	0.97876
3042.16720	0.97880
3040.11029	0.97908
3038.05339	0.97934
3035.99648	0.97967
3033.93957	0.97992
3031.88266	0.97961
3029.82575	0.97928
3027.76885	0.97966
3025.71194	0.98008
3023.65503	0.98004
3021.59812	0.97982
3019.54121	0.97957
3017.48430	0.97970
3015.42740	0.98036
3013.37049	0.98103
3011.31358	0.98116
3009.25667	0.98086
3007.19976	0.98080
3005.14286	0.98080
3003.08595	0.98032
3001.02904	0.97977
2998.97213	0.97965
2996.91522	0.97991
2994.85831	0.98012
2992.80141	0.98013
2990.74450	0.98025
2988.68759	0.98040
2986.63068	0.98041
2984.57377	0.98009
2982.51687	0.97934
2980.45996	0.97881
2978.40305	0.97904
2976.34614	0.97938
2974.28923	0.97923
2972.23232	0.97890
2970.17542	0.97852
2968.11851	0.97803
2966.06160	0.97766
2964.00469	0.97720
2961.94778	0.97668
2959.89088	0.97649
2957.83397	0.97648
2955.77706	0.97618
2953.72015	0.97580
2951.66324	0.97569
2949.60633	0.97549
2947.54943	0.97502
2945.49252	0.97445
2943.43561	0.97377
2941.37870	0.97288
2939.32179	0.97218
2937.26489	0.97197
2935.20798	0.97179
2933.15107	0.97131
2931.09416	0.97073
2929.03725	0.97037
2926.98034	0.97044
2924.92344	0.97037
2922.86653	0.96987
2920.80962	0.96962
2918.75271	0.96959
2916.69580	0.96952
2914.63890	0.96949
2912.58199	0.96930
2910.52508	0.96916
2908.46817	0.96936
2906.41126	0.96955
2904.35435	0.96907
2902.29745	0.96809
2900.24054	0.96767
2898.18363	0.96803
2896.12672	0.96837
2894.06981	0.96831
2892.01291	0.96799
2889.95600	0.96750
2887.89909	0.96713
2885.84218	0.96717
2883.78527	0.96730
2881.72836	0.96730
2879.67146	0.96756
2877.61455	0.96793
2875.55764	0.96808
2873.50073	0.96814
2871.44382	0.96822
2869.38692	0.96853
2867.33001	0.96884
2865.27310	0.96885
2863.21619	0.96923
2861.15928	0.97003
2859.10237	0.97061
2857.04547	0.97109
2854.98856	0.97149
2852.93165	0.97202
2850.87474	0.97279
2848.81783	0.97320
2846.76093	0.97321
2844.70402	0.97344
2842.64711	0.97391
2840.59020	0.97460
2838.53329	0.97554
2836.47638	0.97619
2834.41948	0.97641
2832.36257	0.97658
2830.30566	0.97662
2828.24875	0.97654
2826.19184	0.97634
2824.13494	0.97635
2822.07803	0.97696
2820.02112	0.97758
2817.96421	0.97778
2815.90730	0.97772
2813.85039	0.97770
2811.79349	0.97785
2809.73658	0.97800
2807.67967	0.97804
2805.62276	0.97796
2803.56585	0.97771
2801.50895	0.97734
2799.45204	0.97728
2797.39513	0.97748
2795.33822	0.97770
2793.28131	0.97821
2791.22440	0.97870
2789.16750	0.97880
2787.11059	0.97902
2785.05368	0.97952
2782.99677	0.97971
2780.93986	0.97948
2778.88296	0.97923
2776.82605	0.97911
2774.76914	0.97924
2772.71223	0.97950
2770.65532	0.97956
2768.59841	0.97958
2766.54151	0.97969
2764.48460	0.97981
2762.42769	0.97996
2760.37078	0.97998
2758.31387	0.97991
2756.25697	0.97985
2754.20006	0.97973
2752.14315	0.97967
2750.08624	0.97971
2748.02933	0.97980
2745.97242	0.97975
2743.91552	0.97952
2741.85861	0.97943
2739.80170	0.97943
2737.74479	0.97957
2735.68788	0.97994
2733.63098	0.98032
2731.57407	0.98024
2729.51716	0.97970
2727.46025	0.97952
2725.40334	0.97993
2723.34643	0.98020
2721.28953	0.98007
2719.23262	0.97997
2717.17571	0.98010
2715.11880	0.98029
2713.06189	0.98040
2711.00499	0.98054
2708.94808	0.98056
2706.89117	0.98051
2704.83426	0.98059
2702.77735	0.98044
2700.72044	0.98017
2698.66354	0.98029
2696.60663	0.98055
2694.54972	0.98053
2692.49281	0.98040
2690.43590	0.98054
2688.37900	0.98086
2686.32209	0.98120
2684.26518	0.98156
2682.20827	0.98165
2680.15136	0.98134
2678.09445	0.98091
2676.03755	0.98088
2673.98064	0.98127
2671.92373	0.98133
2669.86682	0.98119
2667.80991	0.98120
2665.75301	0.98127
2663.69610	0.98127
2661.63919	0.98103
2659.58228	0.98088
2657.52537	0.98088
2655.46846	0.98075
2653.41156	0.98074
2651.35465	0.98083
2649.29774	0.98089
2647.24083	0.98104
2645.18392	0.98134
2643.12702	0.98165
2641.07011	0.98141
2639.01320	0.98077
2636.95629	0.98048
2634.89938	0.98045
2632.84247	0.98068
2630.78557	0.98108
2628.72866	0.98108
2626.67175	0.98066
2624.61484	0.98058
2622.55793	0.98093
2620.50103	0.98089
2618.44412	0.98076
2616.38721	0.98136
2614.33030	0.98218
2612.27339	0.98245
2610.21648	0.98223
2608.15958	0.98189
2606.10267	0.98144
2604.04576	0.98124
2601.98885	0.98162
2599.93194	0.98201
2597.87504	0.98219
2595.81813	0.98238
2593.76122	0.98253
2591.70431	0.98230
2589.64740	0.98158
2587.59049	0.98110
2585.53359	0.98147
2583.47668	0.98192
2581.41977	0.98191
2579.36286	0.98220
2577.30595	0.98262
2575.24905	0.98222
2573.19214	0.98184
2571.13523	0.98211
2569.07832	0.98266
2567.02141	0.98330
2564.96450	0.98355
2562.90760	0.98345
2560.85069	0.98322
2558.79378	0.98264
2556.73687	0.98225
2554.67996	0.98285
2552.62306	0.98374
2550.56615	0.98351
2548.50924	0.98264
2546.45233	0.98235
2544.39542	0.98261
2542.33851	0.98281
2540.28161	0.98255
2538.22470	0.98202
2536.16779	0.98194
2534.11088	0.98244
2532.05397	0.98279
2529.99707	0.98268
2527.94016	0.98256
2525.88325	0.98246
2523.82634	0.98245
2521.76943	0.98264
2519.71252	0.98291
2517.65562	0.98345
2515.59871	0.98374
2513.54180	0.98319
2511.48489	0.98268
2509.42798	0.98272
2507.37108	0.98281
2505.31417	0.98298
2503.25726	0.98322
2501.20035	0.98327
2499.14344	0.98322
2497.08653	0.98338
2495.02963	0.98378
2492.97272	0.98369
2490.91581	0.98304
2488.85890	0.98301
2486.80199	0.98365
2484.74509	0.98384
2482.68818	0.98355
2480.63127	0.98343
2478.57436	0.98366
2476.51745	0.98403
2474.46054	0.98424
2472.40364	0.98404
2470.34673	0.98338
2468.28982	0.98315
2466.23291	0.98375
2464.17600	0.98403
2462.11910	0.98342
2460.06219	0.98279
2458.00528	0.98271
2455.94837	0.98271
2453.89146	0.98278
2451.83455	0.98321
2449.77765	0.98370
2447.72074	0.98389
2445.66383	0.98349
2443.60692	0.98305
2441.55001	0.98330
2439.49311	0.98363
2437.43620	0.98372
2435.37929	0.98389
2433.32238	0.98384
2431.26547	0.98330
2429.20856	0.98271
2427.15166	0.98268
2425.09475	0.98332
2423.03784	0.98406
2420.98093	0.98438
2418.92402	0.98466
2416.86712	0.98474
2414.81021	0.98407
2412.75330	0.98369
2410.69639	0.98405
2408.63948	0.98417
2406.58257	0.98395
2404.52567	0.98399
2402.46876	0.98453
2400.41185	0.98493
2398.35494	0.98467
2396.29803	0.98439
2394.24113	0.98453
2392.18422	0.98460
2390.12731	0.98427
2388.07040	0.98382
2386.01349	0.98354
2383.95658	0.98354
2381.89968	0.98379
2379.84277	0.98396
2377.78586	0.98373
2375.72895	0.98349
2373.67204	0.98358
2371.61514	0.98361
2369.55823	0.98382
2367.50132	0.98441
2365.44441	0.98471
2363.38750	0.98482
2361.33059	0.98478
2359.27369	0.98397
2357.21678	0.98319
2355.15987	0.98339
2353.10296	0.98365
2351.04605	0.98360
2348.98915	0.98308
2346.93224	0.98223
2344.87533	0.98237
2342.81842	0.98336
2340.76151	0.98352
2338.70460	0.98337
2336.64770	0.98355
2334.59079	0.98340
2332.53388	0.98326
2330.47697	0.98330
2328.42006	0.98263
2326.36316	0.98144
2324.30625	0.98082
2322.24934	0.98112
2320.19243	0.98154
2318.13552	0.98182
2316.07861	0.98264
2314.02171	0.98373
2311.96480	0.98399
2309.90789	0.98359
2307.85098	0.98339
2305.79407	0.98330
2303.73717	0.98307
2301.68026	0.98330
2299.62335	0.98408
2297.56644	0.98445
2295.50953	0.98404
2293.45262	0.98355
2291.39572	0.98367
2289.33881	0.98392
2287.28190	0.98366
2285.22499	0.98301
2283.16808	0.98217
2281.11117	0.98171
2279.05427	0.98214
2276.99736	0.98313
2274.94045	0.98392
2272.88354	0.98388
2270.82663	0.98303
2268.76973	0.98254
2266.71282	0.98316
2264.65591	0.98419
2262.59900	0.98507
2260.54209	0.98560
2258.48518	0.98536
2256.42828	0.98485
2254.37137	0.98513
2252.31446	0.98576
2250.25755	0.98575
2248.20064	0.98551
2246.14374	0.98578
2244.08683	0.98603
2242.02992	0.98591
2239.97301	0.98602
2237.91610	0.98592
2235.85919	0.98508
2233.80229	0.98416
2231.74538	0.98345
2229.68847	0.98302
2227.63156	0.98292
2225.57465	0.98284
2223.51775	0.98331
2221.46084	0.98463
2219.40393	0.98543
2217.34702	0.98516
2215.29011	0.98553
2213.23320	0.98674
2211.17630	0.98728
2209.11939	0.98693
2207.06248	0.98532
2205.00557	0.98347
2202.94866	0.98324
2200.89176	0.98444
2198.83485	0.98631
2196.77794	0.98680
2194.72103	0.98468
2192.66412	0.98305
2190.60721	0.98374
2188.55031	0.98461
2186.49340	0.98513
2184.43649	0.98564
2182.37958	0.98572
2180.32267	0.98578
2178.26577	0.98491
2176.20886	0.98333
2174.15195	0.98336
2172.09504	0.98420
2170.03813	0.98388
2167.98122	0.98392
2165.92432	0.98605
2163.86741	0.98794
2161.81050	0.98778
2159.75359	0.98734
2157.69668	0.98765
2155.63978	0.98770
2153.58287	0.98687
2151.52596	0.98699
2149.46905	0.98811
2147.41214	0.98763
2145.35523	0.98684
2143.29833	0.98738
2141.24142	0.98726
2139.18451	0.98582
2137.12760	0.98441
2135.07069	0.98408
2133.01379	0.98473
2130.95688	0.98497
2128.89997	0.98433
2126.84306	0.98411
2124.78615	0.98472
2122.72924	0.98526
2120.67234	0.98587
2118.61543	0.98646
2116.55852	0.98585
2114.50161	0.98434
2112.44470	0.98325
2110.38780	0.98334
2108.33089	0.98431
2106.27398	0.98510
2104.21707	0.98519
2102.16016	0.98460
2100.10325	0.98416
2098.04635	0.98510
2095.98944	0.98669
2093.93253	0.98681
2091.87562	0.98630
2089.81871	0.98645
2087.76181	0.98583
2085.70490	0.98466
2083.64799	0.98449
2081.59108	0.98506
2079.53417	0.98640
2077.47726	0.98793
2075.42036	0.98769
2073.36345	0.98658
2071.30654	0.98627
2069.24963	0.98633
2067.19272	0.98624
2065.13582	0.98600
2063.07891	0.98603
2061.02200	0.98632
2058.96509	0.98641
2056.90818	0.98636
2054.85127	0.98598
2052.79437	0.98518
2050.73746	0.98457
2048.68055	0.98433
2046.62364	0.98428
2044.56673	0.98419
2042.50983	0.98382
2040.45292	0.98417
2038.39601	0.98514
2036.33910	0.98481
2034.28219	0.98430
2032.22528	0.98571
2030.16838	0.98684
2028.11147	0.98627
2026.05456	0.98681
2023.99765	0.98880
2021.94074	0.98978
2019.88384	0.99028
2017.82693	0.99074
2015.77002	0.98909
2013.71311	0.98589
2011.65620	0.98457
2009.59929	0.98563
2007.54239	0.98679
2005.48548	0.98770
2003.42857	0.98904
2001.37166	0.98895
1999.31475	0.98658
1997.25785	0.98462
1995.20094	0.98436
1993.14403	0.98480
1991.08712	0.98543
1989.03021	0.98543
1986.97330	0.98508
1984.91640	0.98567
1982.85949	0.98614
1980.80258	0.98513
1978.74567	0.98434
1976.68876	0.98531
1974.63186	0.98670
1972.57495	0.98767
1970.51804	0.98877
1968.46113	0.98986
1966.40422	0.98936
1964.34731	0.98783
1962.29041	0.98783
1960.23350	0.98917
1958.17659	0.99029
1956.11968	0.99002
1954.06277	0.98849
1952.00587	0.98767
1949.94896	0.98808
1947.89205	0.98848
1945.83514	0.98829
1943.77823	0.98803
1941.72132	0.98743
1939.66442	0.98604
1937.60751	0.98503
1935.55060	0.98523
1933.49369	0.98598
1931.43678	0.98646
1929.37988	0.98665
1927.32297	0.98706
1925.26606	0.98764
1923.20915	0.98796
1921.15224	0.98833
1919.09533	0.98893
1917.03843	0.98858
1914.98152	0.98709
1912.92461	0.98624
1910.86770	0.98638
1908.81079	0.98651
1906.75389	0.98626
1904.69698	0.98575
1902.64007	0.98565
1900.58316	0.98589
1898.52625	0.98608
1896.46934	0.98644
1894.41244	0.98634
1892.35553	0.98574
1890.29862	0.98599
1888.24171	0.98702
1886.18480	0.98725
1884.12790	0.98670
1882.07099	0.98631
1880.01408	0.98615
1877.95717	0.98593
1875.90026	0.98565
1873.84335	0.98546
1871.78645	0.98542
1869.72954	0.98568
1867.67263	0.98588
1865.61572	0.98553
1863.55881	0.98513
1861.50191	0.98481
1859.44500	0.98478
1857.38809	0.98552
1855.33118	0.98675
1853.27427	0.98773
1851.21736	0.98796
1849.16046	0.98742
1847.10355	0.98652
1845.04664	0.98584
1842.98973	0.98558
1840.93282	0.98560
1838.87592	0.98596
1836.81901	0.98656
1834.76210	0.98681
1832.70519	0.98656
1830.64828	0.98633
1828.59137	0.98649
1826.53447	0.98679
1824.47756	0.98683
1822.42065	0.98688
1820.36374	0.98727
1818.30683	0.98742
1816.24993	0.98711
1814.19302	0.98680
1812.13611	0.98671
1810.07920	0.98690
1808.02229	0.98702
1805.96538	0.98683
1803.90848	0.98668
1801.85157	0.98659
1799.79466	0.98634
1797.73775	0.98617
1795.68084	0.98603
1793.62394	0.98585
1791.56703	0.98597
1789.51012	0.98640
1787.45321	0.98668
1785.39630	0.98670
1783.33939	0.98651
1781.28249	0.98608
1779.22558	0.98585
1777.16867	0.98599
1775.11176	0.98586
1773.05485	0.98565
1770.99795	0.98575
1768.94104	0.98539
1766.88413	0.98433
1764.82722	0.98326
1762.77031	0.98221
1760.71340	0.98053
1758.65650	0.97828
1756.59959	0.97575
1754.54268	0.97340
1752.48577	0.97103
1750.42886	0.96810
1748.37196	0.96495
1746.31505	0.96198
1744.25814	0.95953
1742.20123	0.95755
1740.14432	0.95541
1738.08741	0.95332
1736.03051	0.95180
1733.97360	0.95013
1731.91669	0.94864
1729.85978	0.94795
1727.80287	0.94759
1725.74597	0.94748
1723.68906	0.94774
1721.63215	0.94829
1719.57524	0.94911
1717.51833	0.95019
1715.46142	0.95147
1713.40452	0.95323
1711.34761	0.95535
1709.29070	0.95748
1707.23379	0.95949
1705.17688	0.96145
1703.11998	0.96334
1701.06307	0.96536
1699.00616	0.96748
1696.94925	0.96936
1694.89234	0.97107
1692.83543	0.97215
1690.77853	0.97265
1688.72162	0.97310
1686.66471	0.97411
1684.60780	0.97554
1682.55089	0.97621
1680.49399	0.97639
1678.43708	0.97685
1676.38017	0.97726
1674.32326	0.97716
1672.26635	0.97681
1670.20944	0.97663
1668.15254	0.97667
1666.09563	0.97692
1664.03872	0.97716
1661.98181	0.97714
1659.92490	0.97696
1657.86800	0.97676
1655.81109	0.97661
1653.75418	0.97632
1651.69727	0.97585
1649.64036	0.97582
1647.58345	0.97592
1645.52655	0.97583
1643.46964	0.97589
1641.41273	0.97612
1639.35582	0.97631
1637.29891	0.97651
1635.24201	0.97637
1633.18510	0.97605
1631.12819	0.97612
1629.07128	0.97659
1627.01437	0.97718
1624.95746	0.97735
1622.90056	0.97713
1620.84365	0.97701
1618.78674	0.97705
1616.72983	0.97733
1614.67292	0.97780
1612.61602	0.97818
1610.55911	0.97847
1608.50220	0.97861
1606.44529	0.97864
1604.38838	0.97871
1602.33147	0.97869
1600.27457	0.97857
1598.21766	0.97853
1596.16075	0.97865
1594.10384	0.97871
1592.04693	0.97854
1589.99003	0.97854
1587.93312	0.97904
1585.87621	0.97945
1583.81930	0.97935
1581.76239	0.97918
1579.70548	0.97940
1577.64858	0.97972
1575.59167	0.97967
1573.53476	0.97958
1571.47785	0.97970
1569.42094	0.97981
1567.36404	0.97988
1565.30713	0.98001
1563.25022	0.98024
1561.19331	0.98051
1559.13640	0.98057
1557.07949	0.98039
1555.02259	0.98021
1552.96568	0.97999
1550.90877	0.98003
1548.85186	0.98032
1546.79495	0.98050
1544.73805	0.98059
1542.68114	0.98068
1540.62423	0.98094
1538.56732	0.98170
1536.51041	0.98212
1534.45350	0.98221
1532.39660	0.98243
1530.33969	0.98231
1528.28278	0.98170
1526.22587	0.98125
1524.16896	0.98125
1522.11206	0.98131
1520.05515	0.98139
1517.99824	0.98159
1515.94133	0.98166
1513.88442	0.98146
1511.82751	0.98112
1509.77061	0.98089
1507.71370	0.98103
1505.65679	0.98144
1503.59988	0.98158
1501.54297	0.98171
1499.48607	0.98195
1497.42916	0.98172
1495.37225	0.98116
1493.31534	0.98111
1491.25843	0.98113
1489.20152	0.98076
1487.14462	0.98029
1485.08771	0.97975
1483.03080	0.97916
1480.97389	0.97881
1478.91698	0.97867
1476.86008	0.97811
1474.80317	0.97688
1472.74626	0.97543
1470.68935	0.97451
1468.63244	0.97407
1466.57553	0.97343
1464.51863	0.97238
1462.46172	0.97146
1460.40481	0.97086
1458.34790	0.97013
1456.29099	0.96885
1454.23409	0.96805
1452.17718	0.96772
1450.12027	0.96703
1448.06336	0.96602
1446.00645	0.96508
1443.94954	0.96430
1441.89264	0.96381
1439.83573	0.96340
1437.77882	0.96264
1435.72191	0.96171
1433.66500	0.96113
1431.60810	0.96057
1429.55119	0.96003
1427.49428	0.96003
1425.43737	0.96018
1423.38046	0.95996
1421.32355	0.95972
1419.26665	0.95968
1417.20974	0.95958
1415.15283	0.95945
1413.09592	0.95962
1411.03901	0.95992
1408.98211	0.96004
1406.92520	0.96001
1404.86829	0.95991
1402.81138	0.95987
1400.75447	0.95977
1398.69756	0.95958
1396.64066	0.95946
1394.58375	0.95914
1392.52684	0.95838
1390.46993	0.95727
1388.41302	0.95599
1386.35612	0.95483
1384.29921	0.95372
1382.24230	0.95216
1380.18539	0.95011
1378.12848	0.94801
1376.07157	0.94604
1374.01467	0.94423
1371.95776	0.94314
1369.90085	0.94294
1367.84394	0.94312
1365.78703	0.94372
1363.73013	0.94494
1361.67322	0.94647
1359.61631	0.94802
1357.55940	0.94942
1355.50249	0.95052
1353.44558	0.95156
1351.38868	0.95277
1349.33177	0.95403
1347.27486	0.95487
1345.21795	0.95513
1343.16104	0.95518
1341.10414	0.95513
1339.04723	0.95502
1336.99032	0.95513
1334.93341	0.95553
1332.87650	0.95586
1330.81959	0.95581
1328.76269	0.95570
1326.70578	0.95595
1324.64887	0.95618
1322.59196	0.95627
1320.53505	0.95628
1318.47815	0.95603
1316.42124	0.95585
1314.36433	0.95607
1312.30742	0.95641
1310.25051	0.95661
1308.19360	0.95678
1306.13670	0.95701
1304.07979	0.95711
1302.02288	0.95711
1299.96597	0.95733
1297.90906	0.95772
1295.85216	0.95803
1293.79525	0.95814
1291.73834	0.95802
1289.68143	0.95782
1287.62452	0.95763
1285.56761	0.95701
1283.51071	0.95599
1281.45380	0.95518
1279.39689	0.95458
1277.33998	0.95368
1275.28307	0.95229
1273.22617	0.95071
1271.16926	0.94920
1269.11235	0.94761
1267.05544	0.94589
1264.99853	0.94411
1262.94162	0.94215
1260.88472	0.94007
1258.82781	0.93795
1256.77090	0.93584
1254.71399	0.93392
1252.65708	0.93231
1250.60018	0.93066
1248.54327	0.92866
1246.48636	0.92681
1244.42945	0.92545
1242.37254	0.92440
1240.31563	0.92344
1238.25873	0.92253
1236.20182	0.92198
1234.14491	0.92194
1232.08800	0.92224
1230.03109	0.92277
1227.97419	0.92369
1225.91728	0.92521
1223.86037	0.92741
1221.80346	0.93026
1219.74655	0.93342
1217.68964	0.93650
1215.63274	0.93950
1213.57583	0.94252
1211.51892	0.94523
1209.46201	0.94734
1207.40510	0.94890
1205.34820	0.94984
1203.29129	0.95027
1201.23438	0.95066
1199.17747	0.95143
1197.12056	0.95280
1195.06365	0.95450
1193.00675	0.95605
1190.94984	0.95740
1188.89293	0.95842
1186.83602	0.95903
1184.77911	0.95939
1182.72221	0.95936
1180.66530	0.95850
1178.60839	0.95690
1176.55148	0.95505
1174.49457	0.95282
1172.43766	0.95020
1170.38076	0.94737
1168.32385	0.94428
1166.26694	0.94120
1164.21003	0.93818
1162.15312	0.93522
1160.09622	0.93290
1158.03931	0.93162
1155.98240	0.93137
1153.92549	0.93188
1151.86858	0.93271
1149.81167	0.93355
1147.75477	0.93442
1145.69786	0.93537
1143.64095	0.93604
1141.58404	0.93602
1139.52713	0.93532
1137.47023	0.93398
1135.41332	0.93210
1133.35641	0.93003
1131.29950	0.92814
1129.24259	0.92627
1127.18568	0.92405
1125.12878	0.92146
1123.07187	0.91866
1121.01496	0.91595
1118.95805	0.91356
1116.90114	0.91150
1114.84424	0.90975
1112.78733	0.90815
1110.73042	0.90678
1108.67351	0.90552
1106.61660	0.90393
1104.55969	0.90201
1102.50279	0.90016
1100.44588	0.89848
1098.38897	0.89643
1096.33206	0.89403
1094.27515	0.89185
1092.21825	0.88996
1090.16134	0.88804
1088.10443	0.88600
1086.04752	0.88386
1083.99061	0.88181
1081.93370	0.87974
1079.87680	0.87697
1077.81989	0.87373
1075.76298	0.87042
1073.70607	0.86698
1071.64916	0.86385
1069.59226	0.86125
1067.53535	0.85883
1065.47844	0.85652
1063.42153	0.85434
1061.36462	0.85245
1059.30771	0.85089
1057.25081	0.84919
1055.19390	0.84742
1053.13699	0.84601
1051.08008	0.84465
1049.02317	0.84323
1046.96627	0.84193
1044.90936	0.84062
1042.85245	0.83901
1040.79554	0.83710
1038.73863	0.83547
1036.68172	0.83410
1034.62482	0.83235
1032.56791	0.83041
1030.51100	0.82852
1028.45409	0.82650
1026.39718	0.82460
1024.34028	0.82324
1022.28337	0.82233
1020.22646	0.82161
1018.16955	0.82123
1016.11264	0.82164
1014.05573	0.82278
1011.99883	0.82431
1009.94192	0.82618
1007.88501	0.82809
1005.82810	0.82965
1003.77119	0.83100
1001.71429	0.83219
999.65738	0.83296
997.60047	0.83331
995.54356	0.83364
993.48665	0.83437
991.42974	0.83569
989.37284	0.83758
987.31593	0.84001
985.25902	0.84269
983.20211	0.84550
981.14520	0.84868
979.08830	0.85225
977.03139	0.85618
974.97448	0.86012
972.91757	0.86341
970.86066	0.86600
968.80375	0.86875
966.74685	0.87201
964.68994	0.87496
962.63303	0.87721
960.57612	0.87957
958.51921	0.88251
956.46231	0.88533
954.40540	0.88754
952.34849	0.88969
950.29158	0.89214
948.23467	0.89451
946.17776	0.89649
944.12086	0.89812
942.06395	0.89957
940.00704	0.90125
937.95013	0.90320
935.89322	0.90484
933.83632	0.90594
931.77941	0.90673
929.72250	0.90749
927.66559	0.90849
925.60868	0.90958
923.55177	0.91063
921.49487	0.91172
919.43796	0.91250
917.38105	0.91282
915.32414	0.91285
913.26723	0.91267
911.21033	0.91232
909.15342	0.91161
907.09651	0.91053
905.03960	0.90954
902.98269	0.90878
900.92578	0.90807
898.86888	0.90743
896.81197	0.90712
894.75506	0.90715
892.69815	0.90747
890.64124	0.90806
888.58434	0.90887
886.52743	0.91011
884.47052	0.91201
882.41361	0.91456
880.35670	0.91694
878.29979	0.91850
876.24289	0.92039
874.18598	0.92288
872.12907	0.92462
870.07216	0.92543
868.01525	0.92626
865.95835	0.92785
863.90144	0.92980
861.84453	0.93124
859.78762	0.93209
857.73071	0.93271
855.67380	0.93308
853.61690	0.93341
851.55999	0.93404
849.50308	0.93471
847.44617	0.93521
845.38926	0.93564
843.33236	0.93576
841.27545	0.93575
839.21854	0.93595
837.16163	0.93621
835.10472	0.93653
833.04781	0.93698
830.99091	0.93734
828.93400	0.93761
826.87709	0.93785
824.82018	0.93803
822.76327	0.93819
820.70637	0.93827
818.64946	0.93836
816.59255	0.93886
814.53564	0.93950
812.47873	0.93942
810.42182	0.93892
808.36492	0.93893
806.30801	0.93927
804.25110	0.93940
802.19419	0.93922
800.13728	0.93899
798.08038	0.93898
796.02347	0.93911
793.96656	0.93945
791.90965	0.94002
789.85274	0.94050
787.79583	0.94064
785.73893	0.94047
783.68202	0.94052
781.62511	0.94069
779.56820	0.94063
777.51129	0.94052
775.45439	0.94038
773.39748	0.94027
771.34057	0.94026
769.28366	0.94018
767.22675	0.94023
765.16984	0.94055
763.11294	0.94052
761.05603	0.94016
758.99912	0.93997
756.94221	0.93976
754.88530	0.93938
752.82839	0.93933
750.77149	0.93970
748.71458	0.93979
746.65767	0.93967
744.60076	0.93980
742.54385	0.93958
740.48695	0.93880
738.43004	0.93872
736.37313	0.93901
734.31622	0.93831
732.25931	0.93755
730.20240	0.93745
728.14550	0.93749
726.08859	0.93737
724.03168	0.93724
721.97477	0.93745
719.91786	0.93755
717.86096	0.93728
715.80405	0.93709
713.74714	0.93635
711.69023	0.93491
709.63332	0.93381
707.57641	0.93303
705.51951	0.93233
703.46260	0.93194
701.40569	0.93193
699.34878	0.93189
697.29187	0.93155
695.23497	0.93156
693.17806	0.93177
691.12115	0.93124
689.06424	0.93020
687.00733	0.92923
684.95042	0.92831
682.89352	0.92725
680.83661	0.92596
678.77970	0.92476
676.72279	0.92337
674.66588	0.92128
672.60898	0.91896
670.55207	0.91671
668.49516	0.91441
666.43825	0.91331
664.38134	0.91352
662.32443	0.91359
660.26753	0.91305
658.21062	0.91269
656.15371	0.91276
654.09680	0.91233
652.03989	0.91145
649.98299	0.91088
647.92608	0.91091
645.86917	0.91120
643.81226	0.91095
641.75535	0.91017
639.69844	0.90926
637.64154	0.90803
635.58463	0.90652
633.52772	0.90558
631.47081	0.90518
629.41390	0.90464
627.35700	0.90407
625.30009	0.90312
623.24318	0.90122
621.18627	0.89922
619.12936	0.89794
617.07245	0.89718
615.01555	0.89652
612.95864	0.89583
610.90173	0.89519
608.84482	0.89444
606.78791	0.89301
604.73101	0.89153
602.67410	0.89120
600.61719	0.89115
598.56028	0.89022
596.50337	0.88908
594.44646	0.88908
592.38956	0.88997
590.33265	0.89048
588.27574	0.89075
586.21883	0.89122
584.16192	0.89110
582.10502	0.89079
580.04811	0.89097
577.99120	0.89023
575.93429	0.88841
573.87738	0.88629
571.82047	0.88446
569.76357	0.88406
567.70666	0.88442
565.64975	0.88396
563.59284	0.88308
561.53593	0.88272
559.47903	0.88305
557.42212	0.88326
555.36521	0.88278
553.30830	0.88312
551.25139	0.88466
549.19448	0.88609
547.13758	0.88662
545.08067	0.88588
543.02376	0.88499
540.96685	0.88462
538.90994	0.88351
536.85304	0.88207
534.79613	0.88180
532.73922	0.88163
530.68231	0.88042
528.62540	0.87948
526.56849	0.88005
524.51159	0.88057
522.45468	0.87966
520.39777	0.87875
518.34086	0.87786
516.28395	0.87615
514.22705	0.87535
512.17014	0.87587
510.11323	0.87562
508.05632	0.87383
505.99941	0.87183
503.94250	0.87019
501.88560	0.86917
499.82869	0.86960
497.77178	0.87058
495.71487	0.87073
493.65796	0.86944
491.60106	0.86674
489.54415	0.86513
487.48724	0.86537
485.43033	0.86459
483.37342	0.86382
481.31651	0.86459
479.25961	0.86476
477.20270	0.86435
475.14579	0.86430
473.08888	0.86380
471.03197	0.86265
468.97507	0.86032
466.91816	0.85549
464.86125	0.85144
462.80434	0.85302
460.74743	0.85845
458.69052	0.86030
456.63362	0.85739
454.57671	0.85566
452.51980	0.85454
450.46289	0.85296
448.40598	0.85271
446.34908	0.85378
444.29217	0.85363
442.23526	0.85093
440.17835	0.84867
438.12144	0.84848
436.06453	0.84961
434.00763	0.85183
431.95072	0.85340
429.89381	0.85164
427.83690	0.84838
425.77999	0.84599
423.72309	0.84657
421.66618	0.85009
419.60927	0.85035
417.55236	0.84677
415.49545	0.84546
413.43854	0.84538
411.38164	0.84457
409.32473	0.84454
407.26782	0.84782
405.21091	0.85278
403.15400	0.85520
401.09710	0.85486
399.04019	0.85211
