3996.57260	0.98862
3994.51569	0.98904
3992.45878	0.98950
3990.40188	0.98954
3988.34497	0.98918
3986.28806	0.98883
3984.23115	0.98886
3982.17424	0.98873
3980.11733	0.98827
3978.06043	0.98794
3976.00352	0.98785
3973.94661	0.98830
3971.88970	0.98891
3969.83279	0.98868
3967.77589	0.98792
3965.71898	0.98809
3963.66207	0.98911
3961.60516	0.98944
3959.54825	0.98900
3957.49134	0.98890
3955.43444	0.98923
3953.37753	0.98960
3951.32062	0.99008
3949.26371	0.99023
3947.20680	0.98943
3945.14990	0.98832
3943.09299	0.98795
3941.03608	0.98848
3938.97917	0.98908
3936.92226	0.98911
3934.86535	0.98865
3932.80845	0.98810
3930.75154	0.98819
3928.69463	0.98880
3926.63772	0.98918
3924.58081	0.98931
3922.52391	0.98910
3920.46700	0.98895
3918.41009	0.98957
3916.35318	0.99028
3914.29627	0.99000
3912.23936	0.98906
3910.18246	0.98863
3908.12555	0.98882
3906.06864	0.98910
3904.01173	0.98920
3901.95482	0.98895
3899.89792	0.98890
3897.84101	0.98931
3895.78410	0.98935
3893.72719	0.98900
3891.67028	0.98880
3889.61337	0.98838
3887.55647	0.98797
3885.49956	0.98873
3883.44265	0.98986
3881.38574	0.98934
3879.32883	0.98810
3877.27193	0.98837
3875.21502	0.98967
3873.15811	0.99047
3871.10120	0.99019
3869.04429	0.98927
3866.98738	0.98841
3864.93048	0.98816
3862.87357	0.98841
3860.81666	0.98838
3858.75975	0.98834
3856.70284	0.98879
3854.64594	0.98932
3852.58903	0.98879
3850.53212	0.98856
3848.47521	0.98962
3846.41830	0.99044
3844.36139	0.99000
3842.30449	0.98872
3840.24758	0.98785
3838.19067	0.98789
3836.13376	0.98815
3834.07685	0.98836
3832.01995	0.98875
3829.96304	0.98916
3827.90613	0.98933
3825.84922	0.98909
3823.79231	0.98878
3821.73540	0.98917
3819.67850	0.98982
3817.62159	0.98989
3815.56468	0.98982
3813.50777	0.99004
3811.45086	0.99043
3809.39396	0.99090
3807.33705	0.99146
3805.28014	0.99133
3803.22323	0.99062
3801.16632	0.99022
3799.10941	0.98976
3797.05251	0.98914
3794.99560	0.98903
3792.93869	0.98930
3790.88178	0.98955
3788.82487	0.98941
3786.76796	0.98886
3784.71106	0.98861
3782.65415	0.98881
3780.59724	0.98923
3778.54033	0.98969
3776.48342	0.98980
3774.42652	0.98947
3772.36961	0.98936
3770.31270	0.99037
3768.25579	0.99154
3766.19888	0.99155
3764.14197	0.99079
3762.08507	0.99045
3760.02816	0.99080
3757.97125	0.99058
3755.91434	0.98935
3753.85743	0.98876
3751.80053	0.98942
3749.74362	0.98963
3747.68671	0.98926
3745.62980	0.98944
3743.57289	0.98928
3741.51598	0.98860
3739.45908	0.98833
3737.40217	0.98866
3735.34526	0.98961
3733.28835	0.98997
3731.23144	0.98924
3729.17454	0.98865
3727.11763	0.98888
3725.06072	0.98957
3723.00381	0.98964
3720.94690	0.98952
3718.88999	0.99005
3716.83309	0.99071
3714.77618	0.99128
3712.71927	0.99151
3710.66236	0.99112
3708.60545	0.99073
3706.54855	0.99023
3704.49164	0.98986
3702.43473	0.99012
3700.37782	0.99061
3698.32091	0.99068
3696.26400	0.99047
3694.20710	0.99075
3692.15019	0.99166
3690.09328	0.99196
3688.03637	0.99086
3685.97946	0.98967
3683.92256	0.98927
3681.86565	0.98937
3679.80874	0.98949
3677.75183	0.98990
3675.69492	0.99095
3673.63801	0.99086
3671.58111	0.98937
3669.52420	0.98868
3667.46729	0.98931
3665.41038	0.98966
3663.35347	0.98982
3661.29657	0.99039
3659.23966	0.99081
3657.18275	0.99015
3655.12584	0.98905
3653.06893	0.98874
3651.01202	0.98814
3648.95512	0.98731
3646.89821	0.98811
3644.84130	0.98872
3642.78439	0.98854
3640.72748	0.98851
3638.67058	0.98888
3636.61367	0.98943
3634.55676	0.98966
3632.49985	0.98952
3630.44294	0.98913
3628.38603	0.98808
3626.32913	0.98717
3624.27222	0.98746
3622.21531	0.98814
3620.15840	0.98776
3618.10149	0.98678
3616.04459	0.98685
3613.98768	0.98760
3611.93077	0.98827
3609.87386	0.98836
3607.81695	0.98790
3605.76004	0.98728
3603.70314	0.98631
3601.64623	0.98546
3599.58932	0.98551
3597.53241	0.98576
3595.47550	0.98553
3593.41860	0.98547
3591.36169	0.98589
3589.30478	0.98572
3587.24787	0.98457
3585.19096	0.98393
3583.13405	0.98404
3581.07715	0.98395
3579.02024	0.98365
3576.96333	0.98370
3574.90642	0.98406
3572.84951	0.98405
3570.79261	0.98382
3568.73570	0.98393
3566.67879	0.98345
3564.62188	0.98202
3562.56497	0.98129
3560.50806	0.98128
3558.45116	0.98157
3556.39425	0.98164
3554.33734	0.98088
3552.28043	0.97992
3550.22352	0.97959
3548.16662	0.97955
3546.10971	0.97924
3544.05280	0.97856
3541.99589	0.97782
3539.93898	0.97756
3537.88207	0.97739
3535.82517	0.97680
3533.76826	0.97621
3531.71135	0.97576
3529.65444	0.97548
3527.59753	0.97580
3525.54063	0.97607
3523.48372	0.97538
3521.42681	0.97463
3519.36990	0.97453
3517.31299	0.97433
3515.25608	0.97367
3513.19918	0.97291
3511.14227	0.97208
3509.08536	0.97127
3507.02845	0.97079
3504.97154	0.97058
3502.91464	0.97033
3500.85773	0.97017
3498.80082	0.96993
3496.74391	0.96915
3494.68700	0.96841
3492.63009	0.96821
3490.57319	0.96813
3488.51628	0.96784
3486.45937	0.96755
3484.40246	0.96729
3482.34555	0.96684
3480.28865	0.96646
3478.23174	0.96611
3476.17483	0.96552
3474.11792	0.96479
3472.06101	0.96436
3470.00410	0.96393
3467.94720	0.96323
3465.89029	0.96338
3463.83338	0.96427
3461.77647	0.96437
3459.71956	0.96362
3457.66266	0.96298
3455.60575	0.96289
3453.54884	0.96309
3451.49193	0.96300
3449.43502	0.96256
3447.37811	0.96231
3445.32121	0.96215
3443.26430	0.96161
3441.20739	0.96095
3439.15048	0.96051
3437.09357	0.96061
3435.03667	0.96131
3432.97976	0.96197
3430.92285	0.96208
3428.86594	0.96163
3426.80903	0.96125
3424.75212	0.96107
3422.69522	0.96054
3420.63831	0.95990
3418.58140	0.96005
3416.52449	0.96065
3414.46758	0.96088
3412.41068	0.96089
3410.35377	0.96068
3408.29686	0.96037
3406.23995	0.96032
3404.18304	0.96034
3402.12613	0.96033
3400.06923	0.96022
3398.01232	0.95991
3395.95541	0.95959
3393.89850	0.95932
3391.84159	0.95899
3389.78469	0.95879
3387.72778	0.95892
3385.67087	0.95906
3383.61396	0.95883
3381.55705	0.95883
3379.50014	0.95920
3377.44324	0.95923
3375.38633	0.95892
3373.32942	0.95890
3371.27251	0.95937
3369.21560	0.96011
3367.15870	0.96104
3365.10179	0.96136
3363.04488	0.96072
3360.98797	0.96004
3358.93106	0.95978
3356.87415	0.95977
3354.81725	0.96002
3352.76034	0.96043
3350.70343	0.96048
3348.64652	0.96016
3346.58961	0.95998
3344.53271	0.96013
3342.47580	0.96041
3340.41889	0.96046
3338.36198	0.96042
3336.30507	0.96062
3334.24816	0.96064
3332.19126	0.96035
3330.13435	0.96025
3328.07744	0.96037
3326.02053	0.96059
3323.96362	0.96089
3321.90672	0.96115
3319.84981	0.96123
3317.79290	0.96127
3315.73599	0.96139
3313.67908	0.96160
3311.62217	0.96206
3309.56527	0.96245
3307.50836	0.96236
3305.45145	0.96221
3303.39454	0.96245
3301.33763	0.96275
3299.28073	0.96267
3297.22382	0.96237
3295.16691	0.96260
3293.11000	0.96328
3291.05309	0.96359
3288.99618	0.96361
3286.93928	0.96370
3284.88237	0.96383
3282.82546	0.96399
3280.76855	0.96425
3278.71164	0.96452
3276.65474	0.96456
3274.59783	0.96437
3272.54092	0.96402
3270.48401	0.96376
3268.42710	0.96369
3266.37019	0.96371
3264.31329	0.96426
3262.25638	0.96517
3260.19947	0.96581
3258.14256	0.96591
3256.08565	0.96558
3254.02875	0.96518
3251.97184	0.96527
3249.91493	0.96582
3247.85802	0.96639
3245.80111	0.96688
3243.74420	0.96710
3241.68730	0.96714
3239.63039	0.96734
3237.57348	0.96763
3235.51657	0.96796
3233.45966	0.96830
3231.40276	0.96843
3229.34585	0.96833
3227.28894	0.96842
3225.23203	0.96873
3223.17512	0.96876
3221.11821	0.96861
3219.06131	0.96864
3217.00440	0.96872
3214.94749	0.96907
3212.89058	0.96991
3210.83367	0.97053
3208.77677	0.97027
3206.71986	0.96982
3204.66295	0.96994
3202.60604	0.97030
3200.54913	0.97055
3198.49222	0.97079
3196.43532	0.97111
3194.37841	0.97157
3192.32150	0.97201
3190.26459	0.97223
3188.20768	0.97222
3186.15078	0.97236
3184.09387	0.97267
3182.03696	0.97251
3179.98005	0.97207
3177.92314	0.97196
3175.86623	0.97230
3173.80933	0.97275
3171.75242	0.97280
3169.69551	0.97288
3167.63860	0.97340
3165.58169	0.97365
3163.52479	0.97360
3161.46788	0.97372
3159.41097	0.97384
3157.35406	0.97395
3155.29715	0.97403
3153.24024	0.97418
3151.18334	0.97475
3149.12643	0.97519
3147.06952	0.97515
3145.01261	0.97500
3142.95570	0.97470
3140.89880	0.97454
3138.84189	0.97486
3136.78498	0.97524
3134.72807	0.97588
3132.67116	0.97665
3130.61425	0.97657
3128.55735	0.97597
3126.50044	0.97599
3124.44353	0.97657
3122.38662	0.97694
3120.32971	0.97704
3118.27281	0.97714
3116.21590	0.97695
3114.15899	0.97637
3112.10208	0.97623
3110.04517	0.97700
3107.98826	0.97791
3105.93136	0.97815
3103.87445	0.97803
3101.81754	0.97830
3099.76063	0.97871
3097.70372	0.97869
3095.64682	0.97854
3093.58991	0.97858
3091.53300	0.97861
3089.47609	0.97865
3087.41918	0.97895
3085.36227	0.97932
3083.30537	0.97932
3081.24846	0.97918
3079.19155	0.97912
3077.13464	0.97894
3075.07773	0.97871
3073.02083	0.97892
3070.96392	0.97958
3068.90701	0.97984
3066.85010	0.97975
3064.79319	0.97994
3062.73628	0.98010
3060.67938	0.98002
3058.62247	0.98018
3056.56556	0.98040
3054.50865	0.98027
3052.45174	0.98018
3050.39484	0.98031
3048.33793	0.98051
3046.28102	0.98084
3044.22411	0.98116
3042.16720	0.98118
3040.11029	0.98080
3038.05339	0.98044
3035.99648	0.98054
3033.93957	0.98088
3031.88266	0.98095
3029.82575	0.98061
3027.76885	0.98039
3025.71194	0.98034
3023.65503	0.98025
3021.59812	0.98065
3019.54121	0.98115
3017.48430	0.98106
3015.42740	0.98101
3013.37049	0.98113
3011.31358	0.98131
3009.25667	0.98168
3007.19976	0.98166
3005.14286	0.98133
3003.08595	0.98125
3001.02904	0.98116
2998.97213	0.98089
2996.91522	0.98064
2994.85831	0.98060
2992.80141	0.98074
2990.74450	0.98101
2988.68759	0.98115
2986.63068	0.98094
2984.57377	0.98073
2982.51687	0.98042
2980.45996	0.97991
2978.40305	0.97975
2976.34614	0.97997
2974.28923	0.98003
2972.23232	0.97979
2970.17542	0.97928
2968.11851	0.97864
2966.06160	0.97820
2964.00469	0.97813
2961.94778	0.97819
2959.89088	0.97785
2957.83397	0.97718
2955.77706	0.97675
2953.72015	0.97642
2951.66324	0.97571
2949.60633	0.97495
2947.54943	0.97457
2945.49252	0.97433
2943.43561	0.97384
2941.37870	0.97307
2939.32179	0.97214
2937.26489	0.97118
2935.20798	0.97033
2933.15107	0.96968
2931.09416	0.96921
2929.03725	0.96858
2926.98034	0.96759
2924.92344	0.96670
2922.86653	0.96653
2920.80962	0.96713
2918.75271	0.96768
2916.69580	0.96760
2914.63890	0.96751
2912.58199	0.96762
2910.52508	0.96768
2908.46817	0.96786
2906.41126	0.96828
2904.35435	0.96856
2902.29745	0.96849
2900.24054	0.96837
2898.18363	0.96847
2896.12672	0.96863
2894.06981	0.96857
2892.01291	0.96842
2889.95600	0.96829
2887.89909	0.96790
2885.84218	0.96761
2883.78527	0.96807
2881.72836	0.96892
2879.67146	0.96947
2877.61455	0.96968
2875.55764	0.96974
2873.50073	0.96961
2871.44382	0.96941
2869.38692	0.96935
2867.33001	0.96937
2865.27310	0.96974
2863.21619	0.97041
2861.15928	0.97061
2859.10237	0.97035
2857.04547	0.97032
2854.98856	0.97058
2852.93165	0.97046
2850.87474	0.97007
2848.81783	0.97048
2846.76093	0.97163
2844.70402	0.97296
2842.64711	0.97410
2840.59020	0.97490
2838.53329	0.97575
2836.47638	0.97653
2834.41948	0.97700
2832.36257	0.97734
2830.30566	0.97757
2828.24875	0.97771
2826.19184	0.97766
2824.13494	0.97741
2822.07803	0.97732
2820.02112	0.97762
2817.96421	0.97802
2815.90730	0.97814
2813.85039	0.97816
2811.79349	0.97848
2809.73658	0.97886
2807.67967	0.97886
2805.62276	0.97854
2803.56585	0.97833
2801.50895	0.97854
2799.45204	0.97903
2797.39513	0.97956
2795.33822	0.97995
2793.28131	0.98011
2791.22440	0.98015
2789.16750	0.98017
2787.11059	0.97996
2785.05368	0.97979
2782.99677	0.98008
2780.93986	0.98046
2778.88296	0.98042
2776.82605	0.98021
2774.76914	0.98028
2772.71223	0.98046
2770.65532	0.98038
2768.59841	0.98029
2766.54151	0.98034
2764.48460	0.98042
2762.42769	0.98052
2760.37078	0.98061
2758.31387	0.98066
2756.25697	0.98061
2754.20006	0.98052
2752.14315	0.98053
2750.08624	0.98067
2748.02933	0.98087
2745.97242	0.98108
2743.91552	0.98124
2741.85861	0.98120
2739.80170	0.98097
2737.74479	0.98084
2735.68788	0.98090
2733.63098	0.98098
2731.57407	0.98101
2729.51716	0.98101
2727.46025	0.98088
2725.40334	0.98067
2723.34643	0.98059
2721.28953	0.98075
2719.23262	0.98111
2717.17571	0.98144
2715.11880	0.98136
2713.06189	0.98099
2711.00499	0.98086
2708.94808	0.98115
2706.89117	0.98149
2704.83426	0.98163
2702.77735	0.98166
2700.72044	0.98158
2698.66354	0.98141
2696.60663	0.98129
2694.54972	0.98132
2692.49281	0.98161
2690.43590	0.98204
2688.37900	0.98236
2686.32209	0.98247
2684.26518	0.98218
2682.20827	0.98182
2680.15136	0.98180
2678.09445	0.98188
2676.03755	0.98183
2673.98064	0.98163
2671.92373	0.98143
2669.86682	0.98140
2667.80991	0.98176
2665.75301	0.98215
2663.69610	0.98196
2661.63919	0.98153
2659.58228	0.98138
2657.52537	0.98142
2655.46846	0.98153
2653.41156	0.98156
2651.35465	0.98153
2649.29774	0.98180
2647.24083	0.98212
2645.18392	0.98205
2643.12702	0.98192
2641.07011	0.98186
2639.01320	0.98161
2636.95629	0.98148
2634.89938	0.98199
2632.84247	0.98272
2630.78557	0.98279
2628.72866	0.98239
2626.67175	0.98238
2624.61484	0.98273
2622.55793	0.98286
2620.50103	0.98265
2618.44412	0.98222
2616.38721	0.98198
2614.33030	0.98229
2612.27339	0.98265
2610.21648	0.98239
2608.15958	0.98176
2606.10267	0.98154
2604.04576	0.98169
2601.98885	0.98189
2599.93194	0.98243
2597.87504	0.98320
2595.81813	0.98343
2593.76122	0.98315
2591.70431	0.98317
2589.64740	0.98347
2587.59049	0.98367
2585.53359	0.98379
2583.47668	0.98375
2581.41977	0.98403
2579.36286	0.98464
2577.30595	0.98462
2575.24905	0.98406
2573.19214	0.98370
2571.13523	0.98352
2569.07832	0.98354
2567.02141	0.98396
2564.96450	0.98396
2562.90760	0.98321
2560.85069	0.98283
2558.79378	0.98330
2556.73687	0.98360
2554.67996	0.98325
2552.62306	0.98321
2550.56615	0.98352
2548.50924	0.98330
2546.45233	0.98304
2544.39542	0.98340
2542.33851	0.98403
2540.28161	0.98468
2538.22470	0.98532
2536.16779	0.98541
2534.11088	0.98507
2532.05397	0.98482
2529.99707	0.98439
2527.94016	0.98385
2525.88325	0.98345
2523.82634	0.98321
2521.76943	0.98330
2519.71252	0.98331
2517.65562	0.98361
2515.59871	0.98472
2513.54180	0.98534
2511.48489	0.98508
2509.42798	0.98503
2507.37108	0.98508
2505.31417	0.98494
2503.25726	0.98510
2501.20035	0.98519
2499.14344	0.98440
2497.08653	0.98351
2495.02963	0.98383
2492.97272	0.98455
2490.91581	0.98441
2488.85890	0.98380
2486.80199	0.98364
2484.74509	0.98418
2482.68818	0.98460
2480.63127	0.98432
2478.57436	0.98383
2476.51745	0.98365
2474.46054	0.98373
2472.40364	0.98422
2470.34673	0.98518
2468.28982	0.98557
2466.23291	0.98488
2464.17600	0.98415
2462.11910	0.98378
2460.06219	0.98380
2458.00528	0.98454
2455.94837	0.98517
2453.89146	0.98527
2451.83455	0.98545
2449.77765	0.98536
2447.72074	0.98472
2445.66383	0.98468
2443.60692	0.98568
2441.55001	0.98652
2439.49311	0.98655
2437.43620	0.98610
2435.37929	0.98566
2433.32238	0.98552
2431.26547	0.98537
2429.20856	0.98489
2427.15166	0.98447
2425.09475	0.98449
2423.03784	0.98452
2420.98093	0.98428
2418.92402	0.98417
2416.86712	0.98442
2414.81021	0.98478
2412.75330	0.98510
2410.69639	0.98526
2408.63948	0.98516
2406.58257	0.98528
2404.52567	0.98574
2402.46876	0.98566
2400.41185	0.98502
2398.35494	0.98473
2396.29803	0.98512
2394.24113	0.98576
2392.18422	0.98600
2390.12731	0.98575
2388.07040	0.98559
2386.01349	0.98576
2383.95658	0.98601
2381.89968	0.98626
2379.84277	0.98659
2377.78586	0.98643
2375.72895	0.98570
2373.67204	0.98526
2371.61514	0.98520
2369.55823	0.98526
2367.50132	0.98555
2365.44441	0.98642
2363.38750	0.98729
2361.33059	0.98641
2359.27369	0.98503
2357.21678	0.98520
2355.15987	0.98563
2353.10296	0.98563
2351.04605	0.98561
2348.98915	0.98550
2346.93224	0.98515
2344.87533	0.98479
2342.81842	0.98504
2340.76151	0.98506
2338.70460	0.98439
2336.64770	0.98434
2334.59079	0.98477
2332.53388	0.98510
2330.47697	0.98527
2328.42006	0.98479
2326.36316	0.98367
2324.30625	0.98287
2322.24934	0.98304
2320.19243	0.98363
2318.13552	0.98390
2316.07861	0.98392
2314.02171	0.98433
2311.96480	0.98517
2309.90789	0.98532
2307.85098	0.98465
2305.79407	0.98434
2303.73717	0.98471
2301.68026	0.98504
2299.62335	0.98481
2297.56644	0.98441
2295.50953	0.98442
2293.45262	0.98479
2291.39572	0.98492
2289.33881	0.98447
2287.28190	0.98426
2285.22499	0.98462
2283.16808	0.98485
2281.11117	0.98500
2279.05427	0.98524
2276.99736	0.98548
2274.94045	0.98534
2272.88354	0.98472
2270.82663	0.98434
2268.76973	0.98472
2266.71282	0.98583
2264.65591	0.98676
2262.59900	0.98686
2260.54209	0.98634
2258.48518	0.98544
2256.42828	0.98461
2254.37137	0.98400
2252.31446	0.98399
2250.25755	0.98478
2248.20064	0.98547
2246.14374	0.98578
2244.08683	0.98572
2242.02992	0.98543
2239.97301	0.98562
2237.91610	0.98569
2235.85919	0.98502
2233.80229	0.98525
2231.74538	0.98718
2229.68847	0.98894
2227.63156	0.98919
2225.57465	0.98801
2223.51775	0.98650
2221.46084	0.98541
2219.40393	0.98535
2217.34702	0.98665
2215.29011	0.98677
2213.23320	0.98515
2211.17630	0.98460
2209.11939	0.98538
2207.06248	0.98679
2205.00557	0.98829
2202.94866	0.98824
2200.89176	0.98726
2198.83485	0.98708
2196.77794	0.98749
2194.72103	0.98742
2192.66412	0.98637
2190.60721	0.98577
2188.55031	0.98775
2186.49340	0.99007
2184.43649	0.98821
2182.37958	0.98416
2180.32267	0.98372
2178.26577	0.98714
2176.20886	0.98985
2174.15195	0.98859
2172.09504	0.98405
2170.03813	0.98094
2167.98122	0.98273
2165.92432	0.98565
2163.86741	0.98481
2161.81050	0.98312
2159.75359	0.98638
2157.69668	0.99226
2155.63978	0.99511
2153.58287	0.99414
2151.52596	0.99149
2149.46905	0.98938
2147.41214	0.98753
2145.35523	0.98558
2143.29833	0.98544
2141.24142	0.98739
2139.18451	0.98835
2137.12760	0.98789
2135.07069	0.98819
2133.01379	0.98897
2130.95688	0.98944
2128.89997	0.98937
2126.84306	0.98812
2124.78615	0.98628
2122.72924	0.98521
2120.67234	0.98510
2118.61543	0.98542
2116.55852	0.98571
2114.50161	0.98610
2112.44470	0.98729
2110.38780	0.98857
2108.33089	0.98846
2106.27398	0.98721
2104.21707	0.98621
2102.16016	0.98620
2100.10325	0.98654
2098.04635	0.98720
2095.98944	0.98832
2093.93253	0.98849
2091.87562	0.98792
2089.81871	0.98764
2087.76181	0.98623
2085.70490	0.98366
2083.64799	0.98293
2081.59108	0.98471
2079.53417	0.98637
2077.47726	0.98663
2075.42036	0.98640
2073.36345	0.98652
2071.30654	0.98682
2069.24963	0.98679
2067.19272	0.98633
2065.13582	0.98586
2063.07891	0.98625
2061.02200	0.98733
2058.96509	0.98787
2056.90818	0.98771
2054.85127	0.98804
2052.79437	0.98812
2050.73746	0.98668
2048.68055	0.98613
2046.62364	0.98736
2044.56673	0.98763
2042.50983	0.98603
2040.45292	0.98437
2038.39601	0.98475
2036.33910	0.98590
2034.28219	0.98628
2032.22528	0.98756
2030.16838	0.98947
2028.11147	0.99030
2026.05456	0.98977
2023.99765	0.98879
2021.94074	0.98815
2019.88384	0.98701
2017.82693	0.98669
2015.77002	0.98974
2013.71311	0.99352
2011.65620	0.99376
2009.59929	0.99135
2007.54239	0.98925
2005.48548	0.98832
2003.42857	0.98850
2001.37166	0.98811
1999.31475	0.98699
1997.25785	0.98721
1995.20094	0.98833
1993.14403	0.98893
1991.08712	0.98803
1989.03021	0.98639
1986.97330	0.98626
1984.91640	0.98678
1982.85949	0.98582
1980.80258	0.98524
1978.74567	0.98784
1976.68876	0.99065
1974.63186	0.99046
1972.57495	0.99011
1970.51804	0.99142
1968.46113	0.99195
1966.40422	0.99016
1964.34731	0.98785
1962.29041	0.98682
1960.23350	0.98680
1958.17659	0.98683
1956.11968	0.98731
1954.06277	0.98829
1952.00587	0.98879
1949.94896	0.98876
1947.89205	0.98855
1945.83514	0.98847
1943.77823	0.98879
1941.72132	0.98935
1939.66442	0.98943
1937.60751	0.98901
1935.55060	0.98859
1933.49369	0.98801
1931.43678	0.98709
1929.37988	0.98656
1927.32297	0.98695
1925.26606	0.98781
1923.20915	0.98852
1921.15224	0.98890
1919.09533	0.98902
1917.03843	0.98875
1914.98152	0.98793
1912.92461	0.98743
1910.86770	0.98764
1908.81079	0.98788
1906.75389	0.98783
1904.69698	0.98762
1902.64007	0.98770
1900.58316	0.98809
1898.52625	0.98820
1896.46934	0.98775
1894.41244	0.98723
1892.35553	0.98721
1890.29862	0.98744
1888.24171	0.98760
1886.18480	0.98756
1884.12790	0.98712
1882.07099	0.98674
1880.01408	0.98677
1877.95717	0.98712
1875.90026	0.98743
1873.84335	0.98717
1871.78645	0.98672
1869.72954	0.98699
1867.67263	0.98760
1865.61572	0.98757
1863.55881	0.98712
1861.50191	0.98717
1859.44500	0.98769
1857.38809	0.98765
1855.33118	0.98715
1853.27427	0.98701
1851.21736	0.98744
1849.16046	0.98794
1847.10355	0.98808
1845.04664	0.98800
1842.98973	0.98793
1840.93282	0.98772
1838.87592	0.98750
1836.81901	0.98778
1834.76210	0.98831
1832.70519	0.98851
1830.64828	0.98838
1828.59137	0.98825
1826.53447	0.98832
1824.47756	0.98812
1822.42065	0.98766
1820.36374	0.98754
1818.30683	0.98782
1816.24993	0.98804
1814.19302	0.98794
1812.13611	0.98775
1810.07920	0.98767
1808.02229	0.98762
1805.96538	0.98745
1803.90848	0.98740
1801.85157	0.98780
1799.79466	0.98791
1797.73775	0.98742
1795.68084	0.98717
1793.62394	0.98716
1791.56703	0.98694
1789.51012	0.98705
1787.45321	0.98748
1785.39630	0.98733
1783.33939	0.98682
1781.28249	0.98695
1779.22558	0.98732
1777.16867	0.98734
1775.11176	0.98755
1773.05485	0.98766
1770.99795	0.98651
1768.94104	0.98470
1766.88413	0.98315
1764.82722	0.98193
1762.77031	0.98051
1760.71340	0.97868
1758.65650	0.97672
1756.59959	0.97423
1754.54268	0.97154
1752.48577	0.96890
1750.42886	0.96560
1748.37196	0.96184
1746.31505	0.95894
1744.25814	0.95674
1742.20123	0.95428
1740.14432	0.95151
1738.08741	0.94943
1736.03051	0.94819
1733.97360	0.94667
1731.91669	0.94525
1729.85978	0.94462
1727.80287	0.94415
1725.74597	0.94380
1723.68906	0.94401
1721.63215	0.94483
1719.57524	0.94572
1717.51833	0.94662
1715.46142	0.94823
1713.40452	0.95039
1711.34761	0.95262
1709.29070	0.95471
1707.23379	0.95679
1705.17688	0.95906
1703.11998	0.96097
1701.06307	0.96266
1699.00616	0.96453
1696.94925	0.96638
1694.89234	0.96868
1692.83543	0.97050
1690.77853	0.97158
1688.72162	0.97243
1686.66471	0.97289
1684.60780	0.97328
1682.55089	0.97431
1680.49399	0.97514
1678.43708	0.97552
1676.38017	0.97560
1674.32326	0.97575
1672.26635	0.97631
1670.20944	0.97667
1668.15254	0.97651
1666.09563	0.97623
1664.03872	0.97584
1661.98181	0.97537
1659.92490	0.97508
1657.86800	0.97497
1655.81109	0.97488
1653.75418	0.97454
1651.69727	0.97436
1649.64036	0.97454
1647.58345	0.97451
1645.52655	0.97442
1643.46964	0.97474
1641.41273	0.97495
1639.35582	0.97472
1637.29891	0.97454
1635.24201	0.97471
1633.18510	0.97515
1631.12819	0.97549
1629.07128	0.97530
1627.01437	0.97498
1624.95746	0.97479
1622.90056	0.97444
1620.84365	0.97444
1618.78674	0.97472
1616.72983	0.97475
1614.67292	0.97460
1612.61602	0.97444
1610.55911	0.97433
1608.50220	0.97425
1606.44529	0.97408
1604.38838	0.97397
1602.33147	0.97390
1600.27457	0.97365
1598.21766	0.97334
1596.16075	0.97321
1594.10384	0.97315
1592.04693	0.97310
1589.99003	0.97307
1587.93312	0.97304
1585.87621	0.97314
1583.81930	0.97327
1581.76239	0.97319
1579.70548	0.97296
1577.64858	0.97275
1575.59167	0.97295
1573.53476	0.97340
1571.47785	0.97358
1569.42094	0.97360
1567.36404	0.97357
1565.30713	0.97358
1563.25022	0.97378
1561.19331	0.97396
1559.13640	0.97386
1557.07949	0.97417
1555.02259	0.97476
1552.96568	0.97524
1550.90877	0.97564
1548.85186	0.97596
1546.79495	0.97623
1544.73805	0.97626
1542.68114	0.97591
1540.62423	0.97565
1538.56732	0.97607
1536.51041	0.97644
1534.45350	0.97644
1532.39660	0.97650
1530.33969	0.97688
1528.28278	0.97741
1526.22587	0.97773
1524.16896	0.97758
1522.11206	0.97707
1520.05515	0.97674
1517.99824	0.97672
1515.94133	0.97670
1513.88442	0.97701
1511.82751	0.97759
1509.77061	0.97787
1507.71370	0.97783
1505.65679	0.97780
1503.59988	0.97774
1501.54297	0.97774
1499.48607	0.97777
1497.42916	0.97749
1495.37225	0.97711
1493.31534	0.97702
1491.25843	0.97692
1489.20152	0.97660
1487.14462	0.97639
1485.08771	0.97638
1483.03080	0.97626
1480.97389	0.97580
1478.91698	0.97518
1476.86008	0.97446
1474.80317	0.97342
1472.74626	0.97186
1470.68935	0.97044
1468.63244	0.96958
1466.57553	0.96869
1464.51863	0.96762
1462.46172	0.96685
1460.40481	0.96640
1458.34790	0.96566
1456.29099	0.96450
1454.23409	0.96377
1452.17718	0.96311
1450.12027	0.96249
1448.06336	0.96217
1446.00645	0.96159
1443.94954	0.96071
1441.89264	0.95995
1439.83573	0.95912
1437.77882	0.95813
1435.72191	0.95747
1433.66500	0.95740
1431.60810	0.95723
1429.55119	0.95669
1427.49428	0.95616
1425.43737	0.95579
1423.38046	0.95560
1421.32355	0.95569
1419.26665	0.95590
1417.20974	0.95597
1415.15283	0.95586
1413.09592	0.95581
1411.03901	0.95591
1408.98211	0.95597
1406.92520	0.95608
1404.86829	0.95625
1402.81138	0.95625
1400.75447	0.95619
1398.69756	0.95614
1396.64066	0.95592
1394.58375	0.95541
1392.52684	0.95473
1390.46993	0.95407
1388.41302	0.95320
1386.35612	0.95176
1384.29921	0.95013
1382.24230	0.94852
1380.18539	0.94661
1378.12848	0.94454
1376.07157	0.94266
1374.01467	0.94100
1371.95776	0.93988
1369.90085	0.93949
1367.84394	0.93972
1365.78703	0.94070
1363.73013	0.94242
1361.67322	0.94450
1359.61631	0.94630
1357.55940	0.94784
1355.50249	0.94935
1353.44558	0.95067
1351.38868	0.95167
1349.33177	0.95248
1347.27486	0.95316
1345.21795	0.95359
1343.16104	0.95377
1341.10414	0.95388
1339.04723	0.95418
1336.99032	0.95460
1334.93341	0.95501
1332.87650	0.95538
1330.81959	0.95542
1328.76269	0.95520
1326.70578	0.95503
1324.64887	0.95508
1322.59196	0.95533
1320.53505	0.95556
1318.47815	0.95561
1316.42124	0.95556
1314.36433	0.95560
1312.30742	0.95592
1310.25051	0.95656
1308.19360	0.95717
1306.13670	0.95758
1304.07979	0.95778
1302.02288	0.95785
1299.96597	0.95789
1297.90906	0.95789
1295.85216	0.95787
1293.79525	0.95763
1291.73834	0.95725
1289.68143	0.95716
1287.62452	0.95694
1285.56761	0.95600
1283.51071	0.95468
1281.45380	0.95339
1279.39689	0.95236
1277.33998	0.95151
1275.28307	0.95030
1273.22617	0.94849
1271.16926	0.94645
1269.11235	0.94473
1267.05544	0.94326
1264.99853	0.94145
1262.94162	0.93920
1260.88472	0.93679
1258.82781	0.93433
1256.77090	0.93213
1254.71399	0.93030
1252.65708	0.92825
1250.60018	0.92592
1248.54327	0.92374
1246.48636	0.92187
1244.42945	0.92023
1242.37254	0.91862
1240.31563	0.91709
1238.25873	0.91595
1236.20182	0.91510
1234.14491	0.91426
1232.08800	0.91361
1230.03109	0.91352
1227.97419	0.91404
1225.91728	0.91532
1223.86037	0.91748
1221.80346	0.92025
1219.74655	0.92338
1217.68964	0.92680
1215.63274	0.93031
1213.57583	0.93351
1211.51892	0.93630
1209.46201	0.93860
1207.40510	0.94031
1205.34820	0.94159
1203.29129	0.94272
1201.23438	0.94372
1199.17747	0.94473
1197.12056	0.94610
1195.06365	0.94768
1193.00675	0.94924
1190.94984	0.95075
1188.89293	0.95182
1186.83602	0.95223
1184.77911	0.95240
1182.72221	0.95239
1180.66530	0.95170
1178.60839	0.95029
1176.55148	0.94857
1174.49457	0.94661
1172.43766	0.94416
1170.38076	0.94121
1168.32385	0.93809
1166.26694	0.93493
1164.21003	0.93205
1162.15312	0.92990
1160.09622	0.92836
1158.03931	0.92729
1155.98240	0.92700
1153.92549	0.92744
1151.86858	0.92821
1149.81167	0.92902
1147.75477	0.92972
1145.69786	0.92995
1143.64095	0.92967
1141.58404	0.92935
1139.52713	0.92884
1137.47023	0.92763
1135.41332	0.92570
1133.35641	0.92345
1131.29950	0.92119
1129.24259	0.91886
1127.18568	0.91658
1125.12878	0.91432
1123.07187	0.91190
1121.01496	0.90946
1118.95805	0.90706
1116.90114	0.90491
1114.84424	0.90338
1112.78733	0.90228
1110.73042	0.90122
1108.67351	0.90007
1106.61660	0.89875
1104.55969	0.89738
1102.50279	0.89613
1100.44588	0.89486
1098.38897	0.89357
1096.33206	0.89230
1094.27515	0.89098
1092.21825	0.88977
1090.16134	0.88847
1088.10443	0.88679
1086.04752	0.88474
1083.99061	0.88240
1081.93370	0.88010
1079.87680	0.87757
1077.81989	0.87449
1075.76298	0.87138
1073.70607	0.86829
1071.64916	0.86498
1069.59226	0.86206
1067.53535	0.85999
1065.47844	0.85839
1063.42153	0.85680
1061.36462	0.85493
1059.30771	0.85305
1057.25081	0.85143
1055.19390	0.85006
1053.13699	0.84909
1051.08008	0.84808
1049.02317	0.84653
1046.96627	0.84497
1044.90936	0.84365
1042.85245	0.84203
1040.79554	0.84011
1038.73863	0.83818
1036.68172	0.83625
1034.62482	0.83445
1032.56791	0.83284
1030.51100	0.83121
1028.45409	0.82951
1026.39718	0.82807
1024.34028	0.82707
1022.28337	0.82646
1020.22646	0.82611
1018.16955	0.82593
1016.11264	0.82620
1014.05573	0.82724
1011.99883	0.82889
1009.94192	0.83081
1007.88501	0.83284
1005.82810	0.83455
1003.77119	0.83559
1001.71429	0.83645
999.65738	0.83733
997.60047	0.83808
995.54356	0.83900
993.48665	0.84035
991.42974	0.84216
989.37284	0.84440
987.31593	0.84682
985.25902	0.84927
983.20211	0.85199
981.14520	0.85498
979.08830	0.85806
977.03139	0.86119
974.97448	0.86389
972.91757	0.86621
970.86066	0.86906
968.80375	0.87227
966.74685	0.87507
964.68994	0.87769
962.63303	0.88045
960.57612	0.88302
958.51921	0.88542
956.46231	0.88811
954.40540	0.89096
952.34849	0.89353
950.29158	0.89579
948.23467	0.89763
946.17776	0.89924
944.12086	0.90093
942.06395	0.90263
940.00704	0.90400
937.95013	0.90500
935.89322	0.90580
933.83632	0.90663
931.77941	0.90747
929.72250	0.90816
927.66559	0.90878
925.60868	0.90950
923.55177	0.91039
921.49487	0.91119
919.43796	0.91177
917.38105	0.91244
915.32414	0.91287
913.26723	0.91276
911.21033	0.91219
909.15342	0.91137
907.09651	0.91075
905.03960	0.91023
902.98269	0.90957
900.92578	0.90899
898.86888	0.90856
896.81197	0.90836
894.75506	0.90885
892.69815	0.90972
890.64124	0.91043
888.58434	0.91131
886.52743	0.91263
884.47052	0.91419
882.41361	0.91576
880.35670	0.91751
878.29979	0.91938
876.24289	0.92096
874.18598	0.92244
872.12907	0.92426
870.07216	0.92625
868.01525	0.92805
865.95835	0.92967
863.90144	0.93105
861.84453	0.93205
859.78762	0.93282
857.73071	0.93374
855.67380	0.93470
853.61690	0.93509
851.55999	0.93489
849.50308	0.93458
847.44617	0.93467
845.38926	0.93523
843.33236	0.93601
841.27545	0.93693
839.21854	0.93740
837.16163	0.93704
835.10472	0.93658
833.04781	0.93644
830.99091	0.93651
828.93400	0.93668
826.87709	0.93695
824.82018	0.93756
822.76327	0.93801
820.70637	0.93785
818.64946	0.93798
816.59255	0.93844
814.53564	0.93828
812.47873	0.93781
810.42182	0.93750
808.36492	0.93750
806.30801	0.93789
804.25110	0.93833
802.19419	0.93840
800.13728	0.93797
798.08038	0.93779
796.02347	0.93817
793.96656	0.93861
791.90965	0.93878
789.85274	0.93849
787.79583	0.93813
785.73893	0.93840
783.68202	0.93910
781.62511	0.93950
779.56820	0.93957
777.51129	0.93936
775.45439	0.93879
773.39748	0.93869
771.34057	0.93931
769.28366	0.93968
767.22675	0.93965
765.16984	0.93981
763.11294	0.94028
761.05603	0.94107
758.99912	0.94177
756.94221	0.94169
754.88530	0.94127
752.82839	0.94131
750.77149	0.94142
748.71458	0.94089
746.65767	0.93981
744.60076	0.93908
742.54385	0.93927
740.48695	0.93960
738.43004	0.93916
736.37313	0.93856
734.31622	0.93861
732.25931	0.93899
730.20240	0.93903
728.14550	0.93852
726.08859	0.93731
724.03168	0.93596
721.97477	0.93577
719.91786	0.93643
717.86096	0.93642
715.80405	0.93566
713.74714	0.93501
711.69023	0.93468
709.63332	0.93452
707.57641	0.93435
705.51951	0.93376
703.46260	0.93311
701.40569	0.93328
699.34878	0.93386
697.29187	0.93374
695.23497	0.93273
693.17806	0.93159
691.12115	0.93121
689.06424	0.93119
687.00733	0.93074
684.95042	0.93007
682.89352	0.92931
680.83661	0.92794
678.77970	0.92645
676.72279	0.92544
674.66588	0.92386
672.60898	0.92179
670.55207	0.92047
668.49516	0.91917
666.43825	0.91749
664.38134	0.91691
662.32443	0.91691
660.26753	0.91658
658.21062	0.91579
656.15371	0.91545
654.09680	0.91627
652.03989	0.91706
649.98299	0.91620
647.92608	0.91476
645.86917	0.91411
643.81226	0.91362
641.75535	0.91340
639.69844	0.91310
637.64154	0.91204
635.58463	0.91054
633.52772	0.90898
631.47081	0.90844
629.41390	0.90865
627.35700	0.90829
625.30009	0.90708
623.24318	0.90464
621.18627	0.90172
619.12936	0.89991
617.07245	0.89907
615.01555	0.89879
612.95864	0.89912
610.90173	0.89929
608.84482	0.89837
606.78791	0.89724
604.73101	0.89618
602.67410	0.89464
600.61719	0.89364
598.56028	0.89329
596.50337	0.89294
594.44646	0.89274
592.38956	0.89306
590.33265	0.89398
588.27574	0.89476
586.21883	0.89475
584.16192	0.89448
582.10502	0.89507
580.04811	0.89589
577.99120	0.89574
575.93429	0.89421
573.87738	0.89187
571.82047	0.89026
569.76357	0.88977
567.70666	0.88954
565.64975	0.88904
563.59284	0.88882
561.53593	0.88944
559.47903	0.89047
557.42212	0.89077
555.36521	0.88980
553.30830	0.88903
551.25139	0.88937
549.19448	0.88973
547.13758	0.89022
545.08067	0.89105
543.02376	0.89110
540.96685	0.89016
538.90994	0.88855
536.85304	0.88734
534.79613	0.88691
532.73922	0.88557
530.68231	0.88379
528.62540	0.88392
526.56849	0.88487
524.51159	0.88455
522.45468	0.88381
520.39777	0.88347
518.34086	0.88315
516.28395	0.88169
514.22705	0.87963
512.17014	0.87858
510.11323	0.87865
508.05632	0.87831
505.99941	0.87615
503.94250	0.87426
501.88560	0.87436
499.82869	0.87392
497.77178	0.87131
495.71487	0.86951
493.65796	0.87017
491.60106	0.87035
489.54415	0.86847
487.48724	0.86637
485.43033	0.86576
483.37342	0.86612
481.31651	0.86594
479.25961	0.86458
477.20270	0.86398
475.14579	0.86506
473.08888	0.86446
471.03197	0.86181
468.97507	0.86030
466.91816	0.85951
464.86125	0.85840
462.80434	0.85737
460.74743	0.85710
458.69052	0.85782
456.63362	0.85830
454.57671	0.85846
452.51980	0.85881
450.46289	0.85742
448.40598	0.85448
446.34908	0.85245
444.29217	0.85169
442.23526	0.85163
440.17835	0.85219
438.12144	0.85334
436.06453	0.85377
434.00763	0.85196
431.95072	0.85141
429.89381	0.85284
427.83690	0.85123
425.77999	0.84747
423.72309	0.84572
421.66618	0.84582
419.60927	0.84643
417.55236	0.85022
415.49545	0.85646
413.43854	0.85906
411.38164	0.85616
409.32473	0.85237
407.26782	0.85202
405.21091	0.85455
403.15400	0.85972
401.09710	0.86751
399.04019	0.87125
