3996.57260	0.99453
3994.51569	0.99566
3992.45878	0.99625
3990.40188	0.99570
3988.34497	0.99485
3986.28806	0.99438
3984.23115	0.99391
3982.17424	0.99358
3980.11733	0.99350
3978.06043	0.99334
3976.00352	0.99345
3973.94661	0.99366
3971.88970	0.99351
3969.83279	0.99328
3967.77589	0.99348
3965.71898	0.99410
3963.66207	0.99442
3961.60516	0.99428
3959.54825	0.99408
3957.49134	0.99402
3955.43444	0.99429
3953.37753	0.99435
3951.32062	0.99388
3949.26371	0.99374
3947.20680	0.99416
3945.14990	0.99465
3943.09299	0.99521
3941.03608	0.99550
3938.97917	0.99490
3936.92226	0.99425
3934.86535	0.99448
3932.80845	0.99485
3930.75154	0.99481
3928.69463	0.99443
3926.63772	0.99389
3924.58081	0.99411
3922.52391	0.99501
3920.46700	0.99523
3918.41009	0.99450
3916.35318	0.99393
3914.29627	0.99389
3912.23936	0.99356
3910.18246	0.99317
3908.12555	0.99368
3906.06864	0.99482
3904.01173	0.99522
3901.95482	0.99474
3899.89792	0.99470
3897.84101	0.99518
3895.78410	0.99580
3893.72719	0.99639
3891.67028	0.99624
3889.61337	0.99552
3887.55647	0.99551
3885.49956	0.99595
3883.44265	0.99599
3881.38574	0.99561
3879.32883	0.99487
3877.27193	0.99447
3875.21502	0.99478
3873.15811	0.99506
3871.10120	0.99412
3869.04429	0.99306
3866.98738	0.99388
3864.93048	0.99494
3862.87357	0.99474
3860.81666	0.99420
3858.75975	0.99419
3856.70284	0.99472
3854.64594	0.99520
3852.58903	0.99464
3850.53212	0.99439
3848.47521	0.99458
3846.41830	0.99442
3844.36139	0.99426
3842.30449	0.99408
3840.24758	0.99366
3838.19067	0.99352
3836.13376	0.99363
3834.07685	0.99368
3832.01995	0.99399
3829.96304	0.99447
3827.90613	0.99425
3825.84922	0.99350
3823.79231	0.99323
3821.73540	0.99336
3819.67850	0.99363
3817.62159	0.99389
3815.56468	0.99393
3813.50777	0.99377
3811.45086	0.99365
3809.39396	0.99401
3807.33705	0.99464
3805.28014	0.99469
3803.22323	0.99450
3801.16632	0.99420
3799.10941	0.99383
3797.05251	0.99359
3794.99560	0.99332
3792.93869	0.99341
3790.88178	0.99392
3788.82487	0.99439
3786.76796	0.99440
3784.71106	0.99387
3782.65415	0.99385
3780.59724	0.99457
3778.54033	0.99427
3776.48342	0.99345
3774.42652	0.99368
3772.36961	0.99420
3770.31270	0.99367
3768.25579	0.99250
3766.19888	0.99289
3764.14197	0.99430
3762.08507	0.99496
3760.02816	0.99513
3757.97125	0.99490
3755.91434	0.99443
3753.85743	0.99454
3751.80053	0.99547
3749.74362	0.99593
3747.68671	0.99540
3745.62980	0.99470
3743.57289	0.99389
3741.51598	0.99353
3739.45908	0.99373
3737.40217	0.99471
3735.34526	0.99600
3733.28835	0.99543
3731.23144	0.99372
3729.17454	0.99322
3727.11763	0.99400
3725.06072	0.99501
3723.00381	0.99578
3720.94690	0.99605
3718.88999	0.99528
3716.83309	0.99400
3714.77618	0.99357
3712.71927	0.99429
3710.66236	0.99516
3708.60545	0.99520
3706.54855	0.99487
3704.49164	0.99456
3702.43473	0.99391
3700.37782	0.99362
3698.32091	0.99419
3696.26400	0.99477
3694.20710	0.99488
3692.15019	0.99433
3690.09328	0.99356
3688.03637	0.99381
3685.97946	0.99456
3683.92256	0.99504
3681.86565	0.99538
3679.80874	0.99524
3677.75183	0.99451
3675.69492	0.99368
3673.63801	0.99317
3671.58111	0.99345
3669.52420	0.99434
3667.46729	0.99512
3665.41038	0.99542
3663.35347	0.99533
3661.29657	0.99502
3659.23966	0.99425
3657.18275	0.99305
3655.12584	0.99251
3653.06893	0.99305
3651.01202	0.99329
3648.95512	0.99222
3646.89821	0.99183
3644.84130	0.99262
3642.78439	0.99315
3640.72748	0.99322
3638.67058	0.99337
3636.61367	0.99362
3634.55676	0.99336
3632.49985	0.99276
3630.44294	0.99248
3628.38603	0.99266
3626.32913	0.99314
3624.27222	0.99330
3622.21531	0.99282
3620.15840	0.99225
3618.10149	0.99157
3616.04459	0.99068
3613.98768	0.98988
3611.93077	0.98961
3609.87386	0.98993
3607.81695	0.98968
3605.76004	0.98868
3603.70314	0.98815
3601.64623	0.98844
3599.58932	0.98895
3597.53241	0.98922
3595.47550	0.98931
3593.41860	0.98921
3591.36169	0.98854
3589.30478	0.98744
3587.24787	0.98661
3585.19096	0.98684
3583.13405	0.98757
3581.07715	0.98761
3579.02024	0.98686
3576.96333	0.98615
3574.90642	0.98600
3572.84951	0.98604
3570.79261	0.98596
3568.73570	0.98614
3566.67879	0.98590
3564.62188	0.98514
3562.56497	0.98491
3560.50806	0.98458
3558.45116	0.98411
3556.39425	0.98426
3554.33734	0.98445
3552.28043	0.98417
3550.22352	0.98411
3548.16662	0.98416
3546.10971	0.98363
3544.05280	0.98297
3541.99589	0.98243
3539.93898	0.98181
3537.88207	0.98130
3535.82517	0.98089
3533.76826	0.98067
3531.71135	0.98058
3529.65444	0.98024
3527.59753	0.97970
3525.54063	0.97969
3523.48372	0.98014
3521.42681	0.98027
3519.36990	0.97979
3517.31299	0.97917
3515.25608	0.97878
3513.19918	0.97831
3511.14227	0.97778
3509.08536	0.97739
3507.02845	0.97717
3504.97154	0.97743
3502.91464	0.97785
3500.85773	0.97752
3498.80082	0.97687
3496.74391	0.97671
3494.68700	0.97654
3492.63009	0.97624
3490.57319	0.97632
3488.51628	0.97638
3486.45937	0.97585
3484.40246	0.97530
3482.34555	0.97540
3480.28865	0.97559
3478.23174	0.97516
3476.17483	0.97453
3474.11792	0.97418
3472.06101	0.97410
3470.00410	0.97373
3467.94720	0.97289
3465.89029	0.97256
3463.83338	0.97269
3461.77647	0.97229
3459.71956	0.97187
3457.66266	0.97252
3455.60575	0.97339
3453.54884	0.97303
3451.49193	0.97209
3449.43502	0.97192
3447.37811	0.97237
3445.32121	0.97258
3443.26430	0.97240
3441.20739	0.97209
3439.15048	0.97193
3437.09357	0.97195
3435.03667	0.97167
3432.97976	0.97139
3430.92285	0.97179
3428.86594	0.97235
3426.80903	0.97215
3424.75212	0.97146
3422.69522	0.97097
3420.63831	0.97066
3418.58140	0.97046
3416.52449	0.97079
3414.46758	0.97144
3412.41068	0.97163
3410.35377	0.97164
3408.29686	0.97202
3406.23995	0.97255
3404.18304	0.97284
3402.12613	0.97255
3400.06923	0.97186
3398.01232	0.97138
3395.95541	0.97132
3393.89850	0.97175
3391.84159	0.97233
3389.78469	0.97274
3387.72778	0.97291
3385.67087	0.97274
3383.61396	0.97238
3381.55705	0.97198
3379.50014	0.97201
3377.44324	0.97279
3375.38633	0.97331
3373.32942	0.97333
3371.27251	0.97350
3369.21560	0.97352
3367.15870	0.97346
3365.10179	0.97371
3363.04488	0.97389
3360.98797	0.97372
3358.93106	0.97314
3356.87415	0.97281
3354.81725	0.97345
3352.76034	0.97449
3350.70343	0.97498
3348.64652	0.97462
3346.58961	0.97392
3344.53271	0.97371
3342.47580	0.97423
3340.41889	0.97493
3338.36198	0.97527
3336.30507	0.97511
3334.24816	0.97488
3332.19126	0.97527
3330.13435	0.97600
3328.07744	0.97603
3326.02053	0.97529
3323.96362	0.97481
3321.90672	0.97508
3319.84981	0.97570
3317.79290	0.97584
3315.73599	0.97561
3313.67908	0.97582
3311.62217	0.97603
3309.56527	0.97578
3307.50836	0.97576
3305.45145	0.97599
3303.39454	0.97603
3301.33763	0.97615
3299.28073	0.97667
3297.22382	0.97716
3295.16691	0.97716
3293.11000	0.97721
3291.05309	0.97765
3288.99618	0.97797
3286.93928	0.97784
3284.88237	0.97758
3282.82546	0.97770
3280.76855	0.97812
3278.71164	0.97855
3276.65474	0.97855
3274.59783	0.97787
3272.54092	0.97738
3270.48401	0.97772
3268.42710	0.97826
3266.37019	0.97841
3264.31329	0.97850
3262.25638	0.97881
3260.19947	0.97895
3258.14256	0.97909
3256.08565	0.97940
3254.02875	0.97963
3251.97184	0.97998
3249.91493	0.98034
3247.85802	0.98032
3245.80111	0.97994
3243.74420	0.97954
3241.68730	0.97961
3239.63039	0.98022
3237.57348	0.98092
3235.51657	0.98121
3233.45966	0.98125
3231.40276	0.98141
3229.34585	0.98158
3227.28894	0.98128
3225.23203	0.98055
3223.17512	0.98029
3221.11821	0.98055
3219.06131	0.98055
3217.00440	0.98036
3214.94749	0.98047
3212.89058	0.98100
3210.83367	0.98160
3208.77677	0.98199
3206.71986	0.98223
3204.66295	0.98228
3202.60604	0.98244
3200.54913	0.98302
3198.49222	0.98343
3196.43532	0.98328
3194.37841	0.98311
3192.32150	0.98328
3190.26459	0.98374
3188.20768	0.98423
3186.15078	0.98431
3184.09387	0.98409
3182.03696	0.98389
3179.98005	0.98388
3177.92314	0.98398
3175.86623	0.98386
3173.80933	0.98390
3171.75242	0.98442
3169.69551	0.98493
3167.63860	0.98527
3165.58169	0.98530
3163.52479	0.98483
3161.46788	0.98446
3159.41097	0.98462
3157.35406	0.98492
3155.29715	0.98494
3153.24024	0.98482
3151.18334	0.98504
3149.12643	0.98583
3147.06952	0.98655
3145.01261	0.98662
3142.95570	0.98629
3140.89880	0.98608
3138.84189	0.98599
3136.78498	0.98620
3134.72807	0.98686
3132.67116	0.98712
3130.61425	0.98663
3128.55735	0.98640
3126.50044	0.98687
3124.44353	0.98758
3122.38662	0.98803
3120.32971	0.98779
3118.27281	0.98726
3116.21590	0.98732
3114.15899	0.98736
3112.10208	0.98693
3110.04517	0.98686
3107.98826	0.98743
3105.93136	0.98786
3103.87445	0.98770
3101.81754	0.98744
3099.76063	0.98757
3097.70372	0.98796
3095.64682	0.98843
3093.58991	0.98882
3091.53300	0.98882
3089.47609	0.98851
3087.41918	0.98856
3085.36227	0.98877
3083.30537	0.98863
3081.24846	0.98834
3079.19155	0.98829
3077.13464	0.98873
3075.07773	0.98902
3073.02083	0.98865
3070.96392	0.98827
3068.90701	0.98807
3066.85010	0.98785
3064.79319	0.98799
3062.73628	0.98874
3060.67938	0.98939
3058.62247	0.98933
3056.56556	0.98909
3054.50865	0.98935
3052.45174	0.98983
3050.39484	0.99008
3048.33793	0.99002
3046.28102	0.98967
3044.22411	0.98931
3042.16720	0.98908
3040.11029	0.98901
3038.05339	0.98931
3035.99648	0.98974
3033.93957	0.98981
3031.88266	0.98982
3029.82575	0.98991
3027.76885	0.98971
3025.71194	0.98925
3023.65503	0.98894
3021.59812	0.98937
3019.54121	0.99010
3017.48430	0.99024
3015.42740	0.99008
3013.37049	0.98971
3011.31358	0.98916
3009.25667	0.98893
3007.19976	0.98903
3005.14286	0.98943
3003.08595	0.98967
3001.02904	0.98928
2998.97213	0.98878
2996.91522	0.98875
2994.85831	0.98904
2992.80141	0.98909
2990.74450	0.98879
2988.68759	0.98830
2986.63068	0.98769
2984.57377	0.98762
2982.51687	0.98814
2980.45996	0.98872
2978.40305	0.98914
2976.34614	0.98893
2974.28923	0.98844
2972.23232	0.98830
2970.17542	0.98819
2968.11851	0.98776
2966.06160	0.98730
2964.00469	0.98707
2961.94778	0.98692
2959.89088	0.98663
2957.83397	0.98620
2955.77706	0.98582
2953.72015	0.98571
2951.66324	0.98590
2949.60633	0.98605
2947.54943	0.98593
2945.49252	0.98575
2943.43561	0.98549
2941.37870	0.98508
2939.32179	0.98505
2937.26489	0.98536
2935.20798	0.98526
2933.15107	0.98486
2931.09416	0.98476
2929.03725	0.98485
2926.98034	0.98467
2924.92344	0.98425
2922.86653	0.98401
2920.80962	0.98409
2918.75271	0.98410
2916.69580	0.98367
2914.63890	0.98330
2912.58199	0.98323
2910.52508	0.98309
2908.46817	0.98308
2906.41126	0.98352
2904.35435	0.98403
2902.29745	0.98397
2900.24054	0.98350
2898.18363	0.98315
2896.12672	0.98302
2894.06981	0.98299
2892.01291	0.98302
2889.95600	0.98303
2887.89909	0.98290
2885.84218	0.98281
2883.78527	0.98300
2881.72836	0.98336
2879.67146	0.98367
2877.61455	0.98372
2875.55764	0.98364
2873.50073	0.98382
2871.44382	0.98421
2869.38692	0.98445
2867.33001	0.98436
2865.27310	0.98427
2863.21619	0.98464
2861.15928	0.98517
2859.10237	0.98553
2857.04547	0.98584
2854.98856	0.98617
2852.93165	0.98657
2850.87474	0.98673
2848.81783	0.98669
2846.76093	0.98708
2844.70402	0.98770
2842.64711	0.98803
2840.59020	0.98829
2838.53329	0.98853
2836.47638	0.98875
2834.41948	0.98894
2832.36257	0.98888
2830.30566	0.98862
2828.24875	0.98852
2826.19184	0.98882
2824.13494	0.98921
2822.07803	0.98930
2820.02112	0.98932
2817.96421	0.98944
2815.90730	0.98963
2813.85039	0.98974
2811.79349	0.98970
2809.73658	0.98991
2807.67967	0.99014
2805.62276	0.98983
2803.56585	0.98941
2801.50895	0.98933
2799.45204	0.98949
2797.39513	0.98970
2795.33822	0.98978
2793.28131	0.98980
2791.22440	0.98970
2789.16750	0.98967
2787.11059	0.99010
2785.05368	0.99052
2782.99677	0.99044
2780.93986	0.99043
2778.88296	0.99080
2776.82605	0.99108
2774.76914	0.99101
2772.71223	0.99080
2770.65532	0.99073
2768.59841	0.99063
2766.54151	0.99034
2764.48460	0.99017
2762.42769	0.99032
2760.37078	0.99058
2758.31387	0.99056
2756.25697	0.99020
2754.20006	0.98988
2752.14315	0.98988
2750.08624	0.99025
2748.02933	0.99067
2745.97242	0.99064
2743.91552	0.99039
2741.85861	0.99032
2739.80170	0.99031
2737.74479	0.99019
2735.68788	0.99006
2733.63098	0.99017
2731.57407	0.99047
2729.51716	0.99062
2727.46025	0.99064
2725.40334	0.99067
2723.34643	0.99063
2721.28953	0.99054
2719.23262	0.99057
2717.17571	0.99054
2715.11880	0.99046
2713.06189	0.99056
2711.00499	0.99079
2708.94808	0.99087
2706.89117	0.99082
2704.83426	0.99078
2702.77735	0.99067
2700.72044	0.99059
2698.66354	0.99053
2696.60663	0.99046
2694.54972	0.99057
2692.49281	0.99101
2690.43590	0.99163
2688.37900	0.99201
2686.32209	0.99203
2684.26518	0.99179
2682.20827	0.99138
2680.15136	0.99080
2678.09445	0.99036
2676.03755	0.99055
2673.98064	0.99121
2671.92373	0.99152
2669.86682	0.99116
2667.80991	0.99075
2665.75301	0.99065
2663.69610	0.99060
2661.63919	0.99059
2659.58228	0.99077
2657.52537	0.99082
2655.46846	0.99052
2653.41156	0.99015
2651.35465	0.99001
2649.29774	0.99012
2647.24083	0.99016
2645.18392	0.99020
2643.12702	0.99050
2641.07011	0.99069
2639.01320	0.99037
2636.95629	0.98995
2634.89938	0.99013
2632.84247	0.99080
2630.78557	0.99105
2628.72866	0.99065
2626.67175	0.99048
2624.61484	0.99109
2622.55793	0.99177
2620.50103	0.99177
2618.44412	0.99159
2616.38721	0.99149
2614.33030	0.99096
2612.27339	0.99054
2610.21648	0.99098
2608.15958	0.99154
2606.10267	0.99143
2604.04576	0.99128
2601.98885	0.99170
2599.93194	0.99230
2597.87504	0.99259
2595.81813	0.99220
2593.76122	0.99161
2591.70431	0.99137
2589.64740	0.99090
2587.59049	0.99048
2585.53359	0.99118
2583.47668	0.99232
2581.41977	0.99258
2579.36286	0.99203
2577.30595	0.99121
2575.24905	0.99059
2573.19214	0.99059
2571.13523	0.99104
2569.07832	0.99143
2567.02141	0.99152
2564.96450	0.99160
2562.90760	0.99227
2560.85069	0.99340
2558.79378	0.99411
2556.73687	0.99397
2554.67996	0.99329
2552.62306	0.99269
2550.56615	0.99211
2548.50924	0.99128
2546.45233	0.99087
2544.39542	0.99135
2542.33851	0.99218
2540.28161	0.99253
2538.22470	0.99222
2536.16779	0.99204
2534.11088	0.99220
2532.05397	0.99201
2529.99707	0.99178
2527.94016	0.99180
2525.88325	0.99168
2523.82634	0.99138
2521.76943	0.99096
2519.71252	0.99104
2517.65562	0.99209
2515.59871	0.99284
2513.54180	0.99242
2511.48489	0.99198
2509.42798	0.99224
2507.37108	0.99255
2505.31417	0.99264
2503.25726	0.99270
2501.20035	0.99268
2499.14344	0.99255
2497.08653	0.99239
2495.02963	0.99242
2492.97272	0.99277
2490.91581	0.99295
2488.85890	0.99240
2486.80199	0.99193
2484.74509	0.99234
2482.68818	0.99263
2480.63127	0.99218
2478.57436	0.99205
2476.51745	0.99273
2474.46054	0.99322
2472.40364	0.99280
2470.34673	0.99211
2468.28982	0.99189
2466.23291	0.99208
2464.17600	0.99235
2462.11910	0.99245
2460.06219	0.99207
2458.00528	0.99162
2455.94837	0.99184
2453.89146	0.99222
2451.83455	0.99246
2449.77765	0.99283
2447.72074	0.99321
2445.66383	0.99368
2443.60692	0.99405
2441.55001	0.99403
2439.49311	0.99367
2437.43620	0.99283
2435.37929	0.99203
2433.32238	0.99214
2431.26547	0.99279
2429.20856	0.99252
2427.15166	0.99146
2425.09475	0.99154
2423.03784	0.99261
2420.98093	0.99309
2418.92402	0.99329
2416.86712	0.99355
2414.81021	0.99343
2412.75330	0.99294
2410.69639	0.99250
2408.63948	0.99249
2406.58257	0.99272
2404.52567	0.99306
2402.46876	0.99365
2400.41185	0.99419
2398.35494	0.99411
2396.29803	0.99361
2394.24113	0.99338
2392.18422	0.99351
2390.12731	0.99370
2388.07040	0.99363
2386.01349	0.99328
2383.95658	0.99296
2381.89968	0.99283
2379.84277	0.99312
2377.78586	0.99354
2375.72895	0.99338
2373.67204	0.99306
2371.61514	0.99288
2369.55823	0.99299
2367.50132	0.99398
2365.44441	0.99476
2363.38750	0.99432
2361.33059	0.99355
2359.27369	0.99306
2357.21678	0.99277
2355.15987	0.99217
2353.10296	0.99169
2351.04605	0.99186
2348.98915	0.99219
2346.93224	0.99214
2344.87533	0.99154
2342.81842	0.99148
2340.76151	0.99250
2338.70460	0.99303
2336.64770	0.99268
2334.59079	0.99243
2332.53388	0.99236
2330.47697	0.99215
2328.42006	0.99180
2326.36316	0.99147
2324.30625	0.99138
2322.24934	0.99186
2320.19243	0.99256
2318.13552	0.99260
2316.07861	0.99177
2314.02171	0.99097
2311.96480	0.99115
2309.90789	0.99192
2307.85098	0.99270
2305.79407	0.99299
2303.73717	0.99246
2301.68026	0.99198
2299.62335	0.99222
2297.56644	0.99256
2295.50953	0.99205
2293.45262	0.99107
2291.39572	0.99092
2289.33881	0.99143
2287.28190	0.99158
2285.22499	0.99149
2283.16808	0.99154
2281.11117	0.99185
2279.05427	0.99235
2276.99736	0.99265
2274.94045	0.99250
2272.88354	0.99185
2270.82663	0.99164
2268.76973	0.99275
2266.71282	0.99333
2264.65591	0.99260
2262.59900	0.99270
2260.54209	0.99355
2258.48518	0.99370
2256.42828	0.99327
2254.37137	0.99266
2252.31446	0.99235
2250.25755	0.99295
2248.20064	0.99415
2246.14374	0.99484
2244.08683	0.99470
2242.02992	0.99418
2239.97301	0.99377
2237.91610	0.99341
2235.85919	0.99314
2233.80229	0.99336
2231.74538	0.99354
2229.68847	0.99340
2227.63156	0.99323
2225.57465	0.99348
2223.51775	0.99475
2221.46084	0.99573
2219.40393	0.99516
2217.34702	0.99420
2215.29011	0.99352
2213.23320	0.99342
2211.17630	0.99408
2209.11939	0.99433
2207.06248	0.99391
2205.00557	0.99424
2202.94866	0.99487
2200.89176	0.99451
2198.83485	0.99469
2196.77794	0.99502
2194.72103	0.99394
2192.66412	0.99289
2190.60721	0.99218
2188.55031	0.99165
2186.49340	0.99275
2184.43649	0.99401
2182.37958	0.99320
2180.32267	0.99253
2178.26577	0.99328
2176.20886	0.99384
2174.15195	0.99327
2172.09504	0.99159
2170.03813	0.99145
2167.98122	0.99321
2165.92432	0.99299
2163.86741	0.99132
2161.81050	0.99124
2159.75359	0.99209
2157.69668	0.99296
2155.63978	0.99409
2153.58287	0.99438
2151.52596	0.99428
2149.46905	0.99481
2147.41214	0.99537
2145.35523	0.99560
2143.29833	0.99489
2141.24142	0.99389
2139.18451	0.99362
2137.12760	0.99386
2135.07069	0.99487
2133.01379	0.99541
2130.95688	0.99444
2128.89997	0.99397
2126.84306	0.99486
2124.78615	0.99557
2122.72924	0.99492
2120.67234	0.99308
2118.61543	0.99190
2116.55852	0.99250
2114.50161	0.99333
2112.44470	0.99331
2110.38780	0.99336
2108.33089	0.99377
2106.27398	0.99382
2104.21707	0.99361
2102.16016	0.99329
2100.10325	0.99284
2098.04635	0.99256
2095.98944	0.99294
2093.93253	0.99399
2091.87562	0.99510
2089.81871	0.99522
2087.76181	0.99411
2085.70490	0.99331
2083.64799	0.99319
2081.59108	0.99237
2079.53417	0.99076
2077.47726	0.99006
2075.42036	0.99122
2073.36345	0.99315
2071.30654	0.99387
2069.24963	0.99296
2067.19272	0.99287
2065.13582	0.99438
2063.07891	0.99478
2061.02200	0.99344
2058.96509	0.99302
2056.90818	0.99365
2054.85127	0.99334
2052.79437	0.99293
2050.73746	0.99378
2048.68055	0.99540
2046.62364	0.99642
2044.56673	0.99571
2042.50983	0.99392
2040.45292	0.99351
2038.39601	0.99427
2036.33910	0.99379
2034.28219	0.99381
2032.22528	0.99469
2030.16838	0.99335
2028.11147	0.99138
2026.05456	0.99108
2023.99765	0.99123
2021.94074	0.99153
2019.88384	0.99202
2017.82693	0.99297
2015.77002	0.99456
2013.71311	0.99522
2011.65620	0.99574
2009.59929	0.99728
2007.54239	0.99789
2005.48548	0.99716
2003.42857	0.99683
2001.37166	0.99697
1999.31475	0.99657
1997.25785	0.99534
1995.20094	0.99394
1993.14403	0.99337
1991.08712	0.99472
1989.03021	0.99616
1986.97330	0.99460
1984.91640	0.99143
1982.85949	0.98980
1980.80258	0.99073
1978.74567	0.99323
1976.68876	0.99483
1974.63186	0.99423
1972.57495	0.99372
1970.51804	0.99527
1968.46113	0.99636
1966.40422	0.99469
1964.34731	0.99271
1962.29041	0.99314
1960.23350	0.99522
1958.17659	0.99651
1956.11968	0.99590
1954.06277	0.99467
1952.00587	0.99422
1949.94896	0.99414
1947.89205	0.99383
1945.83514	0.99387
1943.77823	0.99427
1941.72132	0.99442
1939.66442	0.99520
1937.60751	0.99623
1935.55060	0.99597
1933.49369	0.99502
1931.43678	0.99494
1929.37988	0.99580
1927.32297	0.99593
1925.26606	0.99535
1923.20915	0.99575
1921.15224	0.99638
1919.09533	0.99587
1917.03843	0.99491
1914.98152	0.99439
1912.92461	0.99404
1910.86770	0.99360
1908.81079	0.99335
1906.75389	0.99370
1904.69698	0.99417
1902.64007	0.99457
1900.58316	0.99512
1898.52625	0.99539
1896.46934	0.99541
1894.41244	0.99548
1892.35553	0.99512
1890.29862	0.99430
1888.24171	0.99386
1886.18480	0.99399
1884.12790	0.99415
1882.07099	0.99423
1880.01408	0.99425
1877.95717	0.99452
1875.90026	0.99531
1873.84335	0.99582
1871.78645	0.99598
1869.72954	0.99657
1867.67263	0.99687
1865.61572	0.99610
1863.55881	0.99531
1861.50191	0.99498
1859.44500	0.99469
1857.38809	0.99443
1855.33118	0.99448
1853.27427	0.99486
1851.21736	0.99555
1849.16046	0.99607
1847.10355	0.99595
1845.04664	0.99539
1842.98973	0.99496
1840.93282	0.99486
1838.87592	0.99501
1836.81901	0.99517
1834.76210	0.99487
1832.70519	0.99422
1830.64828	0.99394
1828.59137	0.99431
1826.53447	0.99463
1824.47756	0.99445
1822.42065	0.99421
1820.36374	0.99436
1818.30683	0.99471
1816.24993	0.99468
1814.19302	0.99424
1812.13611	0.99411
1810.07920	0.99436
1808.02229	0.99440
1805.96538	0.99408
1803.90848	0.99387
1801.85157	0.99405
1799.79466	0.99439
1797.73775	0.99439
1795.68084	0.99409
1793.62394	0.99364
1791.56703	0.99316
1789.51012	0.99295
1787.45321	0.99295
1785.39630	0.99309
1783.33939	0.99302
1781.28249	0.99253
1779.22558	0.99220
1777.16867	0.99226
1775.11176	0.99226
1773.05485	0.99149
1770.99795	0.98964
1768.94104	0.98773
1766.88413	0.98613
1764.82722	0.98438
1762.77031	0.98186
1760.71340	0.97852
1758.65650	0.97503
1756.59959	0.97125
1754.54268	0.96780
1752.48577	0.96473
1750.42886	0.96097
1748.37196	0.95722
1746.31505	0.95457
1744.25814	0.95241
1742.20123	0.95028
1740.14432	0.94829
1738.08741	0.94710
1736.03051	0.94643
1733.97360	0.94456
1731.91669	0.94267
1729.85978	0.94196
1727.80287	0.94147
1725.74597	0.94160
1723.68906	0.94259
1721.63215	0.94404
1719.57524	0.94570
1717.51833	0.94730
1715.46142	0.94911
1713.40452	0.95147
1711.34761	0.95426
1709.29070	0.95733
1707.23379	0.96046
1705.17688	0.96360
1703.11998	0.96664
1701.06307	0.96974
1699.00616	0.97270
1696.94925	0.97489
1694.89234	0.97651
1692.83543	0.97769
1690.77853	0.97893
1688.72162	0.98033
1686.66471	0.98157
1684.60780	0.98224
1682.55089	0.98214
1680.49399	0.98225
1678.43708	0.98272
1676.38017	0.98318
1674.32326	0.98326
1672.26635	0.98305
1670.20944	0.98286
1668.15254	0.98296
1666.09563	0.98355
1664.03872	0.98423
1661.98181	0.98415
1659.92490	0.98325
1657.86800	0.98275
1655.81109	0.98315
1653.75418	0.98357
1651.69727	0.98272
1649.64036	0.98201
1647.58345	0.98175
1645.52655	0.98176
1643.46964	0.98188
1641.41273	0.98189
1639.35582	0.98199
1637.29891	0.98228
1635.24201	0.98231
1633.18510	0.98218
1631.12819	0.98231
1629.07128	0.98257
1627.01437	0.98290
1624.95746	0.98319
1622.90056	0.98340
1620.84365	0.98376
1618.78674	0.98430
1616.72983	0.98482
1614.67292	0.98529
1612.61602	0.98569
1610.55911	0.98587
1608.50220	0.98598
1606.44529	0.98628
1604.38838	0.98665
1602.33147	0.98705
1600.27457	0.98727
1598.21766	0.98714
1596.16075	0.98710
1594.10384	0.98748
1592.04693	0.98802
1589.99003	0.98854
1587.93312	0.98895
1585.87621	0.98905
1583.81930	0.98897
1581.76239	0.98896
1579.70548	0.98899
1577.64858	0.98883
1575.59167	0.98857
1573.53476	0.98884
1571.47785	0.98941
1569.42094	0.98971
1567.36404	0.98962
1565.30713	0.98950
1563.25022	0.98961
1561.19331	0.99001
1559.13640	0.99023
1557.07949	0.98948
1555.02259	0.98888
1552.96568	0.98899
1550.90877	0.98936
1548.85186	0.98939
1546.79495	0.98931
1544.73805	0.98966
1542.68114	0.99047
1540.62423	0.99114
1538.56732	0.99078
1536.51041	0.99016
1534.45350	0.98989
1532.39660	0.98980
1530.33969	0.98977
1528.28278	0.98972
1526.22587	0.98947
1524.16896	0.98922
1522.11206	0.98926
1520.05515	0.98975
1517.99824	0.99024
1515.94133	0.99009
1513.88442	0.98954
1511.82751	0.98926
1509.77061	0.98945
1507.71370	0.98975
1505.65679	0.98946
1503.59988	0.98919
1501.54297	0.98915
1499.48607	0.98909
1497.42916	0.98896
1495.37225	0.98867
1493.31534	0.98844
1491.25843	0.98834
1489.20152	0.98802
1487.14462	0.98738
1485.08771	0.98679
1483.03080	0.98657
1480.97389	0.98662
1478.91698	0.98649
1476.86008	0.98606
1474.80317	0.98542
1472.74626	0.98432
1470.68935	0.98316
1468.63244	0.98279
1466.57553	0.98264
1464.51863	0.98183
1462.46172	0.98093
1460.40481	0.98046
1458.34790	0.97970
1456.29099	0.97846
1454.23409	0.97770
1452.17718	0.97731
1450.12027	0.97694
1448.06336	0.97642
1446.00645	0.97571
1443.94954	0.97492
1441.89264	0.97398
1439.83573	0.97311
1437.77882	0.97248
1435.72191	0.97180
1433.66500	0.97129
1431.60810	0.97109
1429.55119	0.97096
1427.49428	0.97080
1425.43737	0.97067
1423.38046	0.97076
1421.32355	0.97121
1419.26665	0.97160
1417.20974	0.97152
1415.15283	0.97131
1413.09592	0.97122
1411.03901	0.97135
1408.98211	0.97154
1406.92520	0.97141
1404.86829	0.97110
1402.81138	0.97109
1400.75447	0.97117
1398.69756	0.97074
1396.64066	0.97000
1394.58375	0.96933
1392.52684	0.96870
1390.46993	0.96792
1388.41302	0.96643
1386.35612	0.96421
1384.29921	0.96215
1382.24230	0.96009
1380.18539	0.95770
1378.12848	0.95542
1376.07157	0.95353
1374.01467	0.95174
1371.95776	0.95047
1369.90085	0.95029
1367.84394	0.95092
1365.78703	0.95212
1363.73013	0.95391
1361.67322	0.95622
1359.61631	0.95869
1357.55940	0.96128
1355.50249	0.96400
1353.44558	0.96628
1351.38868	0.96772
1349.33177	0.96864
1347.27486	0.96944
1345.21795	0.97014
1343.16104	0.97053
1341.10414	0.97069
1339.04723	0.97085
1336.99032	0.97115
1334.93341	0.97149
1332.87650	0.97172
1330.81959	0.97191
1328.76269	0.97217
1326.70578	0.97228
1324.64887	0.97213
1322.59196	0.97200
1320.53505	0.97199
1318.47815	0.97209
1316.42124	0.97233
1314.36433	0.97246
1312.30742	0.97244
1310.25051	0.97262
1308.19360	0.97314
1306.13670	0.97339
1304.07979	0.97309
1302.02288	0.97287
1299.96597	0.97298
1297.90906	0.97305
1295.85216	0.97303
1293.79525	0.97288
1291.73834	0.97229
1289.68143	0.97147
1287.62452	0.97071
1285.56761	0.96991
1283.51071	0.96899
1281.45380	0.96812
1279.39689	0.96707
1277.33998	0.96559
1275.28307	0.96397
1273.22617	0.96231
1271.16926	0.96043
1269.11235	0.95850
1267.05544	0.95669
1264.99853	0.95478
1262.94162	0.95251
1260.88472	0.94998
1258.82781	0.94751
1256.77090	0.94508
1254.71399	0.94262
1252.65708	0.94011
1250.60018	0.93765
1248.54327	0.93535
1246.48636	0.93325
1244.42945	0.93118
1242.37254	0.92884
1240.31563	0.92653
1238.25873	0.92479
1236.20182	0.92336
1234.14491	0.92181
1232.08800	0.92029
1230.03109	0.91891
1227.97419	0.91780
1225.91728	0.91747
1223.86037	0.91808
1221.80346	0.91935
1219.74655	0.92117
1217.68964	0.92338
1215.63274	0.92578
1213.57583	0.92849
1211.51892	0.93167
1209.46201	0.93501
1207.40510	0.93801
1205.34820	0.94060
1203.29129	0.94300
1201.23438	0.94535
1199.17747	0.94762
1197.12056	0.94977
1195.06365	0.95168
1193.00675	0.95333
1190.94984	0.95473
1188.89293	0.95569
1186.83602	0.95600
1184.77911	0.95578
1182.72221	0.95535
1180.66530	0.95490
1178.60839	0.95433
1176.55148	0.95311
1174.49457	0.95142
1172.43766	0.95007
1170.38076	0.94896
1168.32385	0.94758
1166.26694	0.94603
1164.21003	0.94458
1162.15312	0.94334
1160.09622	0.94231
1158.03931	0.94165
1155.98240	0.94162
1153.92549	0.94207
1151.86858	0.94253
1149.81167	0.94275
1147.75477	0.94291
1145.69786	0.94317
1143.64095	0.94333
1141.58404	0.94321
1139.52713	0.94275
1137.47023	0.94187
1135.41332	0.94059
1133.35641	0.93917
1131.29950	0.93790
1129.24259	0.93671
1127.18568	0.93541
1125.12878	0.93395
1123.07187	0.93257
1121.01496	0.93144
1118.95805	0.93048
1116.90114	0.92955
1114.84424	0.92852
1112.78733	0.92753
1110.73042	0.92674
1108.67351	0.92595
1106.61660	0.92502
1104.55969	0.92405
1102.50279	0.92303
1100.44588	0.92205
1098.38897	0.92115
1096.33206	0.92006
1094.27515	0.91883
1092.21825	0.91780
1090.16134	0.91699
1088.10443	0.91594
1086.04752	0.91422
1083.99061	0.91212
1081.93370	0.91018
1079.87680	0.90868
1077.81989	0.90756
1075.76298	0.90625
1073.70607	0.90448
1071.64916	0.90249
1069.59226	0.90084
1067.53535	0.89960
1065.47844	0.89829
1063.42153	0.89691
1061.36462	0.89564
1059.30771	0.89430
1057.25081	0.89291
1055.19390	0.89166
1053.13699	0.89045
1051.08008	0.88918
1049.02317	0.88789
1046.96627	0.88651
1044.90936	0.88513
1042.85245	0.88419
1040.79554	0.88339
1038.73863	0.88231
1036.68172	0.88114
1034.62482	0.87975
1032.56791	0.87826
1030.51100	0.87710
1028.45409	0.87642
1026.39718	0.87618
1024.34028	0.87607
1022.28337	0.87589
1020.22646	0.87584
1018.16955	0.87611
1016.11264	0.87673
1014.05573	0.87769
1011.99883	0.87896
1009.94192	0.88018
1007.88501	0.88111
1005.82810	0.88215
1003.77119	0.88347
1001.71429	0.88463
999.65738	0.88545
997.60047	0.88635
995.54356	0.88769
993.48665	0.88916
991.42974	0.89054
989.37284	0.89217
987.31593	0.89406
985.25902	0.89569
983.20211	0.89707
981.14520	0.89854
979.08830	0.90011
977.03139	0.90195
974.97448	0.90436
972.91757	0.90684
970.86066	0.90863
968.80375	0.91015
966.74685	0.91222
964.68994	0.91472
962.63303	0.91706
960.57612	0.91911
958.51921	0.92095
956.46231	0.92247
954.40540	0.92400
952.34849	0.92565
950.29158	0.92712
948.23467	0.92833
946.17776	0.92937
944.12086	0.93051
942.06395	0.93175
940.00704	0.93254
937.95013	0.93274
935.89322	0.93297
933.83632	0.93347
931.77941	0.93401
929.72250	0.93443
927.66559	0.93466
925.60868	0.93477
923.55177	0.93478
921.49487	0.93477
919.43796	0.93489
917.38105	0.93491
915.32414	0.93493
913.26723	0.93506
911.21033	0.93462
909.15342	0.93377
907.09651	0.93330
905.03960	0.93284
902.98269	0.93205
900.92578	0.93176
898.86888	0.93258
896.81197	0.93356
894.75506	0.93389
892.69815	0.93425
890.64124	0.93512
888.58434	0.93609
886.52743	0.93703
884.47052	0.93812
882.41361	0.93938
880.35670	0.94075
878.29979	0.94217
876.24289	0.94377
874.18598	0.94557
872.12907	0.94741
870.07216	0.94905
868.01525	0.95030
865.95835	0.95113
863.90144	0.95194
861.84453	0.95304
859.78762	0.95427
857.73071	0.95552
855.67380	0.95652
853.61690	0.95709
851.55999	0.95717
849.50308	0.95653
847.44617	0.95545
845.38926	0.95527
843.33236	0.95594
841.27545	0.95577
839.21854	0.95511
837.16163	0.95563
835.10472	0.95664
833.04781	0.95653
830.99091	0.95591
828.93400	0.95565
826.87709	0.95539
824.82018	0.95520
822.76327	0.95528
820.70637	0.95541
818.64946	0.95533
816.59255	0.95538
814.53564	0.95599
812.47873	0.95645
810.42182	0.95622
808.36492	0.95592
806.30801	0.95619
804.25110	0.95661
802.19419	0.95659
800.13728	0.95686
798.08038	0.95751
796.02347	0.95749
793.96656	0.95710
791.90965	0.95700
789.85274	0.95676
787.79583	0.95632
785.73893	0.95630
783.68202	0.95678
781.62511	0.95719
779.56820	0.95743
777.51129	0.95822
775.45439	0.95928
773.39748	0.95971
771.34057	0.95972
769.28366	0.95987
767.22675	0.96029
765.16984	0.96044
763.11294	0.96006
761.05603	0.95979
758.99912	0.95989
756.94221	0.96001
754.88530	0.96014
752.82839	0.96017
750.77149	0.95980
748.71458	0.95975
746.65767	0.96063
744.60076	0.96119
742.54385	0.96077
740.48695	0.96007
738.43004	0.95924
736.37313	0.95828
734.31622	0.95783
732.25931	0.95817
730.20240	0.95851
728.14550	0.95858
726.08859	0.95876
724.03168	0.95861
721.97477	0.95786
719.91786	0.95730
717.86096	0.95664
715.80405	0.95556
713.74714	0.95504
711.69023	0.95522
709.63332	0.95559
707.57641	0.95540
705.51951	0.95479
703.46260	0.95468
701.40569	0.95456
699.34878	0.95367
697.29187	0.95286
695.23497	0.95239
693.17806	0.95151
691.12115	0.95090
689.06424	0.95106
687.00733	0.95096
684.95042	0.94988
682.89352	0.94884
680.83661	0.94892
678.77970	0.94964
676.72279	0.94995
674.66588	0.94939
672.60898	0.94872
670.55207	0.94855
668.49516	0.94745
666.43825	0.94603
664.38134	0.94665
662.32443	0.94786
660.26753	0.94822
658.21062	0.94784
656.15371	0.94732
654.09680	0.94674
652.03989	0.94606
649.98299	0.94536
647.92608	0.94426
645.86917	0.94280
643.81226	0.94235
641.75535	0.94304
639.69844	0.94329
637.64154	0.94292
635.58463	0.94244
633.52772	0.94149
631.47081	0.93997
629.41390	0.93921
627.35700	0.93984
625.30009	0.94021
623.24318	0.93977
621.18627	0.93923
619.12936	0.93864
617.07245	0.93755
615.01555	0.93614
612.95864	0.93510
610.90173	0.93441
608.84482	0.93387
606.78791	0.93280
604.73101	0.93075
602.67410	0.92920
600.61719	0.92950
598.56028	0.93076
596.50337	0.93145
594.44646	0.93123
592.38956	0.93117
590.33265	0.93181
588.27574	0.93270
586.21883	0.93304
584.16192	0.93205
582.10502	0.93077
580.04811	0.93114
577.99120	0.93267
575.93429	0.93246
573.87738	0.93027
571.82047	0.92959
569.76357	0.93090
567.70666	0.93105
565.64975	0.92926
563.59284	0.92744
561.53593	0.92681
559.47903	0.92758
557.42212	0.92843
555.36521	0.92803
553.30830	0.92726
551.25139	0.92705
549.19448	0.92743
547.13758	0.92813
545.08067	0.92785
543.02376	0.92697
540.96685	0.92707
538.90994	0.92743
536.85304	0.92725
534.79613	0.92641
532.73922	0.92510
530.68231	0.92421
528.62540	0.92425
526.56849	0.92570
524.51159	0.92777
522.45468	0.92707
520.39777	0.92397
518.34086	0.92227
516.28395	0.92171
514.22705	0.92131
512.17014	0.92098
510.11323	0.91961
508.05632	0.91792
505.99941	0.91680
503.94250	0.91591
501.88560	0.91510
499.82869	0.91443
497.77178	0.91319
495.71487	0.91183
493.65796	0.91102
491.60106	0.90996
489.54415	0.90975
487.48724	0.91061
485.43033	0.90954
483.37342	0.90723
481.31651	0.90738
479.25961	0.90757
477.20270	0.90507
475.14579	0.90295
473.08888	0.90272
471.03197	0.90280
468.97507	0.90144
466.91816	0.89981
464.86125	0.90059
462.80434	0.90155
460.74743	0.90053
458.69052	0.89950
456.63362	0.89721
454.57671	0.89365
452.51980	0.89362
450.46289	0.89627
448.40598	0.89665
446.34908	0.89598
444.29217	0.89760
442.23526	0.89937
440.17835	0.89954
438.12144	0.89926
436.06453	0.89895
434.00763	0.89957
431.95072	0.89952
429.89381	0.89743
427.83690	0.89597
425.77999	0.89586
423.72309	0.89449
421.66618	0.89176
419.60927	0.89225
417.55236	0.89608
415.49545	0.89765
413.43854	0.89809
411.38164	0.89863
409.32473	0.89813
407.26782	0.89684
405.21091	0.89818
403.15400	0.90405
401.09710	0.90940
399.04019	0.90917
