3996.57260	0.98789
3994.51569	0.98812
3992.45878	0.98846
3990.40188	0.98891
3988.34497	0.98925
3986.28806	0.98908
3984.23115	0.98860
3982.17424	0.98842
3980.11733	0.98860
3978.06043	0.98890
3976.00352	0.98955
3973.94661	0.99037
3971.88970	0.99059
3969.83279	0.98995
3967.77589	0.98887
3965.71898	0.98835
3963.66207	0.98875
3961.60516	0.98952
3959.54825	0.98991
3957.49134	0.98945
3955.43444	0.98866
3953.37753	0.98870
3951.32062	0.98950
3949.26371	0.98982
3947.20680	0.98963
3945.14990	0.98933
3943.09299	0.98902
3941.03608	0.98909
3938.97917	0.98897
3936.92226	0.98843
3934.86535	0.98841
3932.80845	0.98914
3930.75154	0.98982
3928.69463	0.98997
3926.63772	0.98964
3924.58081	0.98933
3922.52391	0.98952
3920.46700	0.98941
3918.41009	0.98870
3916.35318	0.98837
3914.29627	0.98845
3912.23936	0.98850
3910.18246	0.98839
3908.12555	0.98845
3906.06864	0.98883
3904.01173	0.98925
3901.95482	0.98956
3899.89792	0.98958
3897.84101	0.98962
3895.78410	0.98960
3893.72719	0.98923
3891.67028	0.98909
3889.61337	0.98944
3887.55647	0.98956
3885.49956	0.98919
3883.44265	0.98863
3881.38574	0.98865
3879.32883	0.98944
3877.27193	0.99000
3875.21502	0.99014
3873.15811	0.98973
3871.10120	0.98875
3869.04429	0.98855
3866.98738	0.98923
3864.93048	0.98955
3862.87357	0.98934
3860.81666	0.98924
3858.75975	0.98956
3856.70284	0.98970
3854.64594	0.98877
3852.58903	0.98811
3850.53212	0.98939
3848.47521	0.99011
3846.41830	0.98972
3844.36139	0.98950
3842.30449	0.98989
3840.24758	0.98971
3838.19067	0.98851
3836.13376	0.98803
3834.07685	0.98862
3832.01995	0.98937
3829.96304	0.98987
3827.90613	0.98995
3825.84922	0.98979
3823.79231	0.98952
3821.73540	0.98901
3819.67850	0.98830
3817.62159	0.98792
3815.56468	0.98798
3813.50777	0.98846
3811.45086	0.98928
3809.39396	0.98979
3807.33705	0.98957
3805.28014	0.98922
3803.22323	0.98924
3801.16632	0.98943
3799.10941	0.98932
3797.05251	0.98934
3794.99560	0.98968
3792.93869	0.98955
3790.88178	0.98910
3788.82487	0.98923
3786.76796	0.98971
3784.71106	0.98978
3782.65415	0.98946
3780.59724	0.98928
3778.54033	0.98933
3776.48342	0.98931
3774.42652	0.98914
3772.36961	0.98901
3770.31270	0.98928
3768.25579	0.98974
3766.19888	0.99012
3764.14197	0.99060
3762.08507	0.99042
3760.02816	0.98891
3757.97125	0.98744
3755.91434	0.98750
3753.85743	0.98826
3751.80053	0.98907
3749.74362	0.98979
3747.68671	0.98967
3745.62980	0.98875
3743.57289	0.98862
3741.51598	0.98962
3739.45908	0.99015
3737.40217	0.98975
3735.34526	0.98925
3733.28835	0.98988
3731.23144	0.99060
3729.17454	0.99076
3727.11763	0.99034
3725.06072	0.98944
3723.00381	0.98935
3720.94690	0.99003
3718.88999	0.99021
3716.83309	0.98993
3714.77618	0.98979
3712.71927	0.99015
3710.66236	0.99110
3708.60545	0.99135
3706.54855	0.99075
3704.49164	0.99049
3702.43473	0.99041
3700.37782	0.99011
3698.32091	0.99008
3696.26400	0.98993
3694.20710	0.98960
3692.15019	0.98972
3690.09328	0.98976
3688.03637	0.98964
3685.97946	0.98997
3683.92256	0.99011
3681.86565	0.98998
3679.80874	0.99055
3677.75183	0.99212
3675.69492	0.99276
3673.63801	0.99151
3671.58111	0.99058
3669.52420	0.99021
3667.46729	0.98981
3665.41038	0.98950
3663.35347	0.98924
3661.29657	0.98946
3659.23966	0.99055
3657.18275	0.99147
3655.12584	0.99137
3653.06893	0.99130
3651.01202	0.99175
3648.95512	0.99139
3646.89821	0.99000
3644.84130	0.98910
3642.78439	0.98885
3640.72748	0.98885
3638.67058	0.98881
3636.61367	0.98882
3634.55676	0.98854
3632.49985	0.98791
3630.44294	0.98767
3628.38603	0.98815
3626.32913	0.98891
3624.27222	0.98939
3622.21531	0.98897
3620.15840	0.98791
3618.10149	0.98732
3616.04459	0.98729
3613.98768	0.98729
3611.93077	0.98703
3609.87386	0.98711
3607.81695	0.98815
3605.76004	0.98915
3603.70314	0.98924
3601.64623	0.98859
3599.58932	0.98785
3597.53241	0.98738
3595.47550	0.98714
3593.41860	0.98710
3591.36169	0.98726
3589.30478	0.98766
3587.24787	0.98761
3585.19096	0.98717
3583.13405	0.98723
3581.07715	0.98700
3579.02024	0.98627
3576.96333	0.98557
3574.90642	0.98488
3572.84951	0.98461
3570.79261	0.98505
3568.73570	0.98537
3566.67879	0.98534
3564.62188	0.98560
3562.56497	0.98585
3560.50806	0.98584
3558.45116	0.98560
3556.39425	0.98502
3554.33734	0.98408
3552.28043	0.98362
3550.22352	0.98391
3548.16662	0.98383
3546.10971	0.98323
3544.05280	0.98278
3541.99589	0.98260
3539.93898	0.98256
3537.88207	0.98267
3535.82517	0.98262
3533.76826	0.98208
3531.71135	0.98156
3529.65444	0.98124
3527.59753	0.98074
3525.54063	0.98024
3523.48372	0.97974
3521.42681	0.97928
3519.36990	0.97910
3517.31299	0.97893
3515.25608	0.97872
3513.19918	0.97862
3511.14227	0.97857
3509.08536	0.97849
3507.02845	0.97844
3504.97154	0.97874
3502.91464	0.97873
3500.85773	0.97764
3498.80082	0.97655
3496.74391	0.97636
3494.68700	0.97638
3492.63009	0.97610
3490.57319	0.97636
3488.51628	0.97708
3486.45937	0.97713
3484.40246	0.97655
3482.34555	0.97569
3480.28865	0.97506
3478.23174	0.97496
3476.17483	0.97492
3474.11792	0.97469
3472.06101	0.97421
3470.00410	0.97363
3467.94720	0.97350
3465.89029	0.97381
3463.83338	0.97379
3461.77647	0.97332
3459.71956	0.97282
3457.66266	0.97251
3455.60575	0.97250
3453.54884	0.97265
3451.49193	0.97260
3449.43502	0.97217
3447.37811	0.97187
3445.32121	0.97203
3443.26430	0.97202
3441.20739	0.97195
3439.15048	0.97186
3437.09357	0.97104
3435.03667	0.97059
3432.97976	0.97140
3430.92285	0.97183
3428.86594	0.97153
3426.80903	0.97145
3424.75212	0.97170
3422.69522	0.97210
3420.63831	0.97207
3418.58140	0.97158
3416.52449	0.97154
3414.46758	0.97193
3412.41068	0.97224
3410.35377	0.97207
3408.29686	0.97150
3406.23995	0.97127
3404.18304	0.97138
3402.12613	0.97122
3400.06923	0.97095
3398.01232	0.97058
3395.95541	0.97015
3393.89850	0.97001
3391.84159	0.97026
3389.78469	0.97083
3387.72778	0.97135
3385.67087	0.97140
3383.61396	0.97081
3381.55705	0.97010
3379.50014	0.96978
3377.44324	0.96982
3375.38633	0.97039
3373.32942	0.97104
3371.27251	0.97129
3369.21560	0.97147
3367.15870	0.97173
3365.10179	0.97196
3363.04488	0.97202
3360.98797	0.97176
3358.93106	0.97142
3356.87415	0.97146
3354.81725	0.97189
3352.76034	0.97206
3350.70343	0.97191
3348.64652	0.97180
3346.58961	0.97188
3344.53271	0.97221
3342.47580	0.97247
3340.41889	0.97247
3338.36198	0.97232
3336.30507	0.97242
3334.24816	0.97291
3332.19126	0.97331
3330.13435	0.97322
3328.07744	0.97240
3326.02053	0.97166
3323.96362	0.97181
3321.90672	0.97226
3319.84981	0.97256
3317.79290	0.97282
3315.73599	0.97272
3313.67908	0.97252
3311.62217	0.97279
3309.56527	0.97320
3307.50836	0.97354
3305.45145	0.97365
3303.39454	0.97331
3301.33763	0.97306
3299.28073	0.97321
3297.22382	0.97342
3295.16691	0.97347
3293.11000	0.97373
3291.05309	0.97454
3288.99618	0.97497
3286.93928	0.97452
3284.88237	0.97443
3282.82546	0.97509
3280.76855	0.97505
3278.71164	0.97438
3276.65474	0.97431
3274.59783	0.97463
3272.54092	0.97457
3270.48401	0.97415
3268.42710	0.97425
3266.37019	0.97498
3264.31329	0.97531
3262.25638	0.97498
3260.19947	0.97466
3258.14256	0.97472
3256.08565	0.97490
3254.02875	0.97496
3251.97184	0.97502
3249.91493	0.97501
3247.85802	0.97488
3245.80111	0.97522
3243.74420	0.97601
3241.68730	0.97648
3239.63039	0.97649
3237.57348	0.97655
3235.51657	0.97684
3233.45966	0.97684
3231.40276	0.97656
3229.34585	0.97662
3227.28894	0.97693
3225.23203	0.97722
3223.17512	0.97736
3221.11821	0.97716
3219.06131	0.97721
3217.00440	0.97785
3214.94749	0.97840
3212.89058	0.97827
3210.83367	0.97788
3208.77677	0.97795
3206.71986	0.97818
3204.66295	0.97825
3202.60604	0.97849
3200.54913	0.97892
3198.49222	0.97908
3196.43532	0.97921
3194.37841	0.97968
3192.32150	0.97984
3190.26459	0.97934
3188.20768	0.97886
3186.15078	0.97899
3184.09387	0.97950
3182.03696	0.97980
3179.98005	0.97965
3177.92314	0.97964
3175.86623	0.98000
3173.80933	0.98008
3171.75242	0.97997
3169.69551	0.98016
3167.63860	0.98055
3165.58169	0.98084
3163.52479	0.98086
3161.46788	0.98045
3159.41097	0.97990
3157.35406	0.97959
3155.29715	0.97974
3153.24024	0.98000
3151.18334	0.98031
3149.12643	0.98093
3147.06952	0.98109
3145.01261	0.98086
3142.95570	0.98079
3140.89880	0.98062
3138.84189	0.98046
3136.78498	0.98053
3134.72807	0.98074
3132.67116	0.98103
3130.61425	0.98108
3128.55735	0.98097
3126.50044	0.98124
3124.44353	0.98186
3122.38662	0.98230
3120.32971	0.98243
3118.27281	0.98263
3116.21590	0.98297
3114.15899	0.98323
3112.10208	0.98323
3110.04517	0.98301
3107.98826	0.98290
3105.93136	0.98278
3103.87445	0.98271
3101.81754	0.98300
3099.76063	0.98321
3097.70372	0.98303
3095.64682	0.98295
3093.58991	0.98312
3091.53300	0.98330
3089.47609	0.98362
3087.41918	0.98402
3085.36227	0.98397
3083.30537	0.98366
3081.24846	0.98382
3079.19155	0.98406
3077.13464	0.98380
3075.07773	0.98350
3073.02083	0.98367
3070.96392	0.98397
3068.90701	0.98400
3066.85010	0.98379
3064.79319	0.98349
3062.73628	0.98356
3060.67938	0.98395
3058.62247	0.98412
3056.56556	0.98414
3054.50865	0.98415
3052.45174	0.98411
3050.39484	0.98409
3048.33793	0.98411
3046.28102	0.98423
3044.22411	0.98441
3042.16720	0.98439
3040.11029	0.98407
3038.05339	0.98375
3035.99648	0.98373
3033.93957	0.98412
3031.88266	0.98464
3029.82575	0.98485
3027.76885	0.98493
3025.71194	0.98491
3023.65503	0.98446
3021.59812	0.98385
3019.54121	0.98370
3017.48430	0.98419
3015.42740	0.98489
3013.37049	0.98507
3011.31358	0.98483
3009.25667	0.98475
3007.19976	0.98464
3005.14286	0.98433
3003.08595	0.98427
3001.02904	0.98465
2998.97213	0.98489
2996.91522	0.98475
2994.85831	0.98471
2992.80141	0.98480
2990.74450	0.98457
2988.68759	0.98423
2986.63068	0.98420
2984.57377	0.98433
2982.51687	0.98443
2980.45996	0.98441
2978.40305	0.98435
2976.34614	0.98425
2974.28923	0.98380
2972.23232	0.98326
2970.17542	0.98319
2968.11851	0.98342
2966.06160	0.98369
2964.00469	0.98379
2961.94778	0.98342
2959.89088	0.98291
2957.83397	0.98244
2955.77706	0.98211
2953.72015	0.98209
2951.66324	0.98218
2949.60633	0.98217
2947.54943	0.98215
2945.49252	0.98206
2943.43561	0.98173
2941.37870	0.98116
2939.32179	0.98066
2937.26489	0.98038
2935.20798	0.98012
2933.15107	0.97977
2931.09416	0.97957
2929.03725	0.97966
2926.98034	0.97948
2924.92344	0.97897
2922.86653	0.97879
2920.80962	0.97917
2918.75271	0.97977
2916.69580	0.97998
2914.63890	0.97964
2912.58199	0.97909
2910.52508	0.97880
2908.46817	0.97896
2906.41126	0.97938
2904.35435	0.97961
2902.29745	0.97948
2900.24054	0.97923
2898.18363	0.97895
2896.12672	0.97860
2894.06981	0.97837
2892.01291	0.97819
2889.95600	0.97788
2887.89909	0.97764
2885.84218	0.97787
2883.78527	0.97848
2881.72836	0.97856
2879.67146	0.97797
2877.61455	0.97784
2875.55764	0.97835
2873.50073	0.97862
2871.44382	0.97872
2869.38692	0.97887
2867.33001	0.97886
2865.27310	0.97918
2863.21619	0.97978
2861.15928	0.97995
2859.10237	0.97976
2857.04547	0.97979
2854.98856	0.97998
2852.93165	0.98009
2850.87474	0.98034
2848.81783	0.98071
2846.76093	0.98103
2844.70402	0.98121
2842.64711	0.98136
2840.59020	0.98170
2838.53329	0.98182
2836.47638	0.98161
2834.41948	0.98145
2832.36257	0.98154
2830.30566	0.98186
2828.24875	0.98215
2826.19184	0.98231
2824.13494	0.98260
2822.07803	0.98290
2820.02112	0.98283
2817.96421	0.98267
2815.90730	0.98271
2813.85039	0.98271
2811.79349	0.98277
2809.73658	0.98310
2807.67967	0.98334
2805.62276	0.98313
2803.56585	0.98288
2801.50895	0.98333
2799.45204	0.98408
2797.39513	0.98415
2795.33822	0.98384
2793.28131	0.98359
2791.22440	0.98340
2789.16750	0.98364
2787.11059	0.98405
2785.05368	0.98394
2782.99677	0.98374
2780.93986	0.98390
2778.88296	0.98415
2776.82605	0.98422
2774.76914	0.98418
2772.71223	0.98398
2770.65532	0.98377
2768.59841	0.98386
2766.54151	0.98406
2764.48460	0.98397
2762.42769	0.98373
2760.37078	0.98371
2758.31387	0.98384
2756.25697	0.98405
2754.20006	0.98445
2752.14315	0.98498
2750.08624	0.98525
2748.02933	0.98511
2745.97242	0.98488
2743.91552	0.98477
2741.85861	0.98453
2739.80170	0.98413
2737.74479	0.98389
2735.68788	0.98377
2733.63098	0.98399
2731.57407	0.98450
2729.51716	0.98461
2727.46025	0.98439
2725.40334	0.98418
2723.34643	0.98403
2721.28953	0.98408
2719.23262	0.98431
2717.17571	0.98454
2715.11880	0.98468
2713.06189	0.98481
2711.00499	0.98484
2708.94808	0.98474
2706.89117	0.98482
2704.83426	0.98477
2702.77735	0.98467
2700.72044	0.98500
2698.66354	0.98511
2696.60663	0.98467
2694.54972	0.98452
2692.49281	0.98473
2690.43590	0.98460
2688.37900	0.98420
2686.32209	0.98414
2684.26518	0.98434
2682.20827	0.98454
2680.15136	0.98477
2678.09445	0.98498
2676.03755	0.98511
2673.98064	0.98508
2671.92373	0.98491
2669.86682	0.98483
2667.80991	0.98501
2665.75301	0.98511
2663.69610	0.98479
2661.63919	0.98432
2659.58228	0.98414
2657.52537	0.98436
2655.46846	0.98467
2653.41156	0.98475
2651.35465	0.98470
2649.29774	0.98462
2647.24083	0.98432
2645.18392	0.98416
2643.12702	0.98460
2641.07011	0.98523
2639.01320	0.98541
2636.95629	0.98509
2634.89938	0.98464
2632.84247	0.98429
2630.78557	0.98401
2628.72866	0.98396
2626.67175	0.98441
2624.61484	0.98475
2622.55793	0.98459
2620.50103	0.98443
2618.44412	0.98429
2616.38721	0.98414
2614.33030	0.98418
2612.27339	0.98436
2610.21648	0.98476
2608.15958	0.98526
2606.10267	0.98565
2604.04576	0.98582
2601.98885	0.98548
2599.93194	0.98501
2597.87504	0.98502
2595.81813	0.98515
2593.76122	0.98503
2591.70431	0.98505
2589.64740	0.98543
2587.59049	0.98576
2585.53359	0.98557
2583.47668	0.98513
2581.41977	0.98491
2579.36286	0.98502
2577.30595	0.98563
2575.24905	0.98637
2573.19214	0.98659
2571.13523	0.98632
2569.07832	0.98590
2567.02141	0.98575
2564.96450	0.98552
2562.90760	0.98516
2560.85069	0.98556
2558.79378	0.98640
2556.73687	0.98671
2554.67996	0.98630
2552.62306	0.98560
2550.56615	0.98547
2548.50924	0.98607
2546.45233	0.98682
2544.39542	0.98713
2542.33851	0.98653
2540.28161	0.98559
2538.22470	0.98539
2536.16779	0.98547
2534.11088	0.98554
2532.05397	0.98585
2529.99707	0.98607
2527.94016	0.98628
2525.88325	0.98640
2523.82634	0.98644
2521.76943	0.98635
2519.71252	0.98610
2517.65562	0.98629
2515.59871	0.98670
2513.54180	0.98665
2511.48489	0.98647
2509.42798	0.98647
2507.37108	0.98636
2505.31417	0.98626
2503.25726	0.98608
2501.20035	0.98560
2499.14344	0.98561
2497.08653	0.98639
2495.02963	0.98675
2492.97272	0.98642
2490.91581	0.98650
2488.85890	0.98664
2486.80199	0.98580
2484.74509	0.98501
2482.68818	0.98534
2480.63127	0.98634
2478.57436	0.98717
2476.51745	0.98720
2474.46054	0.98639
2472.40364	0.98560
2470.34673	0.98569
2468.28982	0.98633
2466.23291	0.98669
2464.17600	0.98657
2462.11910	0.98637
2460.06219	0.98619
2458.00528	0.98603
2455.94837	0.98598
2453.89146	0.98569
2451.83455	0.98525
2449.77765	0.98532
2447.72074	0.98600
2445.66383	0.98663
2443.60692	0.98677
2441.55001	0.98647
2439.49311	0.98608
2437.43620	0.98593
2435.37929	0.98596
2433.32238	0.98596
2431.26547	0.98570
2429.20856	0.98569
2427.15166	0.98645
2425.09475	0.98710
2423.03784	0.98697
2420.98093	0.98700
2418.92402	0.98750
2416.86712	0.98758
2414.81021	0.98705
2412.75330	0.98658
2410.69639	0.98656
2408.63948	0.98648
2406.58257	0.98637
2404.52567	0.98670
2402.46876	0.98692
2400.41185	0.98689
2398.35494	0.98708
2396.29803	0.98758
2394.24113	0.98808
2392.18422	0.98795
2390.12731	0.98740
2388.07040	0.98738
2386.01349	0.98791
2383.95658	0.98825
2381.89968	0.98830
2379.84277	0.98803
2377.78586	0.98728
2375.72895	0.98653
2373.67204	0.98684
2371.61514	0.98803
2369.55823	0.98829
2367.50132	0.98738
2365.44441	0.98681
2363.38750	0.98679
2361.33059	0.98714
2359.27369	0.98798
2357.21678	0.98802
2355.15987	0.98731
2353.10296	0.98738
2351.04605	0.98757
2348.98915	0.98739
2346.93224	0.98720
2344.87533	0.98699
2342.81842	0.98674
2340.76151	0.98684
2338.70460	0.98695
2336.64770	0.98630
2334.59079	0.98540
2332.53388	0.98513
2330.47697	0.98593
2328.42006	0.98668
2326.36316	0.98651
2324.30625	0.98636
2322.24934	0.98630
2320.19243	0.98574
2318.13552	0.98546
2316.07861	0.98603
2314.02171	0.98646
2311.96480	0.98632
2309.90789	0.98610
2307.85098	0.98598
2305.79407	0.98584
2303.73717	0.98575
2301.68026	0.98612
2299.62335	0.98700
2297.56644	0.98739
2295.50953	0.98680
2293.45262	0.98613
2291.39572	0.98595
2289.33881	0.98630
2287.28190	0.98646
2285.22499	0.98587
2283.16808	0.98534
2281.11117	0.98543
2279.05427	0.98612
2276.99736	0.98703
2274.94045	0.98758
2272.88354	0.98742
2270.82663	0.98663
2268.76973	0.98661
2266.71282	0.98791
2264.65591	0.98835
2262.59900	0.98756
2260.54209	0.98747
2258.48518	0.98786
2256.42828	0.98783
2254.37137	0.98786
2252.31446	0.98798
2250.25755	0.98756
2248.20064	0.98701
2246.14374	0.98758
2244.08683	0.98888
2242.02992	0.98867
2239.97301	0.98739
2237.91610	0.98746
2235.85919	0.98856
2233.80229	0.98907
2231.74538	0.98869
2229.68847	0.98808
2227.63156	0.98870
2225.57465	0.99027
2223.51775	0.99090
2221.46084	0.99085
2219.40393	0.99067
2217.34702	0.98929
2215.29011	0.98768
2213.23320	0.98824
2211.17630	0.98992
2209.11939	0.99063
2207.06248	0.99047
2205.00557	0.99024
2202.94866	0.98980
2200.89176	0.98811
2198.83485	0.98646
2196.77794	0.98618
2194.72103	0.98701
2192.66412	0.98834
2190.60721	0.98865
2188.55031	0.98870
2186.49340	0.99002
2184.43649	0.99113
2182.37958	0.98990
2180.32267	0.98738
2178.26577	0.98661
2176.20886	0.98705
2174.15195	0.98640
2172.09504	0.98582
2170.03813	0.98640
2167.98122	0.98606
2165.92432	0.98558
2163.86741	0.98681
2161.81050	0.98900
2159.75359	0.99195
2157.69668	0.99352
2155.63978	0.99352
2153.58287	0.99363
2151.52596	0.99311
2149.46905	0.99239
2147.41214	0.99145
2145.35523	0.99002
2143.29833	0.99012
2141.24142	0.99134
2139.18451	0.99180
2137.12760	0.99140
2135.07069	0.99085
2133.01379	0.99149
2130.95688	0.99210
2128.89997	0.99134
2126.84306	0.99050
2124.78615	0.99020
2122.72924	0.99028
2120.67234	0.98978
2118.61543	0.98845
2116.55852	0.98811
2114.50161	0.98888
2112.44470	0.98927
2110.38780	0.98942
2108.33089	0.98965
2106.27398	0.98936
2104.21707	0.98863
2102.16016	0.98793
2100.10325	0.98764
2098.04635	0.98819
2095.98944	0.98952
2093.93253	0.99010
2091.87562	0.98972
2089.81871	0.98958
2087.76181	0.98961
2085.70490	0.98907
2083.64799	0.98789
2081.59108	0.98725
2079.53417	0.98751
2077.47726	0.98827
2075.42036	0.98908
2073.36345	0.98921
2071.30654	0.98901
2069.24963	0.98838
2067.19272	0.98721
2065.13582	0.98672
2063.07891	0.98718
2061.02200	0.98781
2058.96509	0.98805
2056.90818	0.98823
2054.85127	0.98889
2052.79437	0.98866
2050.73746	0.98718
2048.68055	0.98636
2046.62364	0.98716
2044.56673	0.98897
2042.50983	0.99102
2040.45292	0.99196
2038.39601	0.98970
2036.33910	0.98688
2034.28219	0.98764
2032.22528	0.99025
2030.16838	0.99298
2028.11147	0.99522
2026.05456	0.99505
2023.99765	0.99323
2021.94074	0.99102
2019.88384	0.98855
2017.82693	0.98660
2015.77002	0.98614
2013.71311	0.98777
2011.65620	0.98977
2009.59929	0.99045
2007.54239	0.99101
2005.48548	0.99159
2003.42857	0.99118
2001.37166	0.99113
1999.31475	0.99164
1997.25785	0.99108
1995.20094	0.98996
1993.14403	0.98921
1991.08712	0.98908
1989.03021	0.98922
1986.97330	0.98823
1984.91640	0.98711
1982.85949	0.98750
1980.80258	0.98816
1978.74567	0.98864
1976.68876	0.99019
1974.63186	0.99178
1972.57495	0.99126
1970.51804	0.98904
1968.46113	0.98805
1966.40422	0.98886
1964.34731	0.98920
1962.29041	0.98984
1960.23350	0.99198
1958.17659	0.99300
1956.11968	0.99198
1954.06277	0.99168
1952.00587	0.99245
1949.94896	0.99218
1947.89205	0.99121
1945.83514	0.99061
1943.77823	0.99075
1941.72132	0.99205
1939.66442	0.99248
1937.60751	0.99137
1935.55060	0.99061
1933.49369	0.99039
1931.43678	0.99012
1929.37988	0.99030
1927.32297	0.99061
1925.26606	0.98992
1923.20915	0.98925
1921.15224	0.98962
1919.09533	0.98946
1917.03843	0.98870
1914.98152	0.98914
1912.92461	0.99034
1910.86770	0.99080
1908.81079	0.99040
1906.75389	0.99025
1904.69698	0.99061
1902.64007	0.99061
1900.58316	0.99006
1898.52625	0.99001
1896.46934	0.99064
1894.41244	0.99075
1892.35553	0.99021
1890.29862	0.98986
1888.24171	0.98960
1886.18480	0.98908
1884.12790	0.98885
1882.07099	0.98907
1880.01408	0.98942
1877.95717	0.98988
1875.90026	0.99020
1873.84335	0.99017
1871.78645	0.98992
1869.72954	0.98978
1867.67263	0.99031
1865.61572	0.99087
1863.55881	0.99060
1861.50191	0.98972
1859.44500	0.98889
1857.38809	0.98883
1855.33118	0.98961
1853.27427	0.99017
1851.21736	0.98999
1849.16046	0.98972
1847.10355	0.98939
1845.04664	0.98856
1842.98973	0.98817
1840.93282	0.98903
1838.87592	0.99001
1836.81901	0.99015
1834.76210	0.98986
1832.70519	0.98994
1830.64828	0.99023
1828.59137	0.99013
1826.53447	0.98980
1824.47756	0.98948
1822.42065	0.98906
1820.36374	0.98891
1818.30683	0.98927
1816.24993	0.98979
1814.19302	0.99010
1812.13611	0.99005
1810.07920	0.98982
1808.02229	0.98950
1805.96538	0.98889
1803.90848	0.98832
1801.85157	0.98852
1799.79466	0.98955
1797.73775	0.99041
1795.68084	0.99067
1793.62394	0.99047
1791.56703	0.98994
1789.51012	0.98971
1787.45321	0.99002
1785.39630	0.99029
1783.33939	0.98987
1781.28249	0.98911
1779.22558	0.98879
1777.16867	0.98891
1775.11176	0.98901
1773.05485	0.98873
1770.99795	0.98788
1768.94104	0.98705
1766.88413	0.98659
1764.82722	0.98593
1762.77031	0.98436
1760.71340	0.98215
1758.65650	0.98014
1756.59959	0.97813
1754.54268	0.97603
1752.48577	0.97364
1750.42886	0.97079
1748.37196	0.96828
1746.31505	0.96648
1744.25814	0.96485
1742.20123	0.96302
1740.14432	0.96108
1738.08741	0.95960
1736.03051	0.95860
1733.97360	0.95709
1731.91669	0.95559
1729.85978	0.95539
1727.80287	0.95586
1725.74597	0.95609
1723.68906	0.95618
1721.63215	0.95662
1719.57524	0.95739
1717.51833	0.95830
1715.46142	0.95967
1713.40452	0.96172
1711.34761	0.96387
1709.29070	0.96581
1707.23379	0.96756
1705.17688	0.96933
1703.11998	0.97085
1701.06307	0.97218
1699.00616	0.97397
1696.94925	0.97557
1694.89234	0.97667
1692.83543	0.97770
1690.77853	0.97877
1688.72162	0.97968
1686.66471	0.98025
1684.60780	0.98038
1682.55089	0.98045
1680.49399	0.98091
1678.43708	0.98150
1676.38017	0.98199
1674.32326	0.98234
1672.26635	0.98234
1670.20944	0.98182
1668.15254	0.98144
1666.09563	0.98157
1664.03872	0.98178
1661.98181	0.98185
1659.92490	0.98192
1657.86800	0.98227
1655.81109	0.98266
1653.75418	0.98280
1651.69727	0.98239
1649.64036	0.98196
1647.58345	0.98168
1645.52655	0.98164
1643.46964	0.98189
1641.41273	0.98192
1639.35582	0.98164
1637.29891	0.98154
1635.24201	0.98179
1633.18510	0.98201
1631.12819	0.98208
1629.07128	0.98216
1627.01437	0.98226
1624.95746	0.98224
1622.90056	0.98237
1620.84365	0.98280
1618.78674	0.98299
1616.72983	0.98277
1614.67292	0.98270
1612.61602	0.98294
1610.55911	0.98322
1608.50220	0.98337
1606.44529	0.98344
1604.38838	0.98357
1602.33147	0.98377
1600.27457	0.98408
1598.21766	0.98439
1596.16075	0.98453
1594.10384	0.98441
1592.04693	0.98423
1589.99003	0.98424
1587.93312	0.98430
1585.87621	0.98422
1583.81930	0.98429
1581.76239	0.98468
1579.70548	0.98490
1577.64858	0.98488
1575.59167	0.98511
1573.53476	0.98525
1571.47785	0.98520
1569.42094	0.98528
1567.36404	0.98528
1565.30713	0.98514
1563.25022	0.98508
1561.19331	0.98507
1559.13640	0.98493
1557.07949	0.98477
1555.02259	0.98479
1552.96568	0.98481
1550.90877	0.98484
1548.85186	0.98509
1546.79495	0.98544
1544.73805	0.98557
1542.68114	0.98562
1540.62423	0.98559
1538.56732	0.98515
1536.51041	0.98504
1534.45350	0.98527
1532.39660	0.98533
1530.33969	0.98507
1528.28278	0.98489
1526.22587	0.98486
1524.16896	0.98484
1522.11206	0.98481
1520.05515	0.98492
1517.99824	0.98514
1515.94133	0.98510
1513.88442	0.98470
1511.82751	0.98440
1509.77061	0.98453
1507.71370	0.98469
1505.65679	0.98411
1503.59988	0.98358
1501.54297	0.98361
1499.48607	0.98380
1497.42916	0.98374
1495.37225	0.98355
1493.31534	0.98332
1491.25843	0.98306
1489.20152	0.98296
1487.14462	0.98265
1485.08771	0.98182
1483.03080	0.98105
1480.97389	0.98063
1478.91698	0.98031
1476.86008	0.97985
1474.80317	0.97933
1472.74626	0.97877
1470.68935	0.97815
1468.63244	0.97750
1466.57553	0.97659
1464.51863	0.97538
1462.46172	0.97425
1460.40481	0.97355
1458.34790	0.97322
1456.29099	0.97286
1454.23409	0.97217
1452.17718	0.97135
1450.12027	0.97059
1448.06336	0.97002
1446.00645	0.96954
1443.94954	0.96887
1441.89264	0.96805
1439.83573	0.96730
1437.77882	0.96640
1435.72191	0.96533
1433.66500	0.96465
1431.60810	0.96415
1429.55119	0.96356
1427.49428	0.96316
1425.43737	0.96297
1423.38046	0.96277
1421.32355	0.96262
1419.26665	0.96249
1417.20974	0.96224
1415.15283	0.96205
1413.09592	0.96185
1411.03901	0.96150
1408.98211	0.96114
1406.92520	0.96103
1404.86829	0.96107
1402.81138	0.96108
1400.75447	0.96104
1398.69756	0.96083
1396.64066	0.96051
1394.58375	0.96004
1392.52684	0.95923
1390.46993	0.95835
1388.41302	0.95744
1386.35612	0.95617
1384.29921	0.95466
1382.24230	0.95305
1380.18539	0.95127
1378.12848	0.94964
1376.07157	0.94841
1374.01467	0.94735
1371.95776	0.94645
1369.90085	0.94611
1367.84394	0.94652
1365.78703	0.94737
1363.73013	0.94855
1361.67322	0.95031
1359.61631	0.95235
1357.55940	0.95420
1355.50249	0.95572
1353.44558	0.95679
1351.38868	0.95747
1349.33177	0.95811
1347.27486	0.95881
1345.21795	0.95943
1343.16104	0.95988
1341.10414	0.96023
1339.04723	0.96072
1336.99032	0.96126
1334.93341	0.96152
1332.87650	0.96157
1330.81959	0.96171
1328.76269	0.96190
1326.70578	0.96211
1324.64887	0.96240
1322.59196	0.96265
1320.53505	0.96300
1318.47815	0.96337
1316.42124	0.96343
1314.36433	0.96355
1312.30742	0.96399
1310.25051	0.96430
1308.19360	0.96435
1306.13670	0.96447
1304.07979	0.96467
1302.02288	0.96480
1299.96597	0.96498
1297.90906	0.96521
1295.85216	0.96545
1293.79525	0.96553
1291.73834	0.96524
1289.68143	0.96485
1287.62452	0.96462
1285.56761	0.96432
1283.51071	0.96367
1281.45380	0.96280
1279.39689	0.96204
1277.33998	0.96121
1275.28307	0.95988
1273.22617	0.95819
1271.16926	0.95674
1269.11235	0.95565
1267.05544	0.95450
1264.99853	0.95286
1262.94162	0.95066
1260.88472	0.94835
1258.82781	0.94629
1256.77090	0.94423
1254.71399	0.94186
1252.65708	0.93941
1250.60018	0.93721
1248.54327	0.93503
1246.48636	0.93268
1244.42945	0.93033
1242.37254	0.92803
1240.31563	0.92594
1238.25873	0.92422
1236.20182	0.92291
1234.14491	0.92186
1232.08800	0.92101
1230.03109	0.92063
1227.97419	0.92054
1225.91728	0.92068
1223.86037	0.92149
1221.80346	0.92292
1219.74655	0.92471
1217.68964	0.92690
1215.63274	0.92948
1213.57583	0.93190
1211.51892	0.93356
1209.46201	0.93465
1207.40510	0.93563
1205.34820	0.93673
1203.29129	0.93774
1201.23438	0.93823
1199.17747	0.93845
1197.12056	0.93894
1195.06365	0.93975
1193.00675	0.94049
1190.94984	0.94084
1188.89293	0.94093
1186.83602	0.94091
1184.77911	0.94058
1182.72221	0.93989
1180.66530	0.93884
1178.60839	0.93735
1176.55148	0.93559
1174.49457	0.93367
1172.43766	0.93159
1170.38076	0.92934
1168.32385	0.92700
1166.26694	0.92474
1164.21003	0.92242
1162.15312	0.92003
1160.09622	0.91807
1158.03931	0.91681
1155.98240	0.91588
1153.92549	0.91522
1151.86858	0.91499
1149.81167	0.91496
1147.75477	0.91506
1145.69786	0.91508
1143.64095	0.91464
1141.58404	0.91382
1139.52713	0.91262
1137.47023	0.91101
1135.41332	0.90923
1133.35641	0.90729
1131.29950	0.90505
1129.24259	0.90274
1127.18568	0.90053
1125.12878	0.89812
1123.07187	0.89555
1121.01496	0.89317
1118.95805	0.89123
1116.90114	0.88947
1114.84424	0.88741
1112.78733	0.88533
1110.73042	0.88346
1108.67351	0.88162
1106.61660	0.88005
1104.55969	0.87859
1102.50279	0.87684
1100.44588	0.87496
1098.38897	0.87330
1096.33206	0.87190
1094.27515	0.87035
1092.21825	0.86826
1090.16134	0.86605
1088.10443	0.86441
1086.04752	0.86282
1083.99061	0.86048
1081.93370	0.85772
1079.87680	0.85520
1077.81989	0.85296
1075.76298	0.85050
1073.70607	0.84770
1071.64916	0.84511
1069.59226	0.84304
1067.53535	0.84108
1065.47844	0.83918
1063.42153	0.83767
1061.36462	0.83640
1059.30771	0.83488
1057.25081	0.83306
1055.19390	0.83165
1053.13699	0.83068
1051.08008	0.82931
1049.02317	0.82766
1046.96627	0.82643
1044.90936	0.82552
1042.85245	0.82436
1040.79554	0.82282
1038.73863	0.82147
1036.68172	0.82035
1034.62482	0.81897
1032.56791	0.81759
1030.51100	0.81663
1028.45409	0.81606
1026.39718	0.81572
1024.34028	0.81533
1022.28337	0.81508
1020.22646	0.81548
1018.16955	0.81649
1016.11264	0.81782
1014.05573	0.81933
1011.99883	0.82097
1009.94192	0.82285
1007.88501	0.82504
1005.82810	0.82711
1003.77119	0.82866
1001.71429	0.82997
999.65738	0.83123
997.60047	0.83247
995.54356	0.83403
993.48665	0.83598
991.42974	0.83823
989.37284	0.84057
987.31593	0.84289
985.25902	0.84524
983.20211	0.84777
981.14520	0.85040
979.08830	0.85289
977.03139	0.85559
974.97448	0.85876
972.91757	0.86186
970.86066	0.86449
968.80375	0.86701
966.74685	0.86960
964.68994	0.87207
962.63303	0.87462
960.57612	0.87742
958.51921	0.88018
956.46231	0.88255
954.40540	0.88445
952.34849	0.88604
950.29158	0.88768
948.23467	0.88944
946.17776	0.89103
944.12086	0.89249
942.06395	0.89377
940.00704	0.89441
937.95013	0.89476
935.89322	0.89563
933.83632	0.89657
931.77941	0.89692
929.72250	0.89717
927.66559	0.89785
925.60868	0.89871
923.55177	0.89928
921.49487	0.89949
919.43796	0.89945
917.38105	0.89932
915.32414	0.89916
913.26723	0.89892
911.21033	0.89870
909.15342	0.89846
907.09651	0.89807
905.03960	0.89748
902.98269	0.89688
900.92578	0.89666
898.86888	0.89697
896.81197	0.89767
894.75506	0.89851
892.69815	0.89930
890.64124	0.90010
888.58434	0.90088
886.52743	0.90210
884.47052	0.90416
882.41361	0.90621
880.35670	0.90749
878.29979	0.90868
876.24289	0.91068
874.18598	0.91306
872.12907	0.91525
870.07216	0.91724
868.01525	0.91875
865.95835	0.92004
863.90144	0.92125
861.84453	0.92213
859.78762	0.92326
857.73071	0.92453
855.67380	0.92526
853.61690	0.92610
851.55999	0.92752
849.50308	0.92877
847.44617	0.92938
845.38926	0.92950
843.33236	0.92941
841.27545	0.92937
839.21854	0.92897
837.16163	0.92794
835.10472	0.92741
833.04781	0.92781
830.99091	0.92818
828.93400	0.92806
826.87709	0.92779
824.82018	0.92750
822.76327	0.92701
820.70637	0.92618
818.64946	0.92546
816.59255	0.92520
814.53564	0.92495
812.47873	0.92457
810.42182	0.92430
808.36492	0.92370
806.30801	0.92253
804.25110	0.92172
802.19419	0.92173
800.13728	0.92164
798.08038	0.92157
796.02347	0.92214
793.96656	0.92269
791.90965	0.92293
789.85274	0.92283
787.79583	0.92242
785.73893	0.92234
783.68202	0.92266
781.62511	0.92331
779.56820	0.92399
777.51129	0.92458
775.45439	0.92563
773.39748	0.92684
771.34057	0.92743
769.28366	0.92770
767.22675	0.92822
765.16984	0.92880
763.11294	0.92940
761.05603	0.93030
758.99912	0.93121
756.94221	0.93157
754.88530	0.93161
752.82839	0.93228
750.77149	0.93349
748.71458	0.93429
746.65767	0.93428
744.60076	0.93404
742.54385	0.93375
740.48695	0.93312
738.43004	0.93312
736.37313	0.93371
734.31622	0.93367
732.25931	0.93322
730.20240	0.93304
728.14550	0.93345
726.08859	0.93415
724.03168	0.93439
721.97477	0.93414
719.91786	0.93348
717.86096	0.93245
715.80405	0.93185
713.74714	0.93177
711.69023	0.93126
709.63332	0.93029
707.57641	0.92960
705.51951	0.92925
703.46260	0.92907
701.40569	0.92908
699.34878	0.92896
697.29187	0.92863
695.23497	0.92824
693.17806	0.92789
691.12115	0.92765
689.06424	0.92785
687.00733	0.92805
684.95042	0.92722
682.89352	0.92544
680.83661	0.92371
678.77970	0.92257
676.72279	0.92175
674.66588	0.92081
672.60898	0.91992
670.55207	0.91937
668.49516	0.91908
666.43825	0.91906
664.38134	0.91959
662.32443	0.92063
660.26753	0.92105
658.21062	0.92097
656.15371	0.92189
654.09680	0.92274
652.03989	0.92224
649.98299	0.92125
647.92608	0.92042
645.86917	0.91963
643.81226	0.91933
641.75535	0.91983
639.69844	0.92016
637.64154	0.91969
635.58463	0.91930
633.52772	0.91937
631.47081	0.91921
629.41390	0.91847
627.35700	0.91735
625.30009	0.91664
623.24318	0.91646
621.18627	0.91587
619.12936	0.91422
617.07245	0.91226
615.01555	0.91169
612.95864	0.91170
610.90173	0.91064
608.84482	0.90901
606.78791	0.90787
604.73101	0.90716
602.67410	0.90674
600.61719	0.90704
598.56028	0.90746
596.50337	0.90727
594.44646	0.90677
592.38956	0.90633
590.33265	0.90612
588.27574	0.90606
586.21883	0.90636
584.16192	0.90699
582.10502	0.90716
580.04811	0.90690
577.99120	0.90674
575.93429	0.90660
573.87738	0.90588
571.82047	0.90495
569.76357	0.90446
567.70666	0.90300
565.64975	0.90071
563.59284	0.89990
561.53593	0.89996
559.47903	0.89910
557.42212	0.89782
555.36521	0.89751
553.30830	0.89790
551.25139	0.89771
549.19448	0.89744
547.13758	0.89776
545.08067	0.89788
543.02376	0.89788
540.96685	0.89780
538.90994	0.89674
536.85304	0.89555
534.79613	0.89543
532.73922	0.89542
530.68231	0.89378
528.62540	0.89069
526.56849	0.88914
524.51159	0.88945
522.45468	0.88836
520.39777	0.88578
518.34086	0.88385
516.28395	0.88323
514.22705	0.88235
512.17014	0.87967
510.11323	0.87655
508.05632	0.87441
505.99941	0.87265
503.94250	0.87030
501.88560	0.86522
499.82869	0.85835
497.77178	0.85427
495.71487	0.85253
493.65796	0.84914
491.60106	0.84450
489.54415	0.84177
487.48724	0.83981
485.43033	0.83674
483.37342	0.83414
481.31651	0.83223
479.25961	0.82961
477.20270	0.82691
475.14579	0.82519
473.08888	0.82291
471.03197	0.81866
468.97507	0.81535
466.91816	0.81392
464.86125	0.81264
462.80434	0.81073
460.74743	0.80827
458.69052	0.80583
456.63362	0.80454
454.57671	0.80584
452.51980	0.80737
450.46289	0.80470
448.40598	0.79956
446.34908	0.79792
444.29217	0.80005
442.23526	0.80154
440.17835	0.80140
438.12144	0.80270
436.06453	0.80564
434.00763	0.80607
431.95072	0.80448
429.89381	0.80543
427.83690	0.80844
425.77999	0.80858
423.72309	0.80514
421.66618	0.80250
419.60927	0.80281
417.55236	0.80496
415.49545	0.80607
413.43854	0.80514
411.38164	0.80327
409.32473	0.80253
407.26782	0.80178
405.21091	0.80053
403.15400	0.80270
401.09710	0.80744
399.04019	0.80849
