3996.57260	0.97304
3994.51569	0.97239
3992.45878	0.97211
3990.40188	0.97258
3988.34497	0.97368
3986.28806	0.97447
3984.23115	0.97446
3982.17424	0.97430
3980.11733	0.97468
3978.06043	0.97525
3976.00352	0.97518
3973.94661	0.97439
3971.88970	0.97337
3969.83279	0.97307
3967.77589	0.97381
3965.71898	0.97419
3963.66207	0.97338
3961.60516	0.97262
3959.54825	0.97272
3957.49134	0.97313
3955.43444	0.97355
3953.37753	0.97386
3951.32062	0.97381
3949.26371	0.97357
3947.20680	0.97360
3945.14990	0.97376
3943.09299	0.97385
3941.03608	0.97401
3938.97917	0.97400
3936.92226	0.97388
3934.86535	0.97383
3932.80845	0.97356
3930.75154	0.97331
3928.69463	0.97355
3926.63772	0.97397
3924.58081	0.97396
3922.52391	0.97325
3920.46700	0.97245
3918.41009	0.97238
3916.35318	0.97318
3914.29627	0.97383
3912.23936	0.97396
3910.18246	0.97397
3908.12555	0.97414
3906.06864	0.97447
3904.01173	0.97409
3901.95482	0.97332
3899.89792	0.97357
3897.84101	0.97414
3895.78410	0.97420
3893.72719	0.97445
3891.67028	0.97486
3889.61337	0.97447
3887.55647	0.97381
3885.49956	0.97370
3883.44265	0.97406
3881.38574	0.97411
3879.32883	0.97396
3877.27193	0.97456
3875.21502	0.97534
3873.15811	0.97490
3871.10120	0.97384
3869.04429	0.97371
3866.98738	0.97377
3864.93048	0.97374
3862.87357	0.97441
3860.81666	0.97526
3858.75975	0.97569
3856.70284	0.97564
3854.64594	0.97495
3852.58903	0.97385
3850.53212	0.97359
3848.47521	0.97403
3846.41830	0.97438
3844.36139	0.97446
3842.30449	0.97450
3840.24758	0.97471
3838.19067	0.97496
3836.13376	0.97443
3834.07685	0.97372
3832.01995	0.97356
3829.96304	0.97338
3827.90613	0.97329
3825.84922	0.97348
3823.79231	0.97377
3821.73540	0.97420
3819.67850	0.97420
3817.62159	0.97401
3815.56468	0.97430
3813.50777	0.97463
3811.45086	0.97473
3809.39396	0.97456
3807.33705	0.97437
3805.28014	0.97477
3803.22323	0.97519
3801.16632	0.97527
3799.10941	0.97552
3797.05251	0.97579
3794.99560	0.97544
3792.93869	0.97474
3790.88178	0.97430
3788.82487	0.97420
3786.76796	0.97414
3784.71106	0.97408
3782.65415	0.97418
3780.59724	0.97407
3778.54033	0.97358
3776.48342	0.97338
3774.42652	0.97375
3772.36961	0.97392
3770.31270	0.97347
3768.25579	0.97327
3766.19888	0.97335
3764.14197	0.97355
3762.08507	0.97403
3760.02816	0.97449
3757.97125	0.97465
3755.91434	0.97468
3753.85743	0.97480
3751.80053	0.97457
3749.74362	0.97379
3747.68671	0.97337
3745.62980	0.97393
3743.57289	0.97472
3741.51598	0.97483
3739.45908	0.97461
3737.40217	0.97383
3735.34526	0.97298
3733.28835	0.97331
3731.23144	0.97434
3729.17454	0.97493
3727.11763	0.97488
3725.06072	0.97432
3723.00381	0.97399
3720.94690	0.97450
3718.88999	0.97509
3716.83309	0.97545
3714.77618	0.97594
3712.71927	0.97671
3710.66236	0.97708
3708.60545	0.97620
3706.54855	0.97535
3704.49164	0.97519
3702.43473	0.97487
3700.37782	0.97430
3698.32091	0.97422
3696.26400	0.97432
3694.20710	0.97409
3692.15019	0.97395
3690.09328	0.97474
3688.03637	0.97561
3685.97946	0.97553
3683.92256	0.97513
3681.86565	0.97453
3679.80874	0.97413
3677.75183	0.97448
3675.69492	0.97500
3673.63801	0.97497
3671.58111	0.97539
3669.52420	0.97586
3667.46729	0.97536
3665.41038	0.97464
3663.35347	0.97392
3661.29657	0.97310
3659.23966	0.97251
3657.18275	0.97250
3655.12584	0.97291
3653.06893	0.97314
3651.01202	0.97342
3648.95512	0.97383
3646.89821	0.97354
3644.84130	0.97330
3642.78439	0.97350
3640.72748	0.97355
3638.67058	0.97322
3636.61367	0.97285
3634.55676	0.97253
3632.49985	0.97223
3630.44294	0.97216
3628.38603	0.97212
3626.32913	0.97173
3624.27222	0.97147
3622.21531	0.97163
3620.15840	0.97173
3618.10149	0.97100
3616.04459	0.97006
3613.98768	0.96990
3611.93077	0.97027
3609.87386	0.97045
3607.81695	0.97045
3605.76004	0.97027
3603.70314	0.96984
3601.64623	0.96963
3599.58932	0.96990
3597.53241	0.97068
3595.47550	0.97188
3593.41860	0.97229
3591.36169	0.97088
3589.30478	0.96894
3587.24787	0.96857
3585.19096	0.96962
3583.13405	0.97008
3581.07715	0.96952
3579.02024	0.96852
3576.96333	0.96796
3574.90642	0.96788
3572.84951	0.96756
3570.79261	0.96686
3568.73570	0.96602
3566.67879	0.96541
3564.62188	0.96534
3562.56497	0.96525
3560.50806	0.96502
3558.45116	0.96496
3556.39425	0.96478
3554.33734	0.96423
3552.28043	0.96388
3550.22352	0.96384
3548.16662	0.96385
3546.10971	0.96385
3544.05280	0.96370
3541.99589	0.96362
3539.93898	0.96325
3537.88207	0.96225
3535.82517	0.96148
3533.76826	0.96128
3531.71135	0.96112
3529.65444	0.96077
3527.59753	0.96033
3525.54063	0.96011
3523.48372	0.95984
3521.42681	0.95899
3519.36990	0.95835
3517.31299	0.95833
3515.25608	0.95831
3513.19918	0.95808
3511.14227	0.95794
3509.08536	0.95753
3507.02845	0.95680
3504.97154	0.95679
3502.91464	0.95724
3500.85773	0.95717
3498.80082	0.95703
3496.74391	0.95683
3494.68700	0.95592
3492.63009	0.95493
3490.57319	0.95449
3488.51628	0.95448
3486.45937	0.95488
3484.40246	0.95532
3482.34555	0.95539
3480.28865	0.95510
3478.23174	0.95522
3476.17483	0.95572
3474.11792	0.95560
3472.06101	0.95495
3470.00410	0.95474
3467.94720	0.95489
3465.89029	0.95508
3463.83338	0.95565
3461.77647	0.95622
3459.71956	0.95600
3457.66266	0.95544
3455.60575	0.95576
3453.54884	0.95656
3451.49193	0.95633
3449.43502	0.95568
3447.37811	0.95633
3445.32121	0.95745
3443.26430	0.95732
3441.20739	0.95675
3439.15048	0.95669
3437.09357	0.95701
3435.03667	0.95756
3432.97976	0.95806
3430.92285	0.95868
3428.86594	0.95937
3426.80903	0.95951
3424.75212	0.95931
3422.69522	0.95919
3420.63831	0.95933
3418.58140	0.95990
3416.52449	0.96067
3414.46758	0.96124
3412.41068	0.96147
3410.35377	0.96150
3408.29686	0.96148
3406.23995	0.96169
3404.18304	0.96239
3402.12613	0.96295
3400.06923	0.96262
3398.01232	0.96188
3395.95541	0.96163
3393.89850	0.96202
3391.84159	0.96274
3389.78469	0.96334
3387.72778	0.96368
3385.67087	0.96407
3383.61396	0.96406
3381.55705	0.96346
3379.50014	0.96319
3377.44324	0.96333
3375.38633	0.96354
3373.32942	0.96404
3371.27251	0.96460
3369.21560	0.96483
3367.15870	0.96509
3365.10179	0.96577
3363.04488	0.96622
3360.98797	0.96554
3358.93106	0.96461
3356.87415	0.96460
3354.81725	0.96499
3352.76034	0.96536
3350.70343	0.96569
3348.64652	0.96581
3346.58961	0.96603
3344.53271	0.96634
3342.47580	0.96616
3340.41889	0.96580
3338.36198	0.96597
3336.30507	0.96628
3334.24816	0.96640
3332.19126	0.96664
3330.13435	0.96693
3328.07744	0.96688
3326.02053	0.96677
3323.96362	0.96678
3321.90672	0.96675
3319.84981	0.96702
3317.79290	0.96723
3315.73599	0.96683
3313.67908	0.96667
3311.62217	0.96720
3309.56527	0.96759
3307.50836	0.96741
3305.45145	0.96726
3303.39454	0.96733
3301.33763	0.96736
3299.28073	0.96747
3297.22382	0.96760
3295.16691	0.96740
3293.11000	0.96717
3291.05309	0.96753
3288.99618	0.96792
3286.93928	0.96792
3284.88237	0.96822
3282.82546	0.96893
3280.76855	0.96960
3278.71164	0.96980
3276.65474	0.96944
3274.59783	0.96873
3272.54092	0.96836
3270.48401	0.96867
3268.42710	0.96897
3266.37019	0.96906
3264.31329	0.96918
3262.25638	0.96929
3260.19947	0.96936
3258.14256	0.96933
3256.08565	0.96939
3254.02875	0.96956
3251.97184	0.96965
3249.91493	0.96985
3247.85802	0.97029
3245.80111	0.97058
3243.74420	0.97050
3241.68730	0.97044
3239.63039	0.97040
3237.57348	0.96988
3235.51657	0.96917
3233.45966	0.96941
3231.40276	0.97055
3229.34585	0.97137
3227.28894	0.97129
3225.23203	0.97038
3223.17512	0.96965
3221.11821	0.97017
3219.06131	0.97085
3217.00440	0.97034
3214.94749	0.96975
3212.89058	0.97012
3210.83367	0.97082
3208.77677	0.97134
3206.71986	0.97149
3204.66295	0.97110
3202.60604	0.97069
3200.54913	0.97066
3198.49222	0.97047
3196.43532	0.97021
3194.37841	0.97040
3192.32150	0.97099
3190.26459	0.97154
3188.20768	0.97137
3186.15078	0.97071
3184.09387	0.97012
3182.03696	0.97003
3179.98005	0.97075
3177.92314	0.97162
3175.86623	0.97173
3173.80933	0.97141
3171.75242	0.97146
3169.69551	0.97170
3167.63860	0.97173
3165.58169	0.97171
3163.52479	0.97165
3161.46788	0.97121
3159.41097	0.97094
3157.35406	0.97136
3155.29715	0.97171
3153.24024	0.97133
3151.18334	0.97093
3149.12643	0.97127
3147.06952	0.97166
3145.01261	0.97178
3142.95570	0.97217
3140.89880	0.97219
3138.84189	0.97146
3136.78498	0.97079
3134.72807	0.97056
3132.67116	0.97060
3130.61425	0.97073
3128.55735	0.97111
3126.50044	0.97193
3124.44353	0.97226
3122.38662	0.97163
3120.32971	0.97126
3118.27281	0.97169
3116.21590	0.97220
3114.15899	0.97231
3112.10208	0.97204
3110.04517	0.97180
3107.98826	0.97173
3105.93136	0.97148
3103.87445	0.97122
3101.81754	0.97153
3099.76063	0.97184
3097.70372	0.97158
3095.64682	0.97167
3093.58991	0.97212
3091.53300	0.97197
3089.47609	0.97189
3087.41918	0.97253
3085.36227	0.97300
3083.30537	0.97276
3081.24846	0.97213
3079.19155	0.97200
3077.13464	0.97258
3075.07773	0.97264
3073.02083	0.97190
3070.96392	0.97153
3068.90701	0.97155
3066.85010	0.97159
3064.79319	0.97186
3062.73628	0.97194
3060.67938	0.97179
3058.62247	0.97213
3056.56556	0.97276
3054.50865	0.97261
3052.45174	0.97183
3050.39484	0.97170
3048.33793	0.97207
3046.28102	0.97195
3044.22411	0.97160
3042.16720	0.97154
3040.11029	0.97172
3038.05339	0.97174
3035.99648	0.97159
3033.93957	0.97172
3031.88266	0.97199
3029.82575	0.97185
3027.76885	0.97126
3025.71194	0.97081
3023.65503	0.97074
3021.59812	0.97064
3019.54121	0.97039
3017.48430	0.97026
3015.42740	0.97033
3013.37049	0.97013
3011.31358	0.96985
3009.25667	0.97004
3007.19976	0.97034
3005.14286	0.97029
3003.08595	0.96997
3001.02904	0.96966
2998.97213	0.96957
2996.91522	0.96978
2994.85831	0.97010
2992.80141	0.97000
2990.74450	0.96931
2988.68759	0.96857
2986.63068	0.96796
2984.57377	0.96751
2982.51687	0.96748
2980.45996	0.96773
2978.40305	0.96782
2976.34614	0.96758
2974.28923	0.96717
2972.23232	0.96660
2970.17542	0.96584
2968.11851	0.96504
2966.06160	0.96451
2964.00469	0.96442
2961.94778	0.96435
2959.89088	0.96400
2957.83397	0.96389
2955.77706	0.96416
2953.72015	0.96408
2951.66324	0.96358
2949.60633	0.96299
2947.54943	0.96249
2945.49252	0.96237
2943.43561	0.96231
2941.37870	0.96207
2939.32179	0.96204
2937.26489	0.96241
2935.20798	0.96321
2933.15107	0.96414
2931.09416	0.96446
2929.03725	0.96437
2926.98034	0.96441
2924.92344	0.96459
2922.86653	0.96482
2920.80962	0.96480
2918.75271	0.96455
2916.69580	0.96454
2914.63890	0.96463
2912.58199	0.96441
2910.52508	0.96429
2908.46817	0.96450
2906.41126	0.96455
2904.35435	0.96426
2902.29745	0.96372
2900.24054	0.96330
2898.18363	0.96342
2896.12672	0.96365
2894.06981	0.96362
2892.01291	0.96361
2889.95600	0.96357
2887.89909	0.96344
2885.84218	0.96355
2883.78527	0.96370
2881.72836	0.96363
2879.67146	0.96359
2877.61455	0.96376
2875.55764	0.96411
2873.50073	0.96446
2871.44382	0.96476
2869.38692	0.96489
2867.33001	0.96488
2865.27310	0.96517
2863.21619	0.96595
2861.15928	0.96648
2859.10237	0.96645
2857.04547	0.96654
2854.98856	0.96694
2852.93165	0.96755
2850.87474	0.96828
2848.81783	0.96879
2846.76093	0.96882
2844.70402	0.96860
2842.64711	0.96868
2840.59020	0.96926
2838.53329	0.96973
2836.47638	0.96968
2834.41948	0.96957
2832.36257	0.96984
2830.30566	0.97031
2828.24875	0.97053
2826.19184	0.97045
2824.13494	0.97045
2822.07803	0.97060
2820.02112	0.97069
2817.96421	0.97086
2815.90730	0.97131
2813.85039	0.97148
2811.79349	0.97091
2809.73658	0.97025
2807.67967	0.96996
2805.62276	0.97000
2803.56585	0.97024
2801.50895	0.97045
2799.45204	0.97069
2797.39513	0.97096
2795.33822	0.97096
2793.28131	0.97105
2791.22440	0.97143
2789.16750	0.97147
2787.11059	0.97128
2785.05368	0.97132
2782.99677	0.97129
2780.93986	0.97109
2778.88296	0.97105
2776.82605	0.97141
2774.76914	0.97168
2772.71223	0.97148
2770.65532	0.97129
2768.59841	0.97142
2766.54151	0.97171
2764.48460	0.97185
2762.42769	0.97166
2760.37078	0.97160
2758.31387	0.97184
2756.25697	0.97189
2754.20006	0.97171
2752.14315	0.97173
2750.08624	0.97192
2748.02933	0.97208
2745.97242	0.97221
2743.91552	0.97229
2741.85861	0.97224
2739.80170	0.97201
2737.74479	0.97177
2735.68788	0.97176
2733.63098	0.97194
2731.57407	0.97203
2729.51716	0.97185
2727.46025	0.97152
2725.40334	0.97139
2723.34643	0.97151
2721.28953	0.97169
2719.23262	0.97157
2717.17571	0.97125
2715.11880	0.97122
2713.06189	0.97128
2711.00499	0.97115
2708.94808	0.97120
2706.89117	0.97170
2704.83426	0.97220
2702.77735	0.97234
2700.72044	0.97199
2698.66354	0.97134
2696.60663	0.97127
2694.54972	0.97169
2692.49281	0.97192
2690.43590	0.97205
2688.37900	0.97219
2686.32209	0.97213
2684.26518	0.97215
2682.20827	0.97260
2680.15136	0.97309
2678.09445	0.97307
2676.03755	0.97267
2673.98064	0.97240
2671.92373	0.97227
2669.86682	0.97231
2667.80991	0.97234
2665.75301	0.97212
2663.69610	0.97196
2661.63919	0.97195
2659.58228	0.97188
2657.52537	0.97168
2655.46846	0.97176
2653.41156	0.97224
2651.35465	0.97258
2649.29774	0.97251
2647.24083	0.97251
2645.18392	0.97291
2643.12702	0.97323
2641.07011	0.97295
2639.01320	0.97251
2636.95629	0.97236
2634.89938	0.97224
2632.84247	0.97202
2630.78557	0.97187
2628.72866	0.97197
2626.67175	0.97225
2624.61484	0.97245
2622.55793	0.97228
2620.50103	0.97187
2618.44412	0.97181
2616.38721	0.97231
2614.33030	0.97305
2612.27339	0.97348
2610.21648	0.97356
2608.15958	0.97353
2606.10267	0.97351
2604.04576	0.97346
2601.98885	0.97334
2599.93194	0.97335
2597.87504	0.97347
2595.81813	0.97316
2593.76122	0.97275
2591.70431	0.97314
2589.64740	0.97395
2587.59049	0.97429
2585.53359	0.97402
2583.47668	0.97365
2581.41977	0.97356
2579.36286	0.97367
2577.30595	0.97390
2575.24905	0.97378
2573.19214	0.97341
2571.13523	0.97348
2569.07832	0.97389
2567.02141	0.97386
2564.96450	0.97356
2562.90760	0.97369
2560.85069	0.97447
2558.79378	0.97536
2556.73687	0.97529
2554.67996	0.97466
2552.62306	0.97433
2550.56615	0.97431
2548.50924	0.97460
2546.45233	0.97483
2544.39542	0.97471
2542.33851	0.97493
2540.28161	0.97583
2538.22470	0.97627
2536.16779	0.97578
2534.11088	0.97523
2532.05397	0.97526
2529.99707	0.97552
2527.94016	0.97531
2525.88325	0.97489
2523.82634	0.97464
2521.76943	0.97474
2519.71252	0.97507
2517.65562	0.97495
2515.59871	0.97460
2513.54180	0.97457
2511.48489	0.97470
2509.42798	0.97469
2507.37108	0.97446
2505.31417	0.97451
2503.25726	0.97509
2501.20035	0.97555
2499.14344	0.97578
2497.08653	0.97595
2495.02963	0.97576
2492.97272	0.97521
2490.91581	0.97472
2488.85890	0.97477
2486.80199	0.97504
2484.74509	0.97492
2482.68818	0.97467
2480.63127	0.97444
2478.57436	0.97424
2476.51745	0.97447
2474.46054	0.97475
2472.40364	0.97441
2470.34673	0.97415
2468.28982	0.97434
2466.23291	0.97425
2464.17600	0.97398
2462.11910	0.97422
2460.06219	0.97482
2458.00528	0.97509
2455.94837	0.97501
2453.89146	0.97502
2451.83455	0.97498
2449.77765	0.97473
2447.72074	0.97463
2445.66383	0.97476
2443.60692	0.97442
2441.55001	0.97377
2439.49311	0.97413
2437.43620	0.97529
2435.37929	0.97570
2433.32238	0.97543
2431.26547	0.97516
2429.20856	0.97487
2427.15166	0.97474
2425.09475	0.97499
2423.03784	0.97539
2420.98093	0.97553
2418.92402	0.97539
2416.86712	0.97534
2414.81021	0.97523
2412.75330	0.97477
2410.69639	0.97436
2408.63948	0.97457
2406.58257	0.97518
2404.52567	0.97544
2402.46876	0.97548
2400.41185	0.97560
2398.35494	0.97581
2396.29803	0.97604
2394.24113	0.97578
2392.18422	0.97532
2390.12731	0.97520
2388.07040	0.97530
2386.01349	0.97534
2383.95658	0.97525
2381.89968	0.97520
2379.84277	0.97534
2377.78586	0.97570
2375.72895	0.97609
2373.67204	0.97659
2371.61514	0.97734
2369.55823	0.97822
2367.50132	0.97826
2365.44441	0.97666
2363.38750	0.97463
2361.33059	0.97363
2359.27369	0.97358
2357.21678	0.97422
2355.15987	0.97478
2353.10296	0.97475
2351.04605	0.97510
2348.98915	0.97575
2346.93224	0.97600
2344.87533	0.97542
2342.81842	0.97431
2340.76151	0.97379
2338.70460	0.97394
2336.64770	0.97474
2334.59079	0.97598
2332.53388	0.97648
2330.47697	0.97587
2328.42006	0.97472
2326.36316	0.97358
2324.30625	0.97342
2322.24934	0.97472
2320.19243	0.97587
2318.13552	0.97526
2316.07861	0.97425
2314.02171	0.97437
2311.96480	0.97463
2309.90789	0.97441
2307.85098	0.97483
2305.79407	0.97582
2303.73717	0.97623
2301.68026	0.97598
2299.62335	0.97573
2297.56644	0.97552
2295.50953	0.97545
2293.45262	0.97568
2291.39572	0.97566
2289.33881	0.97539
2287.28190	0.97501
2285.22499	0.97464
2283.16808	0.97502
2281.11117	0.97553
2279.05427	0.97505
2276.99736	0.97438
2274.94045	0.97456
2272.88354	0.97507
2270.82663	0.97530
2268.76973	0.97584
2266.71282	0.97703
2264.65591	0.97723
2262.59900	0.97556
2260.54209	0.97437
2258.48518	0.97564
2256.42828	0.97741
2254.37137	0.97725
2252.31446	0.97643
2250.25755	0.97587
2248.20064	0.97471
2246.14374	0.97379
2244.08683	0.97398
2242.02992	0.97487
2239.97301	0.97567
2237.91610	0.97652
2235.85919	0.97754
2233.80229	0.97728
2231.74538	0.97610
2229.68847	0.97597
2227.63156	0.97742
2225.57465	0.97851
2223.51775	0.97784
2221.46084	0.97674
2219.40393	0.97626
2217.34702	0.97664
2215.29011	0.97735
2213.23320	0.97785
2211.17630	0.97835
2209.11939	0.97936
2207.06248	0.98020
2205.00557	0.97941
2202.94866	0.97831
2200.89176	0.97800
2198.83485	0.97715
2196.77794	0.97626
2194.72103	0.97629
2192.66412	0.97645
2190.60721	0.97671
2188.55031	0.97690
2186.49340	0.97654
2184.43649	0.97630
2182.37958	0.97648
2180.32267	0.97636
2178.26577	0.97624
2176.20886	0.97691
2174.15195	0.97776
2172.09504	0.97917
2170.03813	0.98158
2167.98122	0.98339
2165.92432	0.98305
2163.86741	0.97992
2161.81050	0.97640
2159.75359	0.97634
2157.69668	0.97912
2155.63978	0.98072
2153.58287	0.97974
2151.52596	0.97829
2149.46905	0.97801
2147.41214	0.97849
2145.35523	0.97863
2143.29833	0.97777
2141.24142	0.97706
2139.18451	0.97747
2137.12760	0.97805
2135.07069	0.97741
2133.01379	0.97634
2130.95688	0.97609
2128.89997	0.97590
2126.84306	0.97555
2124.78615	0.97554
2122.72924	0.97579
2120.67234	0.97622
2118.61543	0.97627
2116.55852	0.97600
2114.50161	0.97685
2112.44470	0.97819
2110.38780	0.97784
2108.33089	0.97599
2106.27398	0.97494
2104.21707	0.97509
2102.16016	0.97521
2100.10325	0.97591
2098.04635	0.97725
2095.98944	0.97775
2093.93253	0.97729
2091.87562	0.97664
2089.81871	0.97593
2087.76181	0.97585
2085.70490	0.97695
2083.64799	0.97740
2081.59108	0.97669
2079.53417	0.97686
2077.47726	0.97829
2075.42036	0.97944
2073.36345	0.97971
2071.30654	0.97973
2069.24963	0.97944
2067.19272	0.97896
2065.13582	0.97888
2063.07891	0.97935
2061.02200	0.98029
2058.96509	0.98086
2056.90818	0.98041
2054.85127	0.97966
2052.79437	0.97937
2050.73746	0.97900
2048.68055	0.97811
2046.62364	0.97840
2044.56673	0.98011
2042.50983	0.98058
2040.45292	0.97991
2038.39601	0.98016
2036.33910	0.98150
2034.28219	0.98270
2032.22528	0.98358
2030.16838	0.98479
2028.11147	0.98530
2026.05456	0.98450
2023.99765	0.98385
2021.94074	0.98387
2019.88384	0.98430
2017.82693	0.98434
2015.77002	0.98281
2013.71311	0.98048
2011.65620	0.97888
2009.59929	0.97873
2007.54239	0.97938
2005.48548	0.97967
2003.42857	0.97982
2001.37166	0.98064
1999.31475	0.98144
1997.25785	0.98077
1995.20094	0.97905
1993.14403	0.97758
1991.08712	0.97794
1989.03021	0.97986
1986.97330	0.98055
1984.91640	0.98018
1982.85949	0.98031
1980.80258	0.98013
1978.74567	0.98058
1976.68876	0.98186
1974.63186	0.98071
1972.57495	0.97867
1970.51804	0.97949
1968.46113	0.98178
1966.40422	0.98294
1964.34731	0.98348
1962.29041	0.98427
1960.23350	0.98469
1958.17659	0.98409
1956.11968	0.98367
1954.06277	0.98410
1952.00587	0.98427
1949.94896	0.98341
1947.89205	0.98221
1945.83514	0.98154
1943.77823	0.98122
1941.72132	0.98175
1939.66442	0.98274
1937.60751	0.98297
1935.55060	0.98250
1933.49369	0.98154
1931.43678	0.98073
1929.37988	0.98064
1927.32297	0.98088
1925.26606	0.98102
1923.20915	0.98082
1921.15224	0.98005
1919.09533	0.97911
1917.03843	0.97872
1914.98152	0.97891
1912.92461	0.97953
1910.86770	0.98063
1908.81079	0.98144
1906.75389	0.98118
1904.69698	0.98035
1902.64007	0.98050
1900.58316	0.98177
1898.52625	0.98254
1896.46934	0.98186
1894.41244	0.98068
1892.35553	0.98056
1890.29862	0.98093
1888.24171	0.98111
1886.18480	0.98157
1884.12790	0.98221
1882.07099	0.98245
1880.01408	0.98204
1877.95717	0.98147
1875.90026	0.98125
1873.84335	0.98120
1871.78645	0.98104
1869.72954	0.98092
1867.67263	0.98158
1865.61572	0.98279
1863.55881	0.98316
1861.50191	0.98244
1859.44500	0.98171
1857.38809	0.98163
1855.33118	0.98142
1853.27427	0.98111
1851.21736	0.98114
1849.16046	0.98155
1847.10355	0.98195
1845.04664	0.98196
1842.98973	0.98184
1840.93282	0.98187
1838.87592	0.98237
1836.81901	0.98304
1834.76210	0.98322
1832.70519	0.98310
1830.64828	0.98304
1828.59137	0.98252
1826.53447	0.98142
1824.47756	0.98061
1822.42065	0.98076
1820.36374	0.98160
1818.30683	0.98209
1816.24993	0.98181
1814.19302	0.98137
1812.13611	0.98113
1810.07920	0.98091
1808.02229	0.98069
1805.96538	0.98021
1803.90848	0.97965
1801.85157	0.97924
1799.79466	0.97882
1797.73775	0.97837
1795.68084	0.97800
1793.62394	0.97774
1791.56703	0.97710
1789.51012	0.97606
1787.45321	0.97505
1785.39630	0.97409
1783.33939	0.97258
1781.28249	0.97041
1779.22558	0.96777
1777.16867	0.96459
1775.11176	0.96065
1773.05485	0.95492
1770.99795	0.94675
1768.94104	0.93682
1766.88413	0.92453
1764.82722	0.91035
1762.77031	0.89333
1760.71340	0.87368
1758.65650	0.85574
1756.59959	0.83828
1754.54268	0.82285
1752.48577	0.80988
1750.42886	0.79579
1748.37196	0.78217
1746.31505	0.77160
1744.25814	0.76316
1742.20123	0.75658
1740.14432	0.75213
1738.08741	0.75063
1736.03051	0.75252
1733.97360	0.75758
1731.91669	0.76463
1729.85978	0.77307
1727.80287	0.78349
1725.74597	0.79493
1723.68906	0.80724
1721.63215	0.81922
1719.57524	0.83111
1717.51833	0.84584
1715.46142	0.86116
1713.40452	0.87336
1711.34761	0.88381
1709.29070	0.89331
1707.23379	0.90214
1705.17688	0.91012
1703.11998	0.91604
1701.06307	0.92114
1699.00616	0.92659
1696.94925	0.93132
1694.89234	0.93557
1692.83543	0.93867
1690.77853	0.94115
1688.72162	0.94350
1686.66471	0.94545
1684.60780	0.94782
1682.55089	0.95000
1680.49399	0.95120
1678.43708	0.95220
1676.38017	0.95307
1674.32326	0.95372
1672.26635	0.95445
1670.20944	0.95554
1668.15254	0.95648
1666.09563	0.95690
1664.03872	0.95718
1661.98181	0.95731
1659.92490	0.95736
1657.86800	0.95755
1655.81109	0.95766
1653.75418	0.95757
1651.69727	0.95737
1649.64036	0.95719
1647.58345	0.95720
1645.52655	0.95761
1643.46964	0.95805
1641.41273	0.95822
1639.35582	0.95828
1637.29891	0.95850
1635.24201	0.95889
1633.18510	0.95917
1631.12819	0.95950
1629.07128	0.96004
1627.01437	0.96078
1624.95746	0.96146
1622.90056	0.96201
1620.84365	0.96265
1618.78674	0.96342
1616.72983	0.96435
1614.67292	0.96531
1612.61602	0.96595
1610.55911	0.96628
1608.50220	0.96681
1606.44529	0.96745
1604.38838	0.96756
1602.33147	0.96765
1600.27457	0.96819
1598.21766	0.96863
1596.16075	0.96899
1594.10384	0.96953
1592.04693	0.96999
1589.99003	0.97028
1587.93312	0.97066
1585.87621	0.97113
1583.81930	0.97124
1581.76239	0.97109
1579.70548	0.97105
1577.64858	0.97123
1575.59167	0.97172
1573.53476	0.97216
1571.47785	0.97235
1569.42094	0.97250
1567.36404	0.97267
1565.30713	0.97282
1563.25022	0.97265
1561.19331	0.97217
1559.13640	0.97231
1557.07949	0.97320
1555.02259	0.97334
1552.96568	0.97296
1550.90877	0.97266
1548.85186	0.97287
1546.79495	0.97331
1544.73805	0.97343
1542.68114	0.97308
1540.62423	0.97274
1538.56732	0.97282
1536.51041	0.97308
1534.45350	0.97333
1532.39660	0.97328
1530.33969	0.97299
1528.28278	0.97301
1526.22587	0.97344
1524.16896	0.97382
1522.11206	0.97376
1520.05515	0.97357
1517.99824	0.97389
1515.94133	0.97427
1513.88442	0.97425
1511.82751	0.97414
1509.77061	0.97421
1507.71370	0.97444
1505.65679	0.97450
1503.59988	0.97441
1501.54297	0.97458
1499.48607	0.97492
1497.42916	0.97516
1495.37225	0.97517
1493.31534	0.97504
1491.25843	0.97499
1489.20152	0.97486
1487.14462	0.97442
1485.08771	0.97413
1483.03080	0.97405
1480.97389	0.97375
1478.91698	0.97320
1476.86008	0.97270
1474.80317	0.97212
1472.74626	0.97094
1470.68935	0.96933
1468.63244	0.96779
1466.57553	0.96605
1464.51863	0.96397
1462.46172	0.96207
1460.40481	0.96049
1458.34790	0.95876
1456.29099	0.95673
1454.23409	0.95518
1452.17718	0.95384
1450.12027	0.95234
1448.06336	0.95060
1446.00645	0.94858
1443.94954	0.94650
1441.89264	0.94452
1439.83573	0.94266
1437.77882	0.94072
1435.72191	0.93891
1433.66500	0.93811
1431.60810	0.93806
1429.55119	0.93860
1427.49428	0.93986
1425.43737	0.94130
1423.38046	0.94259
1421.32355	0.94392
1419.26665	0.94543
1417.20974	0.94695
1415.15283	0.94825
1413.09592	0.94931
1411.03901	0.95013
1408.98211	0.95087
1406.92520	0.95140
1404.86829	0.95157
1402.81138	0.95162
1400.75447	0.95153
1398.69756	0.95080
1396.64066	0.94878
1394.58375	0.94511
1392.52684	0.94029
1390.46993	0.93480
1388.41302	0.92768
1386.35612	0.91864
1384.29921	0.90936
1382.24230	0.89994
1380.18539	0.89014
1378.12848	0.88050
1376.07157	0.87105
1374.01467	0.86190
1371.95776	0.85479
1369.90085	0.85084
1367.84394	0.85007
1365.78703	0.85336
1363.73013	0.86185
1361.67322	0.87561
1359.61631	0.89133
1357.55940	0.90631
1355.50249	0.91947
1353.44558	0.92966
1351.38868	0.93670
1349.33177	0.94156
1347.27486	0.94495
1345.21795	0.94725
1343.16104	0.94902
1341.10414	0.95046
1339.04723	0.95140
1336.99032	0.95184
1334.93341	0.95205
1332.87650	0.95212
1330.81959	0.95196
1328.76269	0.95173
1326.70578	0.95142
1324.64887	0.95084
1322.59196	0.95023
1320.53505	0.94988
1318.47815	0.94978
1316.42124	0.95000
1314.36433	0.95054
1312.30742	0.95114
1310.25051	0.95159
1308.19360	0.95177
1306.13670	0.95160
1304.07979	0.95133
1302.02288	0.95100
1299.96597	0.95043
1297.90906	0.94964
1295.85216	0.94832
1293.79525	0.94635
1291.73834	0.94407
1289.68143	0.94177
1287.62452	0.93913
1285.56761	0.93594
1283.51071	0.93241
1281.45380	0.92826
1279.39689	0.92351
1277.33998	0.91844
1275.28307	0.91277
1273.22617	0.90635
1271.16926	0.89946
1269.11235	0.89197
1267.05544	0.88360
1264.99853	0.87470
1262.94162	0.86557
1260.88472	0.85576
1258.82781	0.84482
1256.77090	0.83298
1254.71399	0.82057
1252.65708	0.80790
1250.60018	0.79499
1248.54327	0.78155
1246.48636	0.76763
1244.42945	0.75366
1242.37254	0.73962
1240.31563	0.72551
1238.25873	0.71156
1236.20182	0.69816
1234.14491	0.68582
1232.08800	0.67473
1230.03109	0.66504
1227.97419	0.65738
1225.91728	0.65207
1223.86037	0.64904
1221.80346	0.64828
1219.74655	0.64982
1217.68964	0.65398
1215.63274	0.66127
1213.57583	0.67200
1211.51892	0.68619
1209.46201	0.70388
1207.40510	0.72478
1205.34820	0.74798
1203.29129	0.77210
1201.23438	0.79566
1199.17747	0.81751
1197.12056	0.83702
1195.06365	0.85361
1193.00675	0.86688
1190.94984	0.87678
1188.89293	0.88371
1186.83602	0.88824
1184.77911	0.89054
1182.72221	0.89086
1180.66530	0.88975
1178.60839	0.88754
1176.55148	0.88451
1174.49457	0.88110
1172.43766	0.87778
1170.38076	0.87484
1168.32385	0.87255
1166.26694	0.87121
1164.21003	0.87098
1162.15312	0.87175
1160.09622	0.87331
1158.03931	0.87573
1155.98240	0.87879
1153.92549	0.88198
1151.86858	0.88534
1149.81167	0.88870
1147.75477	0.89125
1145.69786	0.89254
1143.64095	0.89282
1141.58404	0.89225
1139.52713	0.89047
1137.47023	0.88766
1135.41332	0.88456
1133.35641	0.88111
1131.29950	0.87724
1129.24259	0.87360
1127.18568	0.87030
1125.12878	0.86733
1123.07187	0.86515
1121.01496	0.86394
1118.95805	0.86341
1116.90114	0.86333
1114.84424	0.86309
1112.78733	0.86231
1110.73042	0.86139
1108.67351	0.86029
1106.61660	0.85882
1104.55969	0.85716
1102.50279	0.85484
1100.44588	0.85139
1098.38897	0.84724
1096.33206	0.84281
1094.27515	0.83787
1092.21825	0.83203
1090.16134	0.82506
1088.10443	0.81721
1086.04752	0.80896
1083.99061	0.80061
1081.93370	0.79254
1079.87680	0.78476
1077.81989	0.77673
1075.76298	0.76859
1073.70607	0.76126
1071.64916	0.75467
1069.59226	0.74795
1067.53535	0.74119
1065.47844	0.73465
1063.42153	0.72804
1061.36462	0.72119
1059.30771	0.71388
1057.25081	0.70587
1055.19390	0.69758
1053.13699	0.68956
1051.08008	0.68156
1049.02317	0.67364
1046.96627	0.66664
1044.90936	0.66060
1042.85245	0.65499
1040.79554	0.64961
1038.73863	0.64436
1036.68172	0.63925
1034.62482	0.63495
1032.56791	0.63284
1030.51100	0.63389
1028.45409	0.63832
1026.39718	0.64602
1024.34028	0.65632
1022.28337	0.66806
1020.22646	0.68029
1018.16955	0.69275
1016.11264	0.70572
1014.05573	0.71881
1011.99883	0.73119
1009.94192	0.74299
1007.88501	0.75449
1005.82810	0.76522
1003.77119	0.77499
1001.71429	0.78406
999.65738	0.79257
997.60047	0.80050
995.54356	0.80761
993.48665	0.81355
991.42974	0.81849
989.37284	0.82295
987.31593	0.82720
985.25902	0.83114
983.20211	0.83476
981.14520	0.83837
979.08830	0.84233
977.03139	0.84684
974.97448	0.85208
972.91757	0.85791
970.86066	0.86370
968.80375	0.86895
966.74685	0.87368
964.68994	0.87797
962.63303	0.88149
960.57612	0.88407
958.51921	0.88605
956.46231	0.88758
954.40540	0.88897
952.34849	0.89058
950.29158	0.89229
948.23467	0.89388
946.17776	0.89544
944.12086	0.89716
942.06395	0.89898
940.00704	0.90068
937.95013	0.90223
935.89322	0.90347
933.83632	0.90391
931.77941	0.90337
929.72250	0.90182
927.66559	0.89953
925.60868	0.89756
923.55177	0.89623
921.49487	0.89479
919.43796	0.89330
917.38105	0.89200
915.32414	0.89045
913.26723	0.88863
911.21033	0.88688
909.15342	0.88540
907.09651	0.88423
905.03960	0.88287
902.98269	0.88174
900.92578	0.88194
898.86888	0.88328
896.81197	0.88524
894.75506	0.88767
892.69815	0.89036
890.64124	0.89316
888.58434	0.89562
886.52743	0.89811
884.47052	0.90119
882.41361	0.90391
880.35670	0.90575
878.29979	0.90789
876.24289	0.91082
874.18598	0.91372
872.12907	0.91666
870.07216	0.92026
868.01525	0.92401
865.95835	0.92736
863.90144	0.92987
861.84453	0.93146
859.78762	0.93294
857.73071	0.93434
855.67380	0.93511
853.61690	0.93558
851.55999	0.93576
849.50308	0.93547
847.44617	0.93494
845.38926	0.93407
843.33236	0.93290
841.27545	0.93204
839.21854	0.93166
837.16163	0.93171
835.10472	0.93266
833.04781	0.93433
830.99091	0.93590
828.93400	0.93749
826.87709	0.93955
824.82018	0.94167
822.76327	0.94298
820.70637	0.94388
818.64946	0.94542
816.59255	0.94713
814.53564	0.94777
812.47873	0.94757
810.42182	0.94787
808.36492	0.94917
806.30801	0.95040
804.25110	0.95082
802.19419	0.95106
800.13728	0.95113
798.08038	0.95123
796.02347	0.95165
793.96656	0.95194
791.90965	0.95233
789.85274	0.95278
787.79583	0.95264
785.73893	0.95226
783.68202	0.95243
781.62511	0.95299
779.56820	0.95320
777.51129	0.95293
775.45439	0.95308
773.39748	0.95375
771.34057	0.95395
769.28366	0.95375
767.22675	0.95353
765.16984	0.95355
763.11294	0.95420
761.05603	0.95467
758.99912	0.95448
756.94221	0.95478
754.88530	0.95517
752.82839	0.95480
750.77149	0.95462
748.71458	0.95514
746.65767	0.95576
744.60076	0.95627
742.54385	0.95649
740.48695	0.95610
738.43004	0.95563
736.37313	0.95524
734.31622	0.95459
732.25931	0.95383
730.20240	0.95292
728.14550	0.95201
726.08859	0.95133
724.03168	0.95051
721.97477	0.94977
719.91786	0.94948
717.86096	0.94910
715.80405	0.94852
713.74714	0.94788
711.69023	0.94740
709.63332	0.94691
707.57641	0.94615
705.51951	0.94575
703.46260	0.94562
701.40569	0.94507
699.34878	0.94410
697.29187	0.94284
695.23497	0.94115
693.17806	0.93948
691.12115	0.93898
689.06424	0.93916
687.00733	0.93870
684.95042	0.93832
682.89352	0.93864
680.83661	0.93879
678.77970	0.93855
676.72279	0.93845
674.66588	0.93847
672.60898	0.93850
670.55207	0.93874
668.49516	0.93905
666.43825	0.93895
664.38134	0.93878
662.32443	0.93829
660.26753	0.93695
658.21062	0.93513
656.15371	0.93378
654.09680	0.93298
652.03989	0.93182
649.98299	0.93014
647.92608	0.92823
645.86917	0.92608
643.81226	0.92394
641.75535	0.92220
639.69844	0.92076
637.64154	0.91896
635.58463	0.91668
633.52772	0.91489
631.47081	0.91423
629.41390	0.91417
627.35700	0.91325
625.30009	0.91112
623.24318	0.90899
621.18627	0.90686
619.12936	0.90408
617.07245	0.90100
615.01555	0.89760
612.95864	0.89264
610.90173	0.88589
608.84482	0.87822
606.78791	0.87113
604.73101	0.86605
602.67410	0.86335
600.61719	0.86451
598.56028	0.87000
596.50337	0.87712
594.44646	0.88341
592.38956	0.88902
590.33265	0.89576
588.27574	0.90197
586.21883	0.90511
584.16192	0.90716
582.10502	0.90950
580.04811	0.91114
577.99120	0.91244
575.93429	0.91302
573.87738	0.91161
571.82047	0.90951
569.76357	0.90841
567.70666	0.90818
565.64975	0.90762
563.59284	0.90600
561.53593	0.90466
559.47903	0.90379
557.42212	0.90221
555.36521	0.90176
553.30830	0.90419
551.25139	0.90770
549.19448	0.90969
547.13758	0.90974
545.08067	0.90942
543.02376	0.90946
540.96685	0.90915
538.90994	0.90894
536.85304	0.91000
534.79613	0.91133
532.73922	0.91086
530.68231	0.90968
528.62540	0.91029
526.56849	0.91102
524.51159	0.90969
522.45468	0.90830
520.39777	0.90813
518.34086	0.90763
516.28395	0.90646
514.22705	0.90535
512.17014	0.90402
510.11323	0.90293
508.05632	0.90225
505.99941	0.90153
503.94250	0.90155
501.88560	0.90179
499.82869	0.90067
497.77178	0.89874
495.71487	0.89675
493.65796	0.89562
491.60106	0.89541
489.54415	0.89482
487.48724	0.89390
485.43033	0.89251
483.37342	0.89149
481.31651	0.89195
479.25961	0.89278
477.20270	0.89339
475.14579	0.89345
473.08888	0.89170
471.03197	0.88893
468.97507	0.88682
466.91816	0.88477
464.86125	0.88264
462.80434	0.88058
460.74743	0.87855
458.69052	0.87680
456.63362	0.87562
454.57671	0.87546
452.51980	0.87552
450.46289	0.87574
448.40598	0.87749
446.34908	0.88096
444.29217	0.88453
442.23526	0.88528
440.17835	0.88378
438.12144	0.88345
436.06453	0.88407
434.00763	0.88609
431.95072	0.88898
429.89381	0.88974
427.83690	0.88977
425.77999	0.89013
423.72309	0.89035
421.66618	0.89271
419.60927	0.89602
417.55236	0.89577
415.49545	0.89485
413.43854	0.89568
411.38164	0.89658
409.32473	0.89601
407.26782	0.89354
405.21091	0.89068
403.15400	0.88862
401.09710	0.88640
399.04019	0.88171
