3996.57260	0.98970
3994.51569	0.98955
3992.45878	0.98989
3990.40188	0.98974
3988.34497	0.98938
3986.28806	0.98923
3984.23115	0.98916
3982.17424	0.98907
3980.11733	0.98882
3978.06043	0.98877
3976.00352	0.98906
3973.94661	0.98963
3971.88970	0.99032
3969.83279	0.99070
3967.77589	0.99061
3965.71898	0.99048
3963.66207	0.99051
3961.60516	0.99000
3959.54825	0.98921
3957.49134	0.98906
3955.43444	0.98948
3953.37753	0.99019
3951.32062	0.99091
3949.26371	0.99094
3947.20680	0.99001
3945.14990	0.98901
3943.09299	0.98859
3941.03608	0.98877
3938.97917	0.98900
3936.92226	0.98875
3934.86535	0.98842
3932.80845	0.98832
3930.75154	0.98835
3928.69463	0.98852
3926.63772	0.98883
3924.58081	0.98927
3922.52391	0.98966
3920.46700	0.99010
3918.41009	0.99064
3916.35318	0.99084
3914.29627	0.99048
3912.23936	0.99006
3910.18246	0.99043
3908.12555	0.99116
3906.06864	0.99110
3904.01173	0.98997
3901.95482	0.98894
3899.89792	0.98910
3897.84101	0.98990
3895.78410	0.99020
3893.72719	0.98978
3891.67028	0.98908
3889.61337	0.98860
3887.55647	0.98857
3885.49956	0.98929
3883.44265	0.99035
3881.38574	0.99032
3879.32883	0.98930
3877.27193	0.98911
3875.21502	0.98980
3873.15811	0.99025
3871.10120	0.98962
3869.04429	0.98855
3866.98738	0.98822
3864.93048	0.98850
3862.87357	0.98874
3860.81666	0.98866
3858.75975	0.98884
3856.70284	0.98935
3854.64594	0.98947
3852.58903	0.98846
3850.53212	0.98807
3848.47521	0.98889
3846.41830	0.98983
3844.36139	0.99037
3842.30449	0.98979
3840.24758	0.98853
3838.19067	0.98804
3836.13376	0.98828
3834.07685	0.98899
3832.01995	0.98952
3829.96304	0.98931
3827.90613	0.98908
3825.84922	0.98903
3823.79231	0.98896
3821.73540	0.98911
3819.67850	0.98958
3817.62159	0.98976
3815.56468	0.98946
3813.50777	0.98940
3811.45086	0.98965
3809.39396	0.99008
3807.33705	0.99092
3805.28014	0.99128
3803.22323	0.99080
3801.16632	0.99024
3799.10941	0.98972
3797.05251	0.98917
3794.99560	0.98892
3792.93869	0.98909
3790.88178	0.98946
3788.82487	0.98973
3786.76796	0.98956
3784.71106	0.98918
3782.65415	0.98931
3780.59724	0.98982
3778.54033	0.98982
3776.48342	0.98970
3774.42652	0.99000
3772.36961	0.99017
3770.31270	0.99033
3768.25579	0.99039
3766.19888	0.98998
3764.14197	0.98998
3762.08507	0.99048
3760.02816	0.99040
3757.97125	0.98961
3755.91434	0.98937
3753.85743	0.99010
3751.80053	0.99110
3749.74362	0.99084
3747.68671	0.98983
3745.62980	0.98940
3743.57289	0.98904
3741.51598	0.98880
3739.45908	0.98918
3737.40217	0.99001
3735.34526	0.99051
3733.28835	0.98982
3731.23144	0.98911
3729.17454	0.98912
3727.11763	0.98920
3725.06072	0.98951
3723.00381	0.98996
3720.94690	0.99018
3718.88999	0.99061
3716.83309	0.99099
3714.77618	0.99118
3712.71927	0.99152
3710.66236	0.99140
3708.60545	0.99070
3706.54855	0.99029
3704.49164	0.99047
3702.43473	0.99079
3700.37782	0.99100
3698.32091	0.99124
3696.26400	0.99121
3694.20710	0.99126
3692.15019	0.99151
3690.09328	0.99097
3688.03637	0.98972
3685.97946	0.98907
3683.92256	0.98905
3681.86565	0.98924
3679.80874	0.98948
3677.75183	0.98987
3675.69492	0.99053
3673.63801	0.99072
3671.58111	0.98981
3669.52420	0.98918
3667.46729	0.98969
3665.41038	0.98977
3663.35347	0.98968
3661.29657	0.99034
3659.23966	0.99095
3657.18275	0.99088
3655.12584	0.99099
3653.06893	0.99162
3651.01202	0.99127
3648.95512	0.98964
3646.89821	0.98929
3644.84130	0.98994
3642.78439	0.99017
3640.72748	0.98973
3638.67058	0.98909
3636.61367	0.98896
3634.55676	0.98926
3632.49985	0.98931
3630.44294	0.98889
3628.38603	0.98866
3626.32913	0.98918
3624.27222	0.98983
3622.21531	0.98989
3620.15840	0.98944
3618.10149	0.98967
3616.04459	0.99047
3613.98768	0.99066
3611.93077	0.98993
3609.87386	0.98901
3607.81695	0.98875
3605.76004	0.98891
3603.70314	0.98868
3601.64623	0.98815
3599.58932	0.98781
3597.53241	0.98756
3595.47550	0.98740
3593.41860	0.98781
3591.36169	0.98835
3589.30478	0.98771
3587.24787	0.98600
3585.19096	0.98511
3583.13405	0.98540
3581.07715	0.98569
3579.02024	0.98515
3576.96333	0.98475
3574.90642	0.98525
3572.84951	0.98566
3570.79261	0.98553
3568.73570	0.98536
3566.67879	0.98495
3564.62188	0.98411
3562.56497	0.98327
3560.50806	0.98273
3558.45116	0.98297
3556.39425	0.98376
3554.33734	0.98422
3552.28043	0.98348
3550.22352	0.98184
3548.16662	0.98061
3546.10971	0.98029
3544.05280	0.98026
3541.99589	0.97977
3539.93898	0.97929
3537.88207	0.97882
3535.82517	0.97801
3533.76826	0.97753
3531.71135	0.97745
3529.65444	0.97739
3527.59753	0.97757
3525.54063	0.97781
3523.48372	0.97729
3521.42681	0.97617
3519.36990	0.97507
3517.31299	0.97431
3515.25608	0.97395
3513.19918	0.97364
3511.14227	0.97319
3509.08536	0.97264
3507.02845	0.97237
3504.97154	0.97245
3502.91464	0.97244
3500.85773	0.97237
3498.80082	0.97203
3496.74391	0.97114
3494.68700	0.97040
3492.63009	0.97036
3490.57319	0.97069
3488.51628	0.97073
3486.45937	0.97023
3484.40246	0.96972
3482.34555	0.96905
3480.28865	0.96828
3478.23174	0.96809
3476.17483	0.96795
3474.11792	0.96722
3472.06101	0.96646
3470.00410	0.96626
3467.94720	0.96637
3465.89029	0.96643
3463.83338	0.96625
3461.77647	0.96577
3459.71956	0.96523
3457.66266	0.96494
3455.60575	0.96508
3453.54884	0.96554
3451.49193	0.96569
3449.43502	0.96516
3447.37811	0.96435
3445.32121	0.96380
3443.26430	0.96371
3441.20739	0.96378
3439.15048	0.96363
3437.09357	0.96387
3435.03667	0.96468
3432.97976	0.96526
3430.92285	0.96509
3428.86594	0.96444
3426.80903	0.96395
3424.75212	0.96351
3422.69522	0.96282
3420.63831	0.96252
3418.58140	0.96312
3416.52449	0.96376
3414.46758	0.96360
3412.41068	0.96339
3410.35377	0.96336
3408.29686	0.96303
3406.23995	0.96289
3404.18304	0.96322
3402.12613	0.96358
3400.06923	0.96372
3398.01232	0.96363
3395.95541	0.96337
3393.89850	0.96330
3391.84159	0.96319
3389.78469	0.96259
3387.72778	0.96218
3385.67087	0.96223
3383.61396	0.96237
3381.55705	0.96291
3379.50014	0.96366
3377.44324	0.96384
3375.38633	0.96359
3373.32942	0.96357
3371.27251	0.96358
3369.21560	0.96363
3367.15870	0.96429
3365.10179	0.96468
3363.04488	0.96403
3360.98797	0.96356
3358.93106	0.96366
3356.87415	0.96340
3354.81725	0.96309
3352.76034	0.96346
3350.70343	0.96409
3348.64652	0.96430
3346.58961	0.96404
3344.53271	0.96387
3342.47580	0.96406
3340.41889	0.96421
3338.36198	0.96450
3336.30507	0.96519
3334.24816	0.96548
3332.19126	0.96498
3330.13435	0.96452
3328.07744	0.96479
3326.02053	0.96533
3323.96362	0.96564
3321.90672	0.96593
3319.84981	0.96610
3317.79290	0.96614
3315.73599	0.96623
3313.67908	0.96617
3311.62217	0.96622
3309.56527	0.96642
3307.50836	0.96649
3305.45145	0.96676
3303.39454	0.96699
3301.33763	0.96690
3299.28073	0.96677
3297.22382	0.96672
3295.16691	0.96700
3293.11000	0.96743
3291.05309	0.96752
3288.99618	0.96780
3286.93928	0.96844
3284.88237	0.96873
3282.82546	0.96876
3280.76855	0.96898
3278.71164	0.96904
3276.65474	0.96896
3274.59783	0.96932
3272.54092	0.96968
3270.48401	0.96966
3268.42710	0.96951
3266.37019	0.96924
3264.31329	0.96926
3262.25638	0.96975
3260.19947	0.97027
3258.14256	0.97027
3256.08565	0.97015
3254.02875	0.97052
3251.97184	0.97088
3249.91493	0.97095
3247.85802	0.97110
3245.80111	0.97148
3243.74420	0.97170
3241.68730	0.97178
3239.63039	0.97198
3237.57348	0.97229
3235.51657	0.97286
3233.45966	0.97340
3231.40276	0.97344
3229.34585	0.97324
3227.28894	0.97342
3225.23203	0.97361
3223.17512	0.97326
3221.11821	0.97315
3219.06131	0.97361
3217.00440	0.97396
3214.94749	0.97419
3212.89058	0.97467
3210.83367	0.97514
3208.77677	0.97496
3206.71986	0.97422
3204.66295	0.97373
3202.60604	0.97396
3200.54913	0.97475
3198.49222	0.97530
3196.43532	0.97505
3194.37841	0.97464
3192.32150	0.97479
3190.26459	0.97528
3188.20768	0.97570
3186.15078	0.97635
3184.09387	0.97720
3182.03696	0.97752
3179.98005	0.97711
3177.92314	0.97656
3175.86623	0.97661
3173.80933	0.97697
3171.75242	0.97672
3169.69551	0.97657
3167.63860	0.97718
3165.58169	0.97766
3163.52479	0.97771
3161.46788	0.97751
3159.41097	0.97728
3157.35406	0.97745
3155.29715	0.97779
3153.24024	0.97810
3151.18334	0.97845
3149.12643	0.97850
3147.06952	0.97826
3145.01261	0.97831
3142.95570	0.97847
3140.89880	0.97859
3138.84189	0.97910
3136.78498	0.97969
3134.72807	0.98009
3132.67116	0.98038
3130.61425	0.98028
3128.55735	0.97986
3126.50044	0.97983
3124.44353	0.98022
3122.38662	0.98043
3120.32971	0.98032
3118.27281	0.97999
3116.21590	0.97933
3114.15899	0.97882
3112.10208	0.97913
3110.04517	0.97989
3107.98826	0.98058
3105.93136	0.98112
3103.87445	0.98132
3101.81754	0.98148
3099.76063	0.98213
3097.70372	0.98263
3095.64682	0.98246
3093.58991	0.98212
3091.53300	0.98187
3089.47609	0.98168
3087.41918	0.98172
3085.36227	0.98181
3083.30537	0.98161
3081.24846	0.98131
3079.19155	0.98129
3077.13464	0.98141
3075.07773	0.98136
3073.02083	0.98136
3070.96392	0.98154
3068.90701	0.98162
3066.85010	0.98169
3064.79319	0.98201
3062.73628	0.98232
3060.67938	0.98244
3058.62247	0.98282
3056.56556	0.98310
3054.50865	0.98261
3052.45174	0.98218
3050.39484	0.98263
3048.33793	0.98318
3046.28102	0.98314
3044.22411	0.98311
3042.16720	0.98315
3040.11029	0.98283
3038.05339	0.98271
3035.99648	0.98300
3033.93957	0.98303
3031.88266	0.98295
3029.82575	0.98309
3027.76885	0.98295
3025.71194	0.98238
3023.65503	0.98196
3021.59812	0.98215
3019.54121	0.98245
3017.48430	0.98264
3015.42740	0.98278
3013.37049	0.98259
3011.31358	0.98244
3009.25667	0.98269
3007.19976	0.98298
3005.14286	0.98316
3003.08595	0.98338
3001.02904	0.98326
2998.97213	0.98273
2996.91522	0.98237
2994.85831	0.98242
2992.80141	0.98279
2990.74450	0.98309
2988.68759	0.98300
2986.63068	0.98272
2984.57377	0.98259
2982.51687	0.98246
2980.45996	0.98205
2978.40305	0.98161
2976.34614	0.98157
2974.28923	0.98179
2972.23232	0.98168
2970.17542	0.98089
2968.11851	0.97983
2966.06160	0.97923
2964.00469	0.97911
2961.94778	0.97905
2959.89088	0.97892
2957.83397	0.97869
2955.77706	0.97837
2953.72015	0.97794
2951.66324	0.97719
2949.60633	0.97664
2947.54943	0.97666
2945.49252	0.97646
2943.43561	0.97570
2941.37870	0.97476
2939.32179	0.97378
2937.26489	0.97296
2935.20798	0.97254
2933.15107	0.97226
2931.09416	0.97193
2929.03725	0.97149
2926.98034	0.97054
2924.92344	0.96937
2922.86653	0.96918
2920.80962	0.96983
2918.75271	0.97013
2916.69580	0.96995
2914.63890	0.97006
2912.58199	0.97050
2910.52508	0.97074
2908.46817	0.97079
2906.41126	0.97082
2904.35435	0.97092
2902.29745	0.97104
2900.24054	0.97099
2898.18363	0.97093
2896.12672	0.97095
2894.06981	0.97099
2892.01291	0.97102
2889.95600	0.97090
2887.89909	0.97062
2885.84218	0.97049
2883.78527	0.97079
2881.72836	0.97123
2879.67146	0.97128
2877.61455	0.97126
2875.55764	0.97152
2873.50073	0.97171
2871.44382	0.97175
2869.38692	0.97183
2867.33001	0.97187
2865.27310	0.97205
2863.21619	0.97241
2861.15928	0.97262
2859.10237	0.97274
2857.04547	0.97295
2854.98856	0.97329
2852.93165	0.97357
2850.87474	0.97371
2848.81783	0.97388
2846.76093	0.97445
2844.70402	0.97553
2842.64711	0.97644
2840.59020	0.97703
2838.53329	0.97762
2836.47638	0.97805
2834.41948	0.97841
2832.36257	0.97879
2830.30566	0.97904
2828.24875	0.97934
2826.19184	0.97973
2824.13494	0.97963
2822.07803	0.97913
2820.02112	0.97913
2817.96421	0.97966
2815.90730	0.98003
2813.85039	0.98026
2811.79349	0.98045
2809.73658	0.98047
2807.67967	0.98036
2805.62276	0.98029
2803.56585	0.98038
2801.50895	0.98055
2799.45204	0.98078
2797.39513	0.98110
2795.33822	0.98135
2793.28131	0.98138
2791.22440	0.98141
2789.16750	0.98144
2787.11059	0.98149
2785.05368	0.98177
2782.99677	0.98209
2780.93986	0.98219
2778.88296	0.98196
2776.82605	0.98161
2774.76914	0.98159
2772.71223	0.98182
2770.65532	0.98190
2768.59841	0.98170
2766.54151	0.98140
2764.48460	0.98129
2762.42769	0.98133
2760.37078	0.98143
2758.31387	0.98158
2756.25697	0.98174
2754.20006	0.98187
2752.14315	0.98185
2750.08624	0.98174
2748.02933	0.98179
2745.97242	0.98204
2743.91552	0.98228
2741.85861	0.98232
2739.80170	0.98252
2737.74479	0.98283
2735.68788	0.98275
2733.63098	0.98240
2731.57407	0.98219
2729.51716	0.98233
2727.46025	0.98256
2725.40334	0.98253
2723.34643	0.98229
2721.28953	0.98228
2719.23262	0.98257
2717.17571	0.98256
2715.11880	0.98203
2713.06189	0.98166
2711.00499	0.98199
2708.94808	0.98274
2706.89117	0.98343
2704.83426	0.98364
2702.77735	0.98333
2700.72044	0.98285
2698.66354	0.98247
2696.60663	0.98243
2694.54972	0.98263
2692.49281	0.98272
2690.43590	0.98290
2688.37900	0.98320
2686.32209	0.98324
2684.26518	0.98292
2682.20827	0.98259
2680.15136	0.98266
2678.09445	0.98310
2676.03755	0.98349
2673.98064	0.98346
2671.92373	0.98311
2669.86682	0.98294
2667.80991	0.98319
2665.75301	0.98351
2663.69610	0.98334
2661.63919	0.98278
2659.58228	0.98249
2657.52537	0.98264
2655.46846	0.98274
2653.41156	0.98248
2651.35465	0.98229
2649.29774	0.98268
2647.24083	0.98323
2645.18392	0.98307
2643.12702	0.98274
2641.07011	0.98299
2639.01320	0.98319
2636.95629	0.98280
2634.89938	0.98253
2632.84247	0.98287
2630.78557	0.98331
2628.72866	0.98349
2626.67175	0.98351
2624.61484	0.98344
2622.55793	0.98341
2620.50103	0.98344
2618.44412	0.98331
2616.38721	0.98299
2614.33030	0.98260
2612.27339	0.98241
2610.21648	0.98249
2608.15958	0.98257
2606.10267	0.98262
2604.04576	0.98259
2601.98885	0.98263
2599.93194	0.98315
2597.87504	0.98406
2595.81813	0.98472
2593.76122	0.98463
2591.70431	0.98443
2589.64740	0.98471
2587.59049	0.98518
2585.53359	0.98521
2583.47668	0.98486
2581.41977	0.98493
2579.36286	0.98538
2577.30595	0.98535
2575.24905	0.98482
2573.19214	0.98434
2571.13523	0.98407
2569.07832	0.98428
2567.02141	0.98494
2564.96450	0.98540
2562.90760	0.98527
2560.85069	0.98490
2558.79378	0.98479
2556.73687	0.98486
2554.67996	0.98504
2552.62306	0.98532
2550.56615	0.98515
2548.50924	0.98456
2546.45233	0.98421
2544.39542	0.98429
2542.33851	0.98482
2540.28161	0.98558
2538.22470	0.98607
2536.16779	0.98584
2534.11088	0.98528
2532.05397	0.98525
2529.99707	0.98550
2527.94016	0.98567
2525.88325	0.98574
2523.82634	0.98546
2521.76943	0.98505
2519.71252	0.98478
2517.65562	0.98478
2515.59871	0.98494
2513.54180	0.98539
2511.48489	0.98611
2509.42798	0.98625
2507.37108	0.98597
2505.31417	0.98589
2503.25726	0.98570
2501.20035	0.98537
2499.14344	0.98501
2497.08653	0.98478
2495.02963	0.98489
2492.97272	0.98484
2490.91581	0.98469
2488.85890	0.98485
2486.80199	0.98489
2484.74509	0.98495
2482.68818	0.98537
2480.63127	0.98558
2478.57436	0.98539
2476.51745	0.98529
2474.46054	0.98512
2472.40364	0.98496
2470.34673	0.98566
2468.28982	0.98660
2466.23291	0.98699
2464.17600	0.98686
2462.11910	0.98611
2460.06219	0.98557
2458.00528	0.98593
2455.94837	0.98639
2453.89146	0.98645
2451.83455	0.98625
2449.77765	0.98571
2447.72074	0.98551
2445.66383	0.98605
2443.60692	0.98658
2441.55001	0.98701
2439.49311	0.98761
2437.43620	0.98765
2435.37929	0.98685
2433.32238	0.98609
2431.26547	0.98595
2429.20856	0.98608
2427.15166	0.98614
2425.09475	0.98625
2423.03784	0.98632
2420.98093	0.98616
2418.92402	0.98604
2416.86712	0.98598
2414.81021	0.98560
2412.75330	0.98521
2410.69639	0.98546
2408.63948	0.98569
2406.58257	0.98560
2404.52567	0.98561
2402.46876	0.98560
2400.41185	0.98572
2398.35494	0.98595
2396.29803	0.98605
2394.24113	0.98608
2392.18422	0.98592
2390.12731	0.98564
2388.07040	0.98591
2386.01349	0.98659
2383.95658	0.98682
2381.89968	0.98676
2379.84277	0.98688
2377.78586	0.98687
2375.72895	0.98636
2373.67204	0.98560
2371.61514	0.98546
2369.55823	0.98662
2367.50132	0.98780
2365.44441	0.98807
2363.38750	0.98788
2361.33059	0.98669
2359.27369	0.98570
2357.21678	0.98640
2355.15987	0.98683
2353.10296	0.98605
2351.04605	0.98531
2348.98915	0.98524
2346.93224	0.98554
2344.87533	0.98601
2342.81842	0.98657
2340.76151	0.98663
2338.70460	0.98649
2336.64770	0.98678
2334.59079	0.98671
2332.53388	0.98597
2330.47697	0.98562
2328.42006	0.98581
2326.36316	0.98518
2324.30625	0.98404
2322.24934	0.98402
2320.19243	0.98483
2318.13552	0.98514
2316.07861	0.98494
2314.02171	0.98492
2311.96480	0.98520
2309.90789	0.98544
2307.85098	0.98556
2305.79407	0.98579
2303.73717	0.98625
2301.68026	0.98643
2299.62335	0.98564
2297.56644	0.98468
2295.50953	0.98427
2293.45262	0.98396
2291.39572	0.98373
2289.33881	0.98400
2287.28190	0.98466
2285.22499	0.98489
2283.16808	0.98458
2281.11117	0.98432
2279.05427	0.98435
2276.99736	0.98481
2274.94045	0.98553
2272.88354	0.98612
2270.82663	0.98623
2268.76973	0.98585
2266.71282	0.98570
2264.65591	0.98639
2262.59900	0.98726
2260.54209	0.98678
2258.48518	0.98552
2256.42828	0.98561
2254.37137	0.98621
2252.31446	0.98561
2250.25755	0.98467
2248.20064	0.98460
2246.14374	0.98564
2244.08683	0.98652
2242.02992	0.98610
2239.97301	0.98534
2237.91610	0.98497
2235.85919	0.98511
2233.80229	0.98628
2231.74538	0.98815
2229.68847	0.98921
2227.63156	0.98849
2225.57465	0.98713
2223.51775	0.98648
2221.46084	0.98585
2219.40393	0.98574
2217.34702	0.98669
2215.29011	0.98690
2213.23320	0.98669
2211.17630	0.98733
2209.11939	0.98788
2207.06248	0.98812
2205.00557	0.98832
2202.94866	0.98787
2200.89176	0.98719
2198.83485	0.98763
2196.77794	0.98857
2194.72103	0.98809
2192.66412	0.98710
2190.60721	0.98747
2188.55031	0.98944
2186.49340	0.99116
2184.43649	0.98944
2182.37958	0.98568
2180.32267	0.98462
2178.26577	0.98697
2176.20886	0.98991
2174.15195	0.98976
2172.09504	0.98608
2170.03813	0.98355
2167.98122	0.98392
2165.92432	0.98475
2163.86741	0.98508
2161.81050	0.98544
2159.75359	0.98729
2157.69668	0.98979
2155.63978	0.99119
2153.58287	0.99150
2151.52596	0.99021
2149.46905	0.98809
2147.41214	0.98743
2145.35523	0.98823
2143.29833	0.98879
2141.24142	0.98855
2139.18451	0.98762
2137.12760	0.98794
2135.07069	0.98986
2133.01379	0.99010
2130.95688	0.98860
2128.89997	0.98785
2126.84306	0.98777
2124.78615	0.98714
2122.72924	0.98612
2120.67234	0.98579
2118.61543	0.98622
2116.55852	0.98664
2114.50161	0.98712
2112.44470	0.98793
2110.38780	0.98856
2108.33089	0.98854
2106.27398	0.98783
2104.21707	0.98683
2102.16016	0.98681
2100.10325	0.98779
2098.04635	0.98823
2095.98944	0.98802
2093.93253	0.98788
2091.87562	0.98805
2089.81871	0.98812
2087.76181	0.98699
2085.70490	0.98516
2083.64799	0.98440
2081.59108	0.98495
2079.53417	0.98592
2077.47726	0.98638
2075.42036	0.98605
2073.36345	0.98613
2071.30654	0.98749
2069.24963	0.98883
2067.19272	0.98907
2065.13582	0.98926
2063.07891	0.98969
2061.02200	0.98882
2058.96509	0.98728
2056.90818	0.98734
2054.85127	0.98900
2052.79437	0.98973
2050.73746	0.98836
2048.68055	0.98788
2046.62364	0.98918
2044.56673	0.98942
2042.50983	0.98823
2040.45292	0.98640
2038.39601	0.98492
2036.33910	0.98499
2034.28219	0.98619
2032.22528	0.98747
2030.16838	0.98738
2028.11147	0.98582
2026.05456	0.98552
2023.99765	0.98738
2021.94074	0.98809
2019.88384	0.98714
2017.82693	0.98789
2015.77002	0.99060
2013.71311	0.99299
2011.65620	0.99376
2009.59929	0.99307
2007.54239	0.99174
2005.48548	0.99100
2003.42857	0.99110
2001.37166	0.98967
1999.31475	0.98732
1997.25785	0.98650
1995.20094	0.98730
1993.14403	0.98906
1991.08712	0.98941
1989.03021	0.98791
1986.97330	0.98701
1984.91640	0.98689
1982.85949	0.98649
1980.80258	0.98664
1978.74567	0.98896
1976.68876	0.99170
1974.63186	0.99248
1972.57495	0.99235
1970.51804	0.99188
1968.46113	0.99123
1966.40422	0.99065
1964.34731	0.98931
1962.29041	0.98789
1960.23350	0.98765
1958.17659	0.98836
1956.11968	0.98977
1954.06277	0.99085
1952.00587	0.99044
1949.94896	0.98991
1947.89205	0.98973
1945.83514	0.98894
1943.77823	0.98791
1941.72132	0.98761
1939.66442	0.98808
1937.60751	0.98841
1935.55060	0.98868
1933.49369	0.98883
1931.43678	0.98782
1929.37988	0.98632
1927.32297	0.98589
1925.26606	0.98663
1923.20915	0.98816
1921.15224	0.98991
1919.09533	0.99054
1917.03843	0.98955
1914.98152	0.98826
1912.92461	0.98781
1910.86770	0.98796
1908.81079	0.98832
1906.75389	0.98850
1904.69698	0.98816
1902.64007	0.98821
1900.58316	0.98900
1898.52625	0.98910
1896.46934	0.98812
1894.41244	0.98752
1892.35553	0.98777
1890.29862	0.98797
1888.24171	0.98800
1886.18480	0.98837
1884.12790	0.98849
1882.07099	0.98813
1880.01408	0.98797
1877.95717	0.98792
1875.90026	0.98792
1873.84335	0.98802
1871.78645	0.98786
1869.72954	0.98766
1867.67263	0.98791
1865.61572	0.98830
1863.55881	0.98866
1861.50191	0.98903
1859.44500	0.98941
1857.38809	0.98960
1855.33118	0.98921
1853.27427	0.98854
1851.21736	0.98843
1849.16046	0.98896
1847.10355	0.98933
1845.04664	0.98918
1842.98973	0.98898
1840.93282	0.98893
1838.87592	0.98886
1836.81901	0.98877
1834.76210	0.98867
1832.70519	0.98865
1830.64828	0.98855
1828.59137	0.98852
1826.53447	0.98889
1824.47756	0.98884
1822.42065	0.98830
1820.36374	0.98821
1818.30683	0.98868
1816.24993	0.98894
1814.19302	0.98865
1812.13611	0.98858
1810.07920	0.98885
1808.02229	0.98877
1805.96538	0.98846
1803.90848	0.98856
1801.85157	0.98903
1799.79466	0.98901
1797.73775	0.98835
1795.68084	0.98806
1793.62394	0.98840
1791.56703	0.98857
1789.51012	0.98839
1787.45321	0.98827
1785.39630	0.98818
1783.33939	0.98815
1781.28249	0.98821
1779.22558	0.98786
1777.16867	0.98728
1775.11176	0.98702
1773.05485	0.98682
1770.99795	0.98634
1768.94104	0.98551
1766.88413	0.98430
1764.82722	0.98296
1762.77031	0.98109
1760.71340	0.97856
1758.65650	0.97610
1756.59959	0.97353
1754.54268	0.97118
1752.48577	0.96893
1750.42886	0.96588
1748.37196	0.96239
1746.31505	0.95952
1744.25814	0.95707
1742.20123	0.95479
1740.14432	0.95270
1738.08741	0.95101
1736.03051	0.94974
1733.97360	0.94818
1731.91669	0.94717
1729.85978	0.94692
1727.80287	0.94652
1725.74597	0.94627
1723.68906	0.94653
1721.63215	0.94724
1719.57524	0.94829
1717.51833	0.94954
1715.46142	0.95100
1713.40452	0.95278
1711.34761	0.95477
1709.29070	0.95689
1707.23379	0.95909
1705.17688	0.96151
1703.11998	0.96369
1701.06307	0.96552
1699.00616	0.96714
1696.94925	0.96864
1694.89234	0.97034
1692.83543	0.97175
1690.77853	0.97292
1688.72162	0.97408
1686.66471	0.97511
1684.60780	0.97578
1682.55089	0.97620
1680.49399	0.97691
1678.43708	0.97782
1676.38017	0.97843
1674.32326	0.97862
1672.26635	0.97908
1670.20944	0.97977
1668.15254	0.97987
1666.09563	0.97944
1664.03872	0.97896
1661.98181	0.97869
1659.92490	0.97863
1657.86800	0.97869
1655.81109	0.97884
1653.75418	0.97857
1651.69727	0.97785
1649.64036	0.97766
1647.58345	0.97773
1645.52655	0.97796
1643.46964	0.97826
1641.41273	0.97841
1639.35582	0.97849
1637.29891	0.97871
1635.24201	0.97875
1633.18510	0.97890
1631.12819	0.97935
1629.07128	0.97934
1627.01437	0.97896
1624.95746	0.97892
1622.90056	0.97909
1620.84365	0.97909
1618.78674	0.97879
1616.72983	0.97824
1614.67292	0.97795
1612.61602	0.97793
1610.55911	0.97787
1608.50220	0.97771
1606.44529	0.97744
1604.38838	0.97729
1602.33147	0.97729
1600.27457	0.97722
1598.21766	0.97712
1596.16075	0.97708
1594.10384	0.97700
1592.04693	0.97692
1589.99003	0.97686
1587.93312	0.97675
1585.87621	0.97670
1583.81930	0.97675
1581.76239	0.97680
1579.70548	0.97682
1577.64858	0.97668
1575.59167	0.97639
1573.53476	0.97634
1571.47785	0.97660
1569.42094	0.97707
1567.36404	0.97731
1565.30713	0.97705
1563.25022	0.97699
1561.19331	0.97749
1559.13640	0.97779
1557.07949	0.97770
1555.02259	0.97795
1552.96568	0.97820
1550.90877	0.97843
1548.85186	0.97864
1546.79495	0.97876
1544.73805	0.97888
1542.68114	0.97884
1540.62423	0.97837
1538.56732	0.97847
1536.51041	0.97916
1534.45350	0.97951
1532.39660	0.97948
1530.33969	0.97954
1528.28278	0.97965
1526.22587	0.97981
1524.16896	0.97999
1522.11206	0.97973
1520.05515	0.97937
1517.99824	0.97928
1515.94133	0.97919
1513.88442	0.97947
1511.82751	0.98027
1509.77061	0.98089
1507.71370	0.98071
1505.65679	0.98019
1503.59988	0.98010
1501.54297	0.98025
1499.48607	0.98043
1497.42916	0.98027
1495.37225	0.98010
1493.31534	0.98030
1491.25843	0.98049
1489.20152	0.98026
1487.14462	0.97982
1485.08771	0.97960
1483.03080	0.97943
1480.97389	0.97899
1478.91698	0.97834
1476.86008	0.97765
1474.80317	0.97682
1472.74626	0.97564
1470.68935	0.97449
1468.63244	0.97374
1466.57553	0.97303
1464.51863	0.97208
1462.46172	0.97124
1460.40481	0.97062
1458.34790	0.96956
1456.29099	0.96819
1454.23409	0.96766
1452.17718	0.96743
1450.12027	0.96721
1448.06336	0.96677
1446.00645	0.96576
1443.94954	0.96482
1441.89264	0.96420
1439.83573	0.96350
1437.77882	0.96270
1435.72191	0.96208
1433.66500	0.96188
1431.60810	0.96181
1429.55119	0.96152
1427.49428	0.96114
1425.43737	0.96073
1423.38046	0.96044
1421.32355	0.96071
1419.26665	0.96093
1417.20974	0.96048
1415.15283	0.96015
1413.09592	0.96023
1411.03901	0.96035
1408.98211	0.96024
1406.92520	0.96018
1404.86829	0.96033
1402.81138	0.96062
1400.75447	0.96093
1398.69756	0.96104
1396.64066	0.96086
1394.58375	0.96018
1392.52684	0.95928
1390.46993	0.95866
1388.41302	0.95783
1386.35612	0.95647
1384.29921	0.95510
1382.24230	0.95362
1380.18539	0.95177
1378.12848	0.94970
1376.07157	0.94771
1374.01467	0.94593
1371.95776	0.94469
1369.90085	0.94434
1367.84394	0.94482
1365.78703	0.94587
1363.73013	0.94741
1361.67322	0.94930
1359.61631	0.95092
1357.55940	0.95227
1355.50249	0.95371
1353.44558	0.95508
1351.38868	0.95600
1349.33177	0.95666
1347.27486	0.95745
1345.21795	0.95812
1343.16104	0.95848
1341.10414	0.95876
1339.04723	0.95899
1336.99032	0.95908
1334.93341	0.95920
1332.87650	0.95938
1330.81959	0.95940
1328.76269	0.95931
1326.70578	0.95940
1324.64887	0.95978
1322.59196	0.96014
1320.53505	0.96015
1318.47815	0.95991
1316.42124	0.95980
1314.36433	0.95998
1312.30742	0.96037
1310.25051	0.96085
1308.19360	0.96126
1306.13670	0.96152
1304.07979	0.96163
1302.02288	0.96173
1299.96597	0.96186
1297.90906	0.96184
1295.85216	0.96163
1293.79525	0.96126
1291.73834	0.96099
1289.68143	0.96104
1287.62452	0.96084
1285.56761	0.95995
1283.51071	0.95869
1281.45380	0.95756
1279.39689	0.95678
1277.33998	0.95604
1275.28307	0.95485
1273.22617	0.95316
1271.16926	0.95136
1269.11235	0.94969
1267.05544	0.94816
1264.99853	0.94655
1262.94162	0.94463
1260.88472	0.94260
1258.82781	0.94048
1256.77090	0.93832
1254.71399	0.93635
1252.65708	0.93424
1250.60018	0.93185
1248.54327	0.92955
1246.48636	0.92758
1244.42945	0.92574
1242.37254	0.92389
1240.31563	0.92237
1238.25873	0.92130
1236.20182	0.92041
1234.14491	0.91957
1232.08800	0.91903
1230.03109	0.91887
1227.97419	0.91922
1225.91728	0.92029
1223.86037	0.92203
1221.80346	0.92425
1219.74655	0.92688
1217.68964	0.92990
1215.63274	0.93325
1213.57583	0.93663
1211.51892	0.93973
1209.46201	0.94220
1207.40510	0.94390
1205.34820	0.94536
1203.29129	0.94684
1201.23438	0.94803
1199.17747	0.94926
1197.12056	0.95087
1195.06365	0.95246
1193.00675	0.95383
1190.94984	0.95525
1188.89293	0.95647
1186.83602	0.95696
1184.77911	0.95689
1182.72221	0.95653
1180.66530	0.95566
1178.60839	0.95447
1176.55148	0.95321
1174.49457	0.95161
1172.43766	0.94944
1170.38076	0.94687
1168.32385	0.94406
1166.26694	0.94110
1164.21003	0.93841
1162.15312	0.93640
1160.09622	0.93519
1158.03931	0.93459
1155.98240	0.93426
1153.92549	0.93439
1151.86858	0.93516
1149.81167	0.93622
1147.75477	0.93712
1145.69786	0.93741
1143.64095	0.93726
1141.58404	0.93692
1139.52713	0.93617
1137.47023	0.93497
1135.41332	0.93325
1133.35641	0.93108
1131.29950	0.92883
1129.24259	0.92656
1127.18568	0.92443
1125.12878	0.92250
1123.07187	0.92060
1121.01496	0.91870
1118.95805	0.91662
1116.90114	0.91458
1114.84424	0.91324
1112.78733	0.91259
1110.73042	0.91191
1108.67351	0.91071
1106.61660	0.90921
1104.55969	0.90781
1102.50279	0.90653
1100.44588	0.90520
1098.38897	0.90372
1096.33206	0.90212
1094.27515	0.90071
1092.21825	0.89965
1090.16134	0.89861
1088.10443	0.89714
1086.04752	0.89523
1083.99061	0.89308
1081.93370	0.89072
1079.87680	0.88808
1077.81989	0.88532
1075.76298	0.88251
1073.70607	0.87948
1071.64916	0.87627
1069.59226	0.87350
1067.53535	0.87155
1065.47844	0.87015
1063.42153	0.86879
1061.36462	0.86696
1059.30771	0.86507
1057.25081	0.86372
1055.19390	0.86257
1053.13699	0.86154
1051.08008	0.86052
1049.02317	0.85890
1046.96627	0.85710
1044.90936	0.85565
1042.85245	0.85437
1040.79554	0.85332
1038.73863	0.85210
1036.68172	0.85037
1034.62482	0.84850
1032.56791	0.84657
1030.51100	0.84445
1028.45409	0.84222
1026.39718	0.84056
1024.34028	0.83999
1022.28337	0.83996
1020.22646	0.83965
1018.16955	0.83906
1016.11264	0.83896
1014.05573	0.83982
1011.99883	0.84109
1009.94192	0.84231
1007.88501	0.84373
1005.82810	0.84540
1003.77119	0.84688
1001.71429	0.84793
999.65738	0.84869
997.60047	0.84936
995.54356	0.85015
993.48665	0.85131
991.42974	0.85286
989.37284	0.85470
987.31593	0.85678
985.25902	0.85906
983.20211	0.86150
981.14520	0.86397
979.08830	0.86653
977.03139	0.86942
974.97448	0.87225
972.91757	0.87463
970.86066	0.87707
968.80375	0.87992
966.74685	0.88274
964.68994	0.88526
962.63303	0.88764
960.57612	0.88977
958.51921	0.89193
956.46231	0.89439
954.40540	0.89682
952.34849	0.89909
950.29158	0.90150
948.23467	0.90359
946.17776	0.90492
944.12086	0.90640
942.06395	0.90846
940.00704	0.91018
937.95013	0.91118
935.89322	0.91177
933.83632	0.91236
931.77941	0.91322
929.72250	0.91426
927.66559	0.91513
925.60868	0.91568
923.55177	0.91631
921.49487	0.91681
919.43796	0.91706
917.38105	0.91772
915.32414	0.91836
913.26723	0.91827
911.21033	0.91767
909.15342	0.91685
907.09651	0.91610
905.03960	0.91562
902.98269	0.91546
900.92578	0.91523
898.86888	0.91463
896.81197	0.91433
894.75506	0.91461
892.69815	0.91527
890.64124	0.91621
888.58434	0.91707
886.52743	0.91787
884.47052	0.91906
882.41361	0.92048
880.35670	0.92190
878.29979	0.92359
876.24289	0.92560
874.18598	0.92765
872.12907	0.92947
870.07216	0.93114
868.01525	0.93285
865.95835	0.93439
863.90144	0.93573
861.84453	0.93686
859.78762	0.93770
857.73071	0.93843
855.67380	0.93897
853.61690	0.93946
851.55999	0.93999
849.50308	0.94025
847.44617	0.94043
845.38926	0.94070
843.33236	0.94105
841.27545	0.94147
839.21854	0.94186
837.16163	0.94208
835.10472	0.94190
833.04781	0.94151
830.99091	0.94172
828.93400	0.94266
826.87709	0.94372
824.82018	0.94450
822.76327	0.94465
820.70637	0.94435
818.64946	0.94430
816.59255	0.94469
814.53564	0.94505
812.47873	0.94516
810.42182	0.94509
808.36492	0.94491
806.30801	0.94486
804.25110	0.94509
802.19419	0.94522
800.13728	0.94504
798.08038	0.94522
796.02347	0.94583
793.96656	0.94626
791.90965	0.94643
789.85274	0.94630
787.79583	0.94594
785.73893	0.94617
783.68202	0.94689
781.62511	0.94698
779.56820	0.94695
777.51129	0.94719
775.45439	0.94693
773.39748	0.94684
771.34057	0.94739
769.28366	0.94767
767.22675	0.94774
765.16984	0.94797
763.11294	0.94817
761.05603	0.94848
758.99912	0.94890
756.94221	0.94925
754.88530	0.94950
752.82839	0.94989
750.77149	0.95004
748.71458	0.94910
746.65767	0.94802
744.60076	0.94802
742.54385	0.94837
740.48695	0.94827
738.43004	0.94785
736.37313	0.94770
734.31622	0.94822
732.25931	0.94875
730.20240	0.94863
728.14550	0.94794
726.08859	0.94678
724.03168	0.94561
721.97477	0.94525
719.91786	0.94546
717.86096	0.94562
715.80405	0.94581
713.74714	0.94565
711.69023	0.94466
709.63332	0.94354
707.57641	0.94312
705.51951	0.94293
703.46260	0.94263
701.40569	0.94294
699.34878	0.94393
697.29187	0.94426
695.23497	0.94327
693.17806	0.94189
691.12115	0.94090
689.06424	0.94046
687.00733	0.94030
684.95042	0.93971
682.89352	0.93877
680.83661	0.93763
678.77970	0.93647
676.72279	0.93555
674.66588	0.93410
672.60898	0.93246
670.55207	0.93150
668.49516	0.93004
666.43825	0.92833
664.38134	0.92800
662.32443	0.92822
660.26753	0.92811
658.21062	0.92781
656.15371	0.92804
654.09680	0.92852
652.03989	0.92845
649.98299	0.92752
647.92608	0.92643
645.86917	0.92590
643.81226	0.92547
641.75535	0.92506
639.69844	0.92460
637.64154	0.92324
635.58463	0.92136
633.52772	0.92040
631.47081	0.92046
629.41390	0.91994
627.35700	0.91845
625.30009	0.91708
623.24318	0.91610
621.18627	0.91508
619.12936	0.91388
617.07245	0.91238
615.01555	0.91078
612.95864	0.91021
610.90173	0.91085
608.84482	0.91095
606.78791	0.90964
604.73101	0.90789
602.67410	0.90662
600.61719	0.90547
598.56028	0.90453
596.50337	0.90439
594.44646	0.90425
592.38956	0.90400
590.33265	0.90427
588.27574	0.90477
586.21883	0.90570
584.16192	0.90717
582.10502	0.90782
580.04811	0.90669
577.99120	0.90501
575.93429	0.90441
573.87738	0.90405
571.82047	0.90280
569.76357	0.90113
567.70666	0.89976
565.64975	0.89956
563.59284	0.90064
561.53593	0.90169
559.47903	0.90180
557.42212	0.90139
555.36521	0.90113
553.30830	0.90124
551.25139	0.90152
549.19448	0.90205
547.13758	0.90259
545.08067	0.90220
543.02376	0.90170
540.96685	0.90173
538.90994	0.90021
536.85304	0.89805
534.79613	0.89805
532.73922	0.89849
530.68231	0.89767
528.62540	0.89700
526.56849	0.89671
524.51159	0.89635
522.45468	0.89679
520.39777	0.89771
518.34086	0.89734
516.28395	0.89603
514.22705	0.89490
512.17014	0.89359
510.11323	0.89255
508.05632	0.89183
505.99941	0.89048
503.94250	0.88929
501.88560	0.88866
499.82869	0.88699
497.77178	0.88519
495.71487	0.88528
493.65796	0.88611
491.60106	0.88612
489.54415	0.88513
487.48724	0.88299
485.43033	0.88083
483.37342	0.87985
481.31651	0.87921
479.25961	0.87862
477.20270	0.87956
475.14579	0.88145
473.08888	0.88137
471.03197	0.87909
468.97507	0.87699
466.91816	0.87539
464.86125	0.87358
462.80434	0.87181
460.74743	0.87168
458.69052	0.87251
456.63362	0.87230
454.57671	0.87243
452.51980	0.87330
450.46289	0.87354
448.40598	0.87271
446.34908	0.87185
444.29217	0.87197
442.23526	0.87118
440.17835	0.86921
438.12144	0.86833
436.06453	0.86780
434.00763	0.86684
431.95072	0.86778
429.89381	0.86967
427.83690	0.86752
425.77999	0.86315
423.72309	0.86217
421.66618	0.86392
419.60927	0.86738
417.55236	0.87103
415.49545	0.87342
413.43854	0.87591
411.38164	0.87509
409.32473	0.86895
407.26782	0.86277
405.21091	0.86177
403.15400	0.86656
401.09710	0.87364
399.04019	0.87434
