3996.57260	0.99347
3994.51569	0.99336
3992.45878	0.99293
3990.40188	0.99258
3988.34497	0.99255
3986.28806	0.99231
3984.23115	0.99194
3982.17424	0.99178
3980.11733	0.99173
3978.06043	0.99174
3976.00352	0.99171
3973.94661	0.99180
3971.88970	0.99232
3969.83279	0.99307
3967.77589	0.99375
3965.71898	0.99423
3963.66207	0.99411
3961.60516	0.99309
3959.54825	0.99216
3957.49134	0.99227
3955.43444	0.99257
3953.37753	0.99250
3951.32062	0.99270
3949.26371	0.99321
3947.20680	0.99345
3945.14990	0.99320
3943.09299	0.99275
3941.03608	0.99264
3938.97917	0.99283
3936.92226	0.99296
3934.86535	0.99307
3932.80845	0.99288
3930.75154	0.99241
3928.69463	0.99212
3926.63772	0.99197
3924.58081	0.99217
3922.52391	0.99240
3920.46700	0.99221
3918.41009	0.99187
3916.35318	0.99179
3914.29627	0.99205
3912.23936	0.99261
3910.18246	0.99354
3908.12555	0.99410
3906.06864	0.99369
3904.01173	0.99280
3901.95482	0.99272
3899.89792	0.99368
3897.84101	0.99412
3895.78410	0.99356
3893.72719	0.99299
3891.67028	0.99315
3889.61337	0.99352
3887.55647	0.99330
3885.49956	0.99257
3883.44265	0.99235
3881.38574	0.99288
3879.32883	0.99326
3877.27193	0.99352
3875.21502	0.99371
3873.15811	0.99322
3871.10120	0.99215
3869.04429	0.99135
3866.98738	0.99121
3864.93048	0.99117
3862.87357	0.99130
3860.81666	0.99179
3858.75975	0.99247
3856.70284	0.99304
3854.64594	0.99323
3852.58903	0.99327
3850.53212	0.99291
3848.47521	0.99271
3846.41830	0.99325
3844.36139	0.99388
3842.30449	0.99410
3840.24758	0.99395
3838.19067	0.99343
3836.13376	0.99297
3834.07685	0.99273
3832.01995	0.99244
3829.96304	0.99224
3827.90613	0.99231
3825.84922	0.99231
3823.79231	0.99206
3821.73540	0.99189
3819.67850	0.99231
3817.62159	0.99293
3815.56468	0.99300
3813.50777	0.99268
3811.45086	0.99246
3809.39396	0.99238
3807.33705	0.99280
3805.28014	0.99393
3803.22323	0.99444
3801.16632	0.99408
3799.10941	0.99423
3797.05251	0.99467
3794.99560	0.99440
3792.93869	0.99359
3790.88178	0.99315
3788.82487	0.99354
3786.76796	0.99415
3784.71106	0.99398
3782.65415	0.99338
3780.59724	0.99318
3778.54033	0.99280
3776.48342	0.99222
3774.42652	0.99239
3772.36961	0.99290
3770.31270	0.99285
3768.25579	0.99244
3766.19888	0.99231
3764.14197	0.99251
3762.08507	0.99289
3760.02816	0.99318
3757.97125	0.99327
3755.91434	0.99344
3753.85743	0.99384
3751.80053	0.99419
3749.74362	0.99403
3747.68671	0.99311
3745.62980	0.99195
3743.57289	0.99184
3741.51598	0.99269
3739.45908	0.99334
3737.40217	0.99391
3735.34526	0.99463
3733.28835	0.99438
3731.23144	0.99282
3729.17454	0.99192
3727.11763	0.99227
3725.06072	0.99297
3723.00381	0.99328
3720.94690	0.99322
3718.88999	0.99336
3716.83309	0.99402
3714.77618	0.99459
3712.71927	0.99463
3710.66236	0.99453
3708.60545	0.99439
3706.54855	0.99424
3704.49164	0.99420
3702.43473	0.99382
3700.37782	0.99309
3698.32091	0.99277
3696.26400	0.99314
3694.20710	0.99387
3692.15019	0.99396
3690.09328	0.99297
3688.03637	0.99244
3685.97946	0.99288
3683.92256	0.99290
3681.86565	0.99242
3679.80874	0.99216
3677.75183	0.99202
3675.69492	0.99205
3673.63801	0.99249
3671.58111	0.99246
3669.52420	0.99237
3667.46729	0.99287
3665.41038	0.99311
3663.35347	0.99260
3661.29657	0.99186
3659.23966	0.99188
3657.18275	0.99256
3655.12584	0.99291
3653.06893	0.99257
3651.01202	0.99211
3648.95512	0.99254
3646.89821	0.99351
3644.84130	0.99374
3642.78439	0.99335
3640.72748	0.99280
3638.67058	0.99284
3636.61367	0.99332
3634.55676	0.99324
3632.49985	0.99266
3630.44294	0.99169
3628.38603	0.99079
3626.32913	0.99125
3624.27222	0.99211
3622.21531	0.99276
3620.15840	0.99330
3618.10149	0.99307
3616.04459	0.99212
3613.98768	0.99120
3611.93077	0.99028
3609.87386	0.98955
3607.81695	0.98991
3605.76004	0.99113
3603.70314	0.99215
3601.64623	0.99253
3599.58932	0.99213
3597.53241	0.99144
3595.47550	0.99121
3593.41860	0.99160
3591.36169	0.99190
3589.30478	0.99152
3587.24787	0.99094
3585.19096	0.99056
3583.13405	0.99020
3581.07715	0.99010
3579.02024	0.99025
3576.96333	0.99028
3574.90642	0.99003
3572.84951	0.98972
3570.79261	0.98945
3568.73570	0.98914
3566.67879	0.98878
3564.62188	0.98817
3562.56497	0.98760
3560.50806	0.98725
3558.45116	0.98682
3556.39425	0.98644
3554.33734	0.98605
3552.28043	0.98568
3550.22352	0.98589
3548.16662	0.98616
3546.10971	0.98576
3544.05280	0.98514
3541.99589	0.98489
3539.93898	0.98502
3537.88207	0.98492
3535.82517	0.98392
3533.76826	0.98288
3531.71135	0.98295
3529.65444	0.98338
3527.59753	0.98334
3525.54063	0.98338
3523.48372	0.98348
3521.42681	0.98294
3519.36990	0.98227
3517.31299	0.98204
3515.25608	0.98204
3513.19918	0.98202
3511.14227	0.98189
3509.08536	0.98166
3507.02845	0.98133
3504.97154	0.98108
3502.91464	0.98065
3500.85773	0.97972
3498.80082	0.97902
3496.74391	0.97898
3494.68700	0.97871
3492.63009	0.97769
3490.57319	0.97711
3488.51628	0.97761
3486.45937	0.97805
3484.40246	0.97771
3482.34555	0.97725
3480.28865	0.97737
3478.23174	0.97799
3476.17483	0.97838
3474.11792	0.97814
3472.06101	0.97802
3470.00410	0.97821
3467.94720	0.97798
3465.89029	0.97763
3463.83338	0.97733
3461.77647	0.97704
3459.71956	0.97731
3457.66266	0.97787
3455.60575	0.97817
3453.54884	0.97816
3451.49193	0.97795
3449.43502	0.97780
3447.37811	0.97776
3445.32121	0.97769
3443.26430	0.97769
3441.20739	0.97760
3439.15048	0.97736
3437.09357	0.97738
3435.03667	0.97702
3432.97976	0.97622
3430.92285	0.97632
3428.86594	0.97746
3426.80903	0.97837
3424.75212	0.97830
3422.69522	0.97780
3420.63831	0.97790
3418.58140	0.97840
3416.52449	0.97851
3414.46758	0.97827
3412.41068	0.97765
3410.35377	0.97704
3408.29686	0.97721
3406.23995	0.97766
3404.18304	0.97775
3402.12613	0.97746
3400.06923	0.97716
3398.01232	0.97743
3395.95541	0.97846
3393.89850	0.97946
3391.84159	0.97956
3389.78469	0.97901
3387.72778	0.97852
3385.67087	0.97838
3383.61396	0.97854
3381.55705	0.97878
3379.50014	0.97886
3377.44324	0.97902
3375.38633	0.97951
3373.32942	0.98013
3371.27251	0.98036
3369.21560	0.98028
3367.15870	0.98036
3365.10179	0.98043
3363.04488	0.98002
3360.98797	0.97928
3358.93106	0.97882
3356.87415	0.97896
3354.81725	0.97973
3352.76034	0.98080
3350.70343	0.98136
3348.64652	0.98114
3346.58961	0.98059
3344.53271	0.98048
3342.47580	0.98091
3340.41889	0.98106
3338.36198	0.98078
3336.30507	0.98066
3334.24816	0.98106
3332.19126	0.98155
3330.13435	0.98143
3328.07744	0.98071
3326.02053	0.98033
3323.96362	0.98093
3321.90672	0.98177
3319.84981	0.98199
3317.79290	0.98183
3315.73599	0.98157
3313.67908	0.98109
3311.62217	0.98089
3309.56527	0.98127
3307.50836	0.98165
3305.45145	0.98195
3303.39454	0.98255
3301.33763	0.98321
3299.28073	0.98363
3297.22382	0.98381
3295.16691	0.98364
3293.11000	0.98331
3291.05309	0.98315
3288.99618	0.98319
3286.93928	0.98337
3284.88237	0.98388
3282.82546	0.98438
3280.76855	0.98432
3278.71164	0.98392
3276.65474	0.98358
3274.59783	0.98396
3272.54092	0.98463
3270.48401	0.98453
3268.42710	0.98420
3266.37019	0.98405
3264.31329	0.98399
3262.25638	0.98427
3260.19947	0.98455
3258.14256	0.98445
3256.08565	0.98418
3254.02875	0.98428
3251.97184	0.98520
3249.91493	0.98614
3247.85802	0.98613
3245.80111	0.98548
3243.74420	0.98516
3241.68730	0.98561
3239.63039	0.98619
3237.57348	0.98645
3235.51657	0.98649
3233.45966	0.98607
3231.40276	0.98541
3229.34585	0.98529
3227.28894	0.98581
3225.23203	0.98629
3223.17512	0.98627
3221.11821	0.98616
3219.06131	0.98657
3217.00440	0.98723
3214.94749	0.98759
3212.89058	0.98737
3210.83367	0.98691
3208.77677	0.98685
3206.71986	0.98706
3204.66295	0.98707
3202.60604	0.98697
3200.54913	0.98727
3198.49222	0.98778
3196.43532	0.98812
3194.37841	0.98853
3192.32150	0.98881
3190.26459	0.98863
3188.20768	0.98838
3186.15078	0.98837
3184.09387	0.98850
3182.03696	0.98850
3179.98005	0.98819
3177.92314	0.98765
3175.86623	0.98761
3173.80933	0.98812
3171.75242	0.98863
3169.69551	0.98889
3167.63860	0.98887
3165.58169	0.98866
3163.52479	0.98847
3161.46788	0.98843
3159.41097	0.98844
3157.35406	0.98867
3155.29715	0.98929
3153.24024	0.98975
3151.18334	0.98978
3149.12643	0.98934
3147.06952	0.98867
3145.01261	0.98846
3142.95570	0.98879
3140.89880	0.98935
3138.84189	0.98989
3136.78498	0.98995
3134.72807	0.98999
3132.67116	0.99055
3130.61425	0.99083
3128.55735	0.99039
3126.50044	0.98999
3124.44353	0.99016
3122.38662	0.99020
3120.32971	0.98979
3118.27281	0.98959
3116.21590	0.98964
3114.15899	0.98980
3112.10208	0.98995
3110.04517	0.98994
3107.98826	0.98986
3105.93136	0.98963
3103.87445	0.98959
3101.81754	0.99020
3099.76063	0.99065
3097.70372	0.99051
3095.64682	0.99041
3093.58991	0.99055
3091.53300	0.99064
3089.47609	0.99042
3087.41918	0.99006
3085.36227	0.98999
3083.30537	0.99017
3081.24846	0.98998
3079.19155	0.98946
3077.13464	0.98975
3075.07773	0.99064
3073.02083	0.99050
3070.96392	0.98989
3068.90701	0.99008
3066.85010	0.99039
3064.79319	0.99033
3062.73628	0.99037
3060.67938	0.99032
3058.62247	0.98996
3056.56556	0.98984
3054.50865	0.99014
3052.45174	0.99040
3050.39484	0.99042
3048.33793	0.99040
3046.28102	0.99060
3044.22411	0.99089
3042.16720	0.99095
3040.11029	0.99083
3038.05339	0.99084
3035.99648	0.99108
3033.93957	0.99103
3031.88266	0.99073
3029.82575	0.99095
3027.76885	0.99130
3025.71194	0.99122
3023.65503	0.99128
3021.59812	0.99121
3019.54121	0.99050
3017.48430	0.99015
3015.42740	0.99051
3013.37049	0.99089
3011.31358	0.99095
3009.25667	0.99067
3007.19976	0.99020
3005.14286	0.99001
3003.08595	0.99041
3001.02904	0.99069
2998.97213	0.99029
2996.91522	0.98989
2994.85831	0.98981
2992.80141	0.98978
2990.74450	0.98991
2988.68759	0.98975
2986.63068	0.98910
2984.57377	0.98865
2982.51687	0.98868
2980.45996	0.98904
2978.40305	0.98907
2976.34614	0.98869
2974.28923	0.98842
2972.23232	0.98823
2970.17542	0.98815
2968.11851	0.98837
2966.06160	0.98852
2964.00469	0.98821
2961.94778	0.98782
2959.89088	0.98760
2957.83397	0.98726
2955.77706	0.98685
2953.72015	0.98672
2951.66324	0.98676
2949.60633	0.98670
2947.54943	0.98657
2945.49252	0.98618
2943.43561	0.98565
2941.37870	0.98547
2939.32179	0.98561
2937.26489	0.98578
2935.20798	0.98579
2933.15107	0.98564
2931.09416	0.98557
2929.03725	0.98581
2926.98034	0.98595
2924.92344	0.98562
2922.86653	0.98527
2920.80962	0.98517
2918.75271	0.98511
2916.69580	0.98510
2914.63890	0.98514
2912.58199	0.98516
2910.52508	0.98503
2908.46817	0.98469
2906.41126	0.98452
2904.35435	0.98478
2902.29745	0.98504
2900.24054	0.98492
2898.18363	0.98474
2896.12672	0.98468
2894.06981	0.98465
2892.01291	0.98457
2889.95600	0.98434
2887.89909	0.98398
2885.84218	0.98380
2883.78527	0.98387
2881.72836	0.98413
2879.67146	0.98455
2877.61455	0.98469
2875.55764	0.98455
2873.50073	0.98472
2871.44382	0.98527
2869.38692	0.98575
2867.33001	0.98591
2865.27310	0.98581
2863.21619	0.98589
2861.15928	0.98641
2859.10237	0.98680
2857.04547	0.98674
2854.98856	0.98674
2852.93165	0.98684
2850.87474	0.98691
2848.81783	0.98743
2846.76093	0.98802
2844.70402	0.98809
2842.64711	0.98803
2840.59020	0.98822
2838.53329	0.98857
2836.47638	0.98877
2834.41948	0.98889
2832.36257	0.98901
2830.30566	0.98912
2828.24875	0.98934
2826.19184	0.98966
2824.13494	0.98986
2822.07803	0.98982
2820.02112	0.98963
2817.96421	0.98968
2815.90730	0.99004
2813.85039	0.99023
2811.79349	0.98992
2809.73658	0.98954
2807.67967	0.98961
2805.62276	0.99008
2803.56585	0.99037
2801.50895	0.98999
2799.45204	0.98946
2797.39513	0.98936
2795.33822	0.98950
2793.28131	0.98986
2791.22440	0.99019
2789.16750	0.99029
2787.11059	0.99034
2785.05368	0.99023
2782.99677	0.99012
2780.93986	0.99041
2778.88296	0.99096
2776.82605	0.99120
2774.76914	0.99085
2772.71223	0.99023
2770.65532	0.98993
2768.59841	0.98991
2766.54151	0.98988
2764.48460	0.99012
2762.42769	0.99047
2760.37078	0.99058
2758.31387	0.99062
2756.25697	0.99049
2754.20006	0.99032
2752.14315	0.99052
2750.08624	0.99095
2748.02933	0.99104
2745.97242	0.99058
2743.91552	0.99020
2741.85861	0.99047
2739.80170	0.99064
2737.74479	0.99051
2735.68788	0.99088
2733.63098	0.99126
2731.57407	0.99108
2729.51716	0.99071
2727.46025	0.99028
2725.40334	0.99004
2723.34643	0.99039
2721.28953	0.99098
2719.23262	0.99110
2717.17571	0.99092
2715.11880	0.99085
2713.06189	0.99093
2711.00499	0.99108
2708.94808	0.99087
2706.89117	0.99062
2704.83426	0.99085
2702.77735	0.99099
2700.72044	0.99091
2698.66354	0.99111
2696.60663	0.99114
2694.54972	0.99078
2692.49281	0.99054
2690.43590	0.99064
2688.37900	0.99090
2686.32209	0.99090
2684.26518	0.99064
2682.20827	0.99045
2680.15136	0.99054
2678.09445	0.99091
2676.03755	0.99122
2673.98064	0.99118
2671.92373	0.99111
2669.86682	0.99131
2667.80991	0.99140
2665.75301	0.99122
2663.69610	0.99103
2661.63919	0.99097
2659.58228	0.99099
2657.52537	0.99098
2655.46846	0.99079
2653.41156	0.99054
2651.35465	0.99034
2649.29774	0.99032
2647.24083	0.99056
2645.18392	0.99062
2643.12702	0.99018
2641.07011	0.98971
2639.01320	0.98985
2636.95629	0.99044
2634.89938	0.99084
2632.84247	0.99070
2630.78557	0.99039
2628.72866	0.99008
2626.67175	0.98978
2624.61484	0.98987
2622.55793	0.99018
2620.50103	0.99047
2618.44412	0.99084
2616.38721	0.99095
2614.33030	0.99067
2612.27339	0.99067
2610.21648	0.99129
2608.15958	0.99168
2606.10267	0.99137
2604.04576	0.99077
2601.98885	0.99030
2599.93194	0.99028
2597.87504	0.99069
2595.81813	0.99113
2593.76122	0.99140
2591.70431	0.99168
2589.64740	0.99189
2587.59049	0.99168
2585.53359	0.99121
2583.47668	0.99094
2581.41977	0.99099
2579.36286	0.99108
2577.30595	0.99102
2575.24905	0.99104
2573.19214	0.99146
2571.13523	0.99194
2569.07832	0.99183
2567.02141	0.99134
2564.96450	0.99150
2562.90760	0.99211
2560.85069	0.99228
2558.79378	0.99240
2556.73687	0.99247
2554.67996	0.99229
2552.62306	0.99235
2550.56615	0.99227
2548.50924	0.99162
2546.45233	0.99099
2544.39542	0.99064
2542.33851	0.99061
2540.28161	0.99131
2538.22470	0.99216
2536.16779	0.99222
2534.11088	0.99169
2532.05397	0.99141
2529.99707	0.99175
2527.94016	0.99244
2525.88325	0.99313
2523.82634	0.99341
2521.76943	0.99291
2519.71252	0.99208
2517.65562	0.99193
2515.59871	0.99233
2513.54180	0.99249
2511.48489	0.99241
2509.42798	0.99201
2507.37108	0.99163
2505.31417	0.99202
2503.25726	0.99239
2501.20035	0.99197
2499.14344	0.99175
2497.08653	0.99206
2495.02963	0.99232
2492.97272	0.99213
2490.91581	0.99165
2488.85890	0.99137
2486.80199	0.99156
2484.74509	0.99201
2482.68818	0.99220
2480.63127	0.99236
2478.57436	0.99273
2476.51745	0.99273
2474.46054	0.99227
2472.40364	0.99208
2470.34673	0.99236
2468.28982	0.99246
2466.23291	0.99217
2464.17600	0.99175
2462.11910	0.99142
2460.06219	0.99155
2458.00528	0.99206
2455.94837	0.99232
2453.89146	0.99242
2451.83455	0.99250
2449.77765	0.99244
2447.72074	0.99235
2445.66383	0.99246
2443.60692	0.99267
2441.55001	0.99280
2439.49311	0.99267
2437.43620	0.99240
2435.37929	0.99234
2433.32238	0.99244
2431.26547	0.99282
2429.20856	0.99313
2427.15166	0.99280
2425.09475	0.99235
2423.03784	0.99217
2420.98093	0.99244
2418.92402	0.99286
2416.86712	0.99267
2414.81021	0.99208
2412.75330	0.99180
2410.69639	0.99213
2408.63948	0.99258
2406.58257	0.99257
2404.52567	0.99241
2402.46876	0.99213
2400.41185	0.99178
2398.35494	0.99196
2396.29803	0.99259
2394.24113	0.99296
2392.18422	0.99303
2390.12731	0.99314
2388.07040	0.99290
2386.01349	0.99270
2383.95658	0.99323
2381.89968	0.99384
2379.84277	0.99377
2377.78586	0.99295
2375.72895	0.99245
2373.67204	0.99319
2371.61514	0.99427
2369.55823	0.99484
2367.50132	0.99482
2365.44441	0.99429
2363.38750	0.99413
2361.33059	0.99438
2359.27369	0.99399
2357.21678	0.99357
2355.15987	0.99361
2353.10296	0.99381
2351.04605	0.99449
2348.98915	0.99491
2346.93224	0.99432
2344.87533	0.99309
2342.81842	0.99217
2340.76151	0.99219
2338.70460	0.99237
2336.64770	0.99197
2334.59079	0.99213
2332.53388	0.99319
2330.47697	0.99375
2328.42006	0.99290
2326.36316	0.99137
2324.30625	0.99055
2322.24934	0.99065
2320.19243	0.99049
2318.13552	0.98989
2316.07861	0.98960
2314.02171	0.98990
2311.96480	0.99061
2309.90789	0.99114
2307.85098	0.99113
2305.79407	0.99068
2303.73717	0.99056
2301.68026	0.99096
2299.62335	0.99091
2297.56644	0.99050
2295.50953	0.99057
2293.45262	0.99133
2291.39572	0.99205
2289.33881	0.99176
2287.28190	0.99112
2285.22499	0.99142
2283.16808	0.99184
2281.11117	0.99118
2279.05427	0.99038
2276.99736	0.99063
2274.94045	0.99105
2272.88354	0.99089
2270.82663	0.99078
2268.76973	0.99113
2266.71282	0.99204
2264.65591	0.99296
2262.59900	0.99292
2260.54209	0.99238
2258.48518	0.99212
2256.42828	0.99192
2254.37137	0.99177
2252.31446	0.99169
2250.25755	0.99200
2248.20064	0.99235
2246.14374	0.99248
2244.08683	0.99283
2242.02992	0.99277
2239.97301	0.99164
2237.91610	0.99000
2235.85919	0.99012
2233.80229	0.99188
2231.74538	0.99281
2229.68847	0.99314
2227.63156	0.99414
2225.57465	0.99545
2223.51775	0.99526
2221.46084	0.99335
2219.40393	0.99203
2217.34702	0.99168
2215.29011	0.99133
2213.23320	0.99058
2211.17630	0.98924
2209.11939	0.98894
2207.06248	0.99017
2205.00557	0.99134
2202.94866	0.99114
2200.89176	0.98958
2198.83485	0.98863
2196.77794	0.98905
2194.72103	0.99085
2192.66412	0.99325
2190.60721	0.99335
2188.55031	0.99165
2186.49340	0.99086
2184.43649	0.99040
2182.37958	0.99069
2180.32267	0.99293
2178.26577	0.99491
2176.20886	0.99517
2174.15195	0.99477
2172.09504	0.99460
2170.03813	0.99392
2167.98122	0.99202
2165.92432	0.99106
2163.86741	0.99152
2161.81050	0.99106
2159.75359	0.99078
2157.69668	0.99167
2155.63978	0.99192
2153.58287	0.99198
2151.52596	0.99309
2149.46905	0.99487
2147.41214	0.99634
2145.35523	0.99718
2143.29833	0.99724
2141.24142	0.99646
2139.18451	0.99507
2137.12760	0.99413
2135.07069	0.99468
2133.01379	0.99586
2130.95688	0.99623
2128.89997	0.99541
2126.84306	0.99445
2124.78615	0.99428
2122.72924	0.99400
2120.67234	0.99395
2118.61543	0.99469
2116.55852	0.99428
2114.50161	0.99290
2112.44470	0.99259
2110.38780	0.99276
2108.33089	0.99229
2106.27398	0.99232
2104.21707	0.99348
2102.16016	0.99396
2100.10325	0.99272
2098.04635	0.99168
2095.98944	0.99252
2093.93253	0.99406
2091.87562	0.99464
2089.81871	0.99404
2087.76181	0.99332
2085.70490	0.99343
2083.64799	0.99349
2081.59108	0.99270
2079.53417	0.99185
2077.47726	0.99144
2075.42036	0.99121
2073.36345	0.99153
2071.30654	0.99234
2069.24963	0.99279
2067.19272	0.99295
2065.13582	0.99375
2063.07891	0.99519
2061.02200	0.99585
2058.96509	0.99522
2056.90818	0.99363
2054.85127	0.99198
2052.79437	0.99111
2050.73746	0.99001
2048.68055	0.98868
2046.62364	0.98953
2044.56673	0.99352
2042.50983	0.99676
2040.45292	0.99581
2038.39601	0.99403
2036.33910	0.99360
2034.28219	0.99342
2032.22528	0.99311
2030.16838	0.99166
2028.11147	0.99125
2026.05456	0.99321
2023.99765	0.99495
2021.94074	0.99609
2019.88384	0.99611
2017.82693	0.99435
2015.77002	0.99275
2013.71311	0.99290
2011.65620	0.99424
2009.59929	0.99573
2007.54239	0.99694
2005.48548	0.99749
2003.42857	0.99775
2001.37166	0.99695
1999.31475	0.99441
1997.25785	0.99212
1995.20094	0.99191
1993.14403	0.99300
1991.08712	0.99366
1989.03021	0.99361
1986.97330	0.99271
1984.91640	0.99125
1982.85949	0.99039
1980.80258	0.99103
1978.74567	0.99308
1976.68876	0.99358
1974.63186	0.99200
1972.57495	0.99220
1970.51804	0.99361
1968.46113	0.99451
1966.40422	0.99605
1964.34731	0.99685
1962.29041	0.99571
1960.23350	0.99417
1958.17659	0.99336
1956.11968	0.99365
1954.06277	0.99509
1952.00587	0.99612
1949.94896	0.99503
1947.89205	0.99337
1945.83514	0.99351
1943.77823	0.99465
1941.72132	0.99482
1939.66442	0.99450
1937.60751	0.99474
1935.55060	0.99522
1933.49369	0.99554
1931.43678	0.99519
1929.37988	0.99385
1927.32297	0.99254
1925.26606	0.99245
1923.20915	0.99307
1921.15224	0.99326
1919.09533	0.99362
1917.03843	0.99472
1914.98152	0.99542
1912.92461	0.99562
1910.86770	0.99536
1908.81079	0.99464
1906.75389	0.99430
1904.69698	0.99435
1902.64007	0.99436
1900.58316	0.99420
1898.52625	0.99411
1896.46934	0.99448
1894.41244	0.99512
1892.35553	0.99518
1890.29862	0.99464
1888.24171	0.99444
1886.18480	0.99454
1884.12790	0.99461
1882.07099	0.99494
1880.01408	0.99522
1877.95717	0.99484
1875.90026	0.99436
1873.84335	0.99432
1871.78645	0.99407
1869.72954	0.99361
1867.67263	0.99366
1865.61572	0.99389
1863.55881	0.99371
1861.50191	0.99332
1859.44500	0.99319
1857.38809	0.99367
1855.33118	0.99462
1853.27427	0.99508
1851.21736	0.99478
1849.16046	0.99455
1847.10355	0.99417
1845.04664	0.99350
1842.98973	0.99350
1840.93282	0.99408
1838.87592	0.99445
1836.81901	0.99454
1834.76210	0.99447
1832.70519	0.99399
1830.64828	0.99334
1828.59137	0.99321
1826.53447	0.99356
1824.47756	0.99392
1822.42065	0.99422
1820.36374	0.99434
1818.30683	0.99422
1816.24993	0.99430
1814.19302	0.99432
1812.13611	0.99407
1810.07920	0.99404
1808.02229	0.99406
1805.96538	0.99376
1803.90848	0.99353
1801.85157	0.99380
1799.79466	0.99418
1797.73775	0.99401
1795.68084	0.99328
1793.62394	0.99251
1791.56703	0.99232
1789.51012	0.99256
1787.45321	0.99296
1785.39630	0.99343
1783.33939	0.99332
1781.28249	0.99272
1779.22558	0.99210
1777.16867	0.99156
1775.11176	0.99122
1773.05485	0.99069
1770.99795	0.98946
1768.94104	0.98784
1766.88413	0.98593
1764.82722	0.98371
1762.77031	0.98071
1760.71340	0.97679
1758.65650	0.97313
1756.59959	0.96979
1754.54268	0.96683
1752.48577	0.96407
1750.42886	0.96086
1748.37196	0.95749
1746.31505	0.95467
1744.25814	0.95252
1742.20123	0.95069
1740.14432	0.94900
1738.08741	0.94811
1736.03051	0.94788
1733.97360	0.94717
1731.91669	0.94622
1729.85978	0.94595
1727.80287	0.94594
1725.74597	0.94601
1723.68906	0.94671
1721.63215	0.94818
1719.57524	0.94998
1717.51833	0.95180
1715.46142	0.95376
1713.40452	0.95643
1711.34761	0.95940
1709.29070	0.96210
1707.23379	0.96479
1705.17688	0.96768
1703.11998	0.97015
1701.06307	0.97284
1699.00616	0.97600
1696.94925	0.97789
1694.89234	0.97891
1692.83543	0.97985
1690.77853	0.98101
1688.72162	0.98231
1686.66471	0.98322
1684.60780	0.98395
1682.55089	0.98471
1680.49399	0.98508
1678.43708	0.98513
1676.38017	0.98499
1674.32326	0.98506
1672.26635	0.98547
1670.20944	0.98608
1668.15254	0.98654
1666.09563	0.98653
1664.03872	0.98654
1661.98181	0.98680
1659.92490	0.98681
1657.86800	0.98660
1655.81109	0.98672
1653.75418	0.98714
1651.69727	0.98712
1649.64036	0.98716
1647.58345	0.98758
1645.52655	0.98770
1643.46964	0.98751
1641.41273	0.98748
1639.35582	0.98743
1637.29891	0.98726
1635.24201	0.98717
1633.18510	0.98719
1631.12819	0.98745
1629.07128	0.98789
1627.01437	0.98809
1624.95746	0.98787
1622.90056	0.98776
1620.84365	0.98815
1618.78674	0.98863
1616.72983	0.98880
1614.67292	0.98865
1612.61602	0.98855
1610.55911	0.98868
1608.50220	0.98904
1606.44529	0.98947
1604.38838	0.98961
1602.33147	0.98945
1600.27457	0.98936
1598.21766	0.98946
1596.16075	0.98952
1594.10384	0.98956
1592.04693	0.98971
1589.99003	0.98988
1587.93312	0.98998
1585.87621	0.99005
1583.81930	0.99008
1581.76239	0.99014
1579.70548	0.99026
1577.64858	0.99029
1575.59167	0.99027
1573.53476	0.99039
1571.47785	0.99057
1569.42094	0.99063
1567.36404	0.99049
1565.30713	0.99041
1563.25022	0.99041
1561.19331	0.99043
1559.13640	0.99059
1557.07949	0.99066
1555.02259	0.99048
1552.96568	0.99044
1550.90877	0.99062
1548.85186	0.99077
1546.79495	0.99067
1544.73805	0.99034
1542.68114	0.99010
1540.62423	0.99014
1538.56732	0.99015
1536.51041	0.99010
1534.45350	0.99015
1532.39660	0.99019
1530.33969	0.99015
1528.28278	0.99030
1526.22587	0.99052
1524.16896	0.99032
1522.11206	0.98981
1520.05515	0.98961
1517.99824	0.98993
1515.94133	0.99024
1513.88442	0.98994
1511.82751	0.98936
1509.77061	0.98909
1507.71370	0.98916
1505.65679	0.98904
1503.59988	0.98874
1501.54297	0.98868
1499.48607	0.98866
1497.42916	0.98843
1495.37225	0.98820
1493.31534	0.98789
1491.25843	0.98742
1489.20152	0.98718
1487.14462	0.98726
1485.08771	0.98743
1483.03080	0.98752
1480.97389	0.98718
1478.91698	0.98660
1476.86008	0.98599
1474.80317	0.98529
1472.74626	0.98446
1470.68935	0.98361
1468.63244	0.98303
1466.57553	0.98247
1464.51863	0.98182
1462.46172	0.98123
1460.40481	0.98063
1458.34790	0.97998
1456.29099	0.97919
1454.23409	0.97829
1452.17718	0.97761
1450.12027	0.97724
1448.06336	0.97694
1446.00645	0.97628
1443.94954	0.97533
1441.89264	0.97436
1439.83573	0.97344
1437.77882	0.97257
1435.72191	0.97166
1433.66500	0.97093
1431.60810	0.97040
1429.55119	0.96998
1427.49428	0.97004
1425.43737	0.97035
1423.38046	0.97044
1421.32355	0.97037
1419.26665	0.97029
1417.20974	0.97023
1415.15283	0.97013
1413.09592	0.96995
1411.03901	0.96984
1408.98211	0.96986
1406.92520	0.96984
1404.86829	0.96973
1402.81138	0.96960
1400.75447	0.96923
1398.69756	0.96874
1396.64066	0.96833
1394.58375	0.96769
1392.52684	0.96688
1390.46993	0.96605
1388.41302	0.96487
1386.35612	0.96324
1384.29921	0.96160
1382.24230	0.95988
1380.18539	0.95790
1378.12848	0.95591
1376.07157	0.95384
1374.01467	0.95170
1371.95776	0.95027
1369.90085	0.94996
1367.84394	0.95043
1365.78703	0.95145
1363.73013	0.95310
1361.67322	0.95546
1359.61631	0.95798
1357.55940	0.96045
1355.50249	0.96279
1353.44558	0.96459
1351.38868	0.96575
1349.33177	0.96659
1347.27486	0.96737
1345.21795	0.96814
1343.16104	0.96877
1341.10414	0.96923
1339.04723	0.96958
1336.99032	0.96996
1334.93341	0.97026
1332.87650	0.97037
1330.81959	0.97056
1328.76269	0.97080
1326.70578	0.97087
1324.64887	0.97086
1322.59196	0.97089
1320.53505	0.97106
1318.47815	0.97132
1316.42124	0.97140
1314.36433	0.97137
1312.30742	0.97166
1310.25051	0.97214
1308.19360	0.97219
1306.13670	0.97197
1304.07979	0.97210
1302.02288	0.97243
1299.96597	0.97246
1297.90906	0.97230
1295.85216	0.97224
1293.79525	0.97216
1291.73834	0.97199
1289.68143	0.97172
1287.62452	0.97103
1285.56761	0.97007
1283.51071	0.96925
1281.45380	0.96841
1279.39689	0.96728
1277.33998	0.96604
1275.28307	0.96485
1273.22617	0.96358
1271.16926	0.96211
1269.11235	0.96049
1267.05544	0.95852
1264.99853	0.95629
1262.94162	0.95440
1260.88472	0.95247
1258.82781	0.94991
1256.77090	0.94721
1254.71399	0.94478
1252.65708	0.94234
1250.60018	0.93978
1248.54327	0.93712
1246.48636	0.93447
1244.42945	0.93212
1242.37254	0.92991
1240.31563	0.92760
1238.25873	0.92518
1236.20182	0.92281
1234.14491	0.92074
1232.08800	0.91918
1230.03109	0.91812
1227.97419	0.91723
1225.91728	0.91649
1223.86037	0.91629
1221.80346	0.91696
1219.74655	0.91846
1217.68964	0.92048
1215.63274	0.92285
1213.57583	0.92565
1211.51892	0.92876
1209.46201	0.93181
1207.40510	0.93441
1205.34820	0.93654
1203.29129	0.93872
1201.23438	0.94113
1199.17747	0.94336
1197.12056	0.94528
1195.06365	0.94713
1193.00675	0.94870
1190.94984	0.94977
1188.89293	0.95063
1186.83602	0.95118
1184.77911	0.95100
1182.72221	0.95021
1180.66530	0.94910
1178.60839	0.94778
1176.55148	0.94661
1174.49457	0.94569
1172.43766	0.94451
1170.38076	0.94303
1168.32385	0.94169
1166.26694	0.94040
1164.21003	0.93897
1162.15312	0.93755
1160.09622	0.93644
1158.03931	0.93569
1155.98240	0.93536
1153.92549	0.93566
1151.86858	0.93622
1149.81167	0.93643
1147.75477	0.93627
1145.69786	0.93595
1143.64095	0.93561
1141.58404	0.93509
1139.52713	0.93410
1137.47023	0.93305
1135.41332	0.93205
1133.35641	0.93052
1131.29950	0.92891
1129.24259	0.92781
1127.18568	0.92658
1125.12878	0.92497
1123.07187	0.92338
1121.01496	0.92196
1118.95805	0.92070
1116.90114	0.91965
1114.84424	0.91866
1112.78733	0.91740
1110.73042	0.91597
1108.67351	0.91462
1106.61660	0.91343
1104.55969	0.91239
1102.50279	0.91132
1100.44588	0.91026
1098.38897	0.90914
1096.33206	0.90749
1094.27515	0.90569
1092.21825	0.90449
1090.16134	0.90343
1088.10443	0.90191
1086.04752	0.90015
1083.99061	0.89839
1081.93370	0.89655
1079.87680	0.89465
1077.81989	0.89281
1075.76298	0.89109
1073.70607	0.88954
1071.64916	0.88800
1069.59226	0.88622
1067.53535	0.88436
1065.47844	0.88282
1063.42153	0.88173
1061.36462	0.88097
1059.30771	0.87984
1057.25081	0.87809
1055.19390	0.87646
1053.13699	0.87534
1051.08008	0.87427
1049.02317	0.87300
1046.96627	0.87165
1044.90936	0.87035
1042.85245	0.86915
1040.79554	0.86805
1038.73863	0.86676
1036.68172	0.86535
1034.62482	0.86423
1032.56791	0.86330
1030.51100	0.86237
1028.45409	0.86162
1026.39718	0.86103
1024.34028	0.86060
1022.28337	0.86052
1020.22646	0.86084
1018.16955	0.86150
1016.11264	0.86246
1014.05573	0.86368
1011.99883	0.86506
1009.94192	0.86631
1007.88501	0.86735
1005.82810	0.86815
1003.77119	0.86891
1001.71429	0.87008
999.65738	0.87148
997.60047	0.87289
995.54356	0.87449
993.48665	0.87628
991.42974	0.87796
989.37284	0.87937
987.31593	0.88083
985.25902	0.88249
983.20211	0.88411
981.14520	0.88604
979.08830	0.88840
977.03139	0.89043
974.97448	0.89193
972.91757	0.89354
970.86066	0.89558
968.80375	0.89792
966.74685	0.90034
964.68994	0.90253
962.63303	0.90431
960.57612	0.90608
958.51921	0.90802
956.46231	0.90980
954.40540	0.91164
952.34849	0.91358
950.29158	0.91500
948.23467	0.91617
946.17776	0.91763
944.12086	0.91879
942.06395	0.91935
940.00704	0.91984
937.95013	0.92055
935.89322	0.92135
933.83632	0.92215
931.77941	0.92280
929.72250	0.92309
927.66559	0.92327
925.60868	0.92362
923.55177	0.92375
921.49487	0.92356
919.43796	0.92352
917.38105	0.92382
915.32414	0.92405
913.26723	0.92383
911.21033	0.92339
909.15342	0.92288
907.09651	0.92220
905.03960	0.92168
902.98269	0.92184
900.92578	0.92243
898.86888	0.92271
896.81197	0.92300
894.75506	0.92370
892.69815	0.92421
890.64124	0.92464
888.58434	0.92569
886.52743	0.92728
884.47052	0.92876
882.41361	0.93000
880.35670	0.93118
878.29979	0.93236
876.24289	0.93387
874.18598	0.93581
872.12907	0.93787
870.07216	0.93977
868.01525	0.94132
865.95835	0.94242
863.90144	0.94355
861.84453	0.94526
859.78762	0.94693
857.73071	0.94813
855.67380	0.94882
853.61690	0.94878
851.55999	0.94860
849.50308	0.94890
847.44617	0.94925
845.38926	0.94920
843.33236	0.94903
841.27545	0.94852
839.21854	0.94752
837.16163	0.94703
835.10472	0.94724
833.04781	0.94760
830.99091	0.94813
828.93400	0.94888
826.87709	0.94970
824.82018	0.94983
822.76327	0.94910
820.70637	0.94837
818.64946	0.94821
816.59255	0.94866
814.53564	0.94919
812.47873	0.94896
810.42182	0.94802
808.36492	0.94718
806.30801	0.94671
804.25110	0.94700
802.19419	0.94779
800.13728	0.94791
798.08038	0.94758
796.02347	0.94761
793.96656	0.94788
791.90965	0.94796
789.85274	0.94780
787.79583	0.94800
785.73893	0.94913
783.68202	0.95028
781.62511	0.95022
779.56820	0.95004
777.51129	0.95118
775.45439	0.95289
773.39748	0.95420
771.34057	0.95478
769.28366	0.95491
767.22675	0.95537
765.16984	0.95593
763.11294	0.95609
761.05603	0.95625
758.99912	0.95681
756.94221	0.95729
754.88530	0.95725
752.82839	0.95732
750.77149	0.95773
748.71458	0.95829
746.65767	0.95869
744.60076	0.95808
742.54385	0.95730
740.48695	0.95772
738.43004	0.95835
736.37313	0.95813
734.31622	0.95773
732.25931	0.95757
730.20240	0.95722
728.14550	0.95675
726.08859	0.95649
724.03168	0.95650
721.97477	0.95642
719.91786	0.95614
717.86096	0.95595
715.80405	0.95560
713.74714	0.95501
711.69023	0.95438
709.63332	0.95392
707.57641	0.95366
705.51951	0.95354
703.46260	0.95324
701.40569	0.95255
699.34878	0.95234
697.29187	0.95270
695.23497	0.95270
693.17806	0.95221
691.12115	0.95142
689.06424	0.95072
687.00733	0.95036
684.95042	0.94961
682.89352	0.94852
680.83661	0.94791
678.77970	0.94728
676.72279	0.94639
674.66588	0.94606
672.60898	0.94616
670.55207	0.94603
668.49516	0.94566
666.43825	0.94591
664.38134	0.94675
662.32443	0.94722
660.26753	0.94728
658.21062	0.94747
656.15371	0.94730
654.09680	0.94659
652.03989	0.94635
649.98299	0.94655
647.92608	0.94616
645.86917	0.94563
643.81226	0.94546
641.75535	0.94473
639.69844	0.94352
637.64154	0.94242
635.58463	0.94162
633.52772	0.94168
631.47081	0.94208
629.41390	0.94186
627.35700	0.94174
625.30009	0.94179
623.24318	0.94054
621.18627	0.93848
619.12936	0.93755
617.07245	0.93791
615.01555	0.93768
612.95864	0.93641
610.90173	0.93499
608.84482	0.93310
606.78791	0.93121
604.73101	0.93016
602.67410	0.92931
600.61719	0.92843
598.56028	0.92814
596.50337	0.92839
594.44646	0.92881
592.38956	0.92937
590.33265	0.93021
588.27574	0.93129
586.21883	0.93213
584.16192	0.93275
582.10502	0.93342
580.04811	0.93354
577.99120	0.93275
575.93429	0.93114
573.87738	0.92983
571.82047	0.93026
569.76357	0.93089
567.70666	0.93002
565.64975	0.92880
563.59284	0.92834
561.53593	0.92835
559.47903	0.92746
557.42212	0.92638
555.36521	0.92725
553.30830	0.92896
551.25139	0.92911
549.19448	0.92807
547.13758	0.92762
545.08067	0.92761
543.02376	0.92701
540.96685	0.92671
538.90994	0.92726
536.85304	0.92720
534.79613	0.92605
532.73922	0.92528
530.68231	0.92540
528.62540	0.92537
526.56849	0.92441
524.51159	0.92306
522.45468	0.92230
520.39777	0.92187
518.34086	0.92108
516.28395	0.91945
514.22705	0.91749
512.17014	0.91581
510.11323	0.91418
508.05632	0.91305
505.99941	0.91296
503.94250	0.91228
501.88560	0.90927
499.82869	0.90587
497.77178	0.90446
495.71487	0.90400
493.65796	0.90206
491.60106	0.89819
489.54415	0.89408
487.48724	0.89121
485.43033	0.89060
483.37342	0.89154
481.31651	0.89159
479.25961	0.89037
477.20270	0.88895
475.14579	0.88706
473.08888	0.88524
471.03197	0.88412
468.97507	0.88211
466.91816	0.87962
464.86125	0.87748
462.80434	0.87504
460.74743	0.87348
458.69052	0.87343
456.63362	0.87266
454.57671	0.87054
452.51980	0.86902
450.46289	0.87015
448.40598	0.87223
446.34908	0.87191
444.29217	0.87088
442.23526	0.87188
440.17835	0.87297
438.12144	0.87247
436.06453	0.87157
434.00763	0.87191
431.95072	0.87515
429.89381	0.87926
427.83690	0.87882
425.77999	0.87439
423.72309	0.87197
421.66618	0.87303
419.60927	0.87593
417.55236	0.87632
415.49545	0.87173
413.43854	0.86972
411.38164	0.87336
409.32473	0.87820
407.26782	0.87969
405.21091	0.87757
403.15400	0.87451
401.09710	0.87011
399.04019	0.86650
