3996.57260	0.99198
3994.51569	0.99227
3992.45878	0.99183
3990.40188	0.99100
3988.34497	0.99020
3986.28806	0.99011
3984.23115	0.99033
3982.17424	0.99010
3980.11733	0.99010
3978.06043	0.99052
3976.00352	0.99041
3973.94661	0.98972
3971.88970	0.98941
3969.83279	0.98959
3967.77589	0.99007
3965.71898	0.99082
3963.66207	0.99119
3961.60516	0.99065
3959.54825	0.98989
3957.49134	0.99005
3955.43444	0.99038
3953.37753	0.98991
3951.32062	0.98969
3949.26371	0.99054
3947.20680	0.99138
3945.14990	0.99107
3943.09299	0.99026
3941.03608	0.99019
3938.97917	0.99051
3936.92226	0.99062
3934.86535	0.99075
3932.80845	0.99085
3930.75154	0.99086
3928.69463	0.99061
3926.63772	0.99015
3924.58081	0.99027
3922.52391	0.99064
3920.46700	0.99064
3918.41009	0.99044
3916.35318	0.99019
3914.29627	0.99019
3912.23936	0.99051
3910.18246	0.99100
3908.12555	0.99144
3906.06864	0.99127
3904.01173	0.99009
3901.95482	0.98956
3899.89792	0.99053
3897.84101	0.99119
3895.78410	0.99100
3893.72719	0.99070
3891.67028	0.99055
3889.61337	0.99011
3887.55647	0.98985
3885.49956	0.99065
3883.44265	0.99154
3881.38574	0.99162
3879.32883	0.99099
3877.27193	0.99064
3875.21502	0.99119
3873.15811	0.99148
3871.10120	0.99076
3869.04429	0.98982
3866.98738	0.98941
3864.93048	0.98951
3862.87357	0.99011
3860.81666	0.99101
3858.75975	0.99159
3856.70284	0.99139
3854.64594	0.99043
3852.58903	0.98964
3850.53212	0.98970
3848.47521	0.99013
3846.41830	0.99066
3844.36139	0.99093
3842.30449	0.99086
3840.24758	0.99066
3838.19067	0.99045
3836.13376	0.99038
3834.07685	0.99038
3832.01995	0.99025
3829.96304	0.99039
3827.90613	0.99086
3825.84922	0.99083
3823.79231	0.99030
3821.73540	0.99015
3819.67850	0.99072
3817.62159	0.99121
3815.56468	0.99106
3813.50777	0.99043
3811.45086	0.98977
3809.39396	0.98936
3807.33705	0.98963
3805.28014	0.99044
3803.22323	0.99069
3801.16632	0.99034
3799.10941	0.99062
3797.05251	0.99142
3794.99560	0.99151
3792.93869	0.99098
3790.88178	0.99105
3788.82487	0.99173
3786.76796	0.99199
3784.71106	0.99175
3782.65415	0.99179
3780.59724	0.99216
3778.54033	0.99192
3776.48342	0.99123
3774.42652	0.99124
3772.36961	0.99166
3770.31270	0.99162
3768.25579	0.99131
3766.19888	0.99091
3764.14197	0.99048
3762.08507	0.99065
3760.02816	0.99075
3757.97125	0.99054
3755.91434	0.99073
3753.85743	0.99074
3751.80053	0.99049
3749.74362	0.99078
3747.68671	0.99103
3745.62980	0.99069
3743.57289	0.99041
3741.51598	0.99080
3739.45908	0.99137
3737.40217	0.99153
3735.34526	0.99128
3733.28835	0.99104
3731.23144	0.99086
3729.17454	0.99114
3727.11763	0.99151
3725.06072	0.99100
3723.00381	0.99046
3720.94690	0.99100
3718.88999	0.99174
3716.83309	0.99189
3714.77618	0.99185
3712.71927	0.99178
3710.66236	0.99177
3708.60545	0.99230
3706.54855	0.99248
3704.49164	0.99177
3702.43473	0.99093
3700.37782	0.99087
3698.32091	0.99163
3696.26400	0.99219
3694.20710	0.99224
3692.15019	0.99206
3690.09328	0.99112
3688.03637	0.99023
3685.97946	0.99083
3683.92256	0.99136
3681.86565	0.99093
3679.80874	0.99067
3677.75183	0.99070
3675.69492	0.99015
3673.63801	0.98999
3671.58111	0.99035
3669.52420	0.99043
3667.46729	0.99037
3665.41038	0.99036
3663.35347	0.99036
3661.29657	0.99060
3659.23966	0.99100
3657.18275	0.99131
3655.12584	0.99143
3653.06893	0.99071
3651.01202	0.98989
3648.95512	0.99051
3646.89821	0.99089
3644.84130	0.99048
3642.78439	0.99040
3640.72748	0.99034
3638.67058	0.98986
3636.61367	0.98971
3634.55676	0.99043
3632.49985	0.99093
3630.44294	0.98994
3628.38603	0.98859
3626.32913	0.98879
3624.27222	0.98904
3622.21531	0.98888
3620.15840	0.98920
3618.10149	0.98963
3616.04459	0.98934
3613.98768	0.98879
3611.93077	0.98844
3609.87386	0.98836
3607.81695	0.98843
3605.76004	0.98863
3603.70314	0.98898
3601.64623	0.98911
3599.58932	0.98877
3597.53241	0.98781
3595.47550	0.98664
3593.41860	0.98642
3591.36169	0.98703
3589.30478	0.98738
3587.24787	0.98723
3585.19096	0.98683
3583.13405	0.98671
3581.07715	0.98653
3579.02024	0.98591
3576.96333	0.98571
3574.90642	0.98624
3572.84951	0.98678
3570.79261	0.98673
3568.73570	0.98622
3566.67879	0.98535
3564.62188	0.98403
3562.56497	0.98333
3560.50806	0.98348
3558.45116	0.98339
3556.39425	0.98293
3554.33734	0.98243
3552.28043	0.98212
3550.22352	0.98265
3548.16662	0.98296
3546.10971	0.98197
3544.05280	0.98121
3541.99589	0.98126
3539.93898	0.98107
3537.88207	0.98053
3535.82517	0.97994
3533.76826	0.97948
3531.71135	0.97930
3529.65444	0.97906
3527.59753	0.97864
3525.54063	0.97858
3523.48372	0.97889
3521.42681	0.97851
3519.36990	0.97737
3517.31299	0.97664
3515.25608	0.97691
3513.19918	0.97743
3511.14227	0.97770
3509.08536	0.97777
3507.02845	0.97730
3504.97154	0.97667
3502.91464	0.97613
3500.85773	0.97541
3498.80082	0.97480
3496.74391	0.97439
3494.68700	0.97371
3492.63009	0.97307
3490.57319	0.97307
3488.51628	0.97301
3486.45937	0.97266
3484.40246	0.97284
3482.34555	0.97320
3480.28865	0.97332
3478.23174	0.97336
3476.17483	0.97321
3474.11792	0.97276
3472.06101	0.97258
3470.00410	0.97294
3467.94720	0.97309
3465.89029	0.97290
3463.83338	0.97274
3461.77647	0.97260
3459.71956	0.97239
3457.66266	0.97222
3455.60575	0.97220
3453.54884	0.97214
3451.49193	0.97199
3449.43502	0.97177
3447.37811	0.97127
3445.32121	0.97095
3443.26430	0.97113
3441.20739	0.97118
3439.15048	0.97084
3437.09357	0.97083
3435.03667	0.97104
3432.97976	0.97081
3430.92285	0.97075
3428.86594	0.97128
3426.80903	0.97157
3424.75212	0.97137
3422.69522	0.97099
3420.63831	0.97113
3418.58140	0.97210
3416.52449	0.97278
3414.46758	0.97250
3412.41068	0.97200
3410.35377	0.97188
3408.29686	0.97187
3406.23995	0.97171
3404.18304	0.97146
3402.12613	0.97126
3400.06923	0.97125
3398.01232	0.97118
3395.95541	0.97125
3393.89850	0.97173
3391.84159	0.97218
3389.78469	0.97229
3387.72778	0.97231
3385.67087	0.97279
3383.61396	0.97330
3381.55705	0.97297
3379.50014	0.97240
3377.44324	0.97231
3375.38633	0.97243
3373.32942	0.97271
3371.27251	0.97315
3369.21560	0.97367
3367.15870	0.97419
3365.10179	0.97425
3363.04488	0.97386
3360.98797	0.97328
3358.93106	0.97288
3356.87415	0.97307
3354.81725	0.97347
3352.76034	0.97376
3350.70343	0.97417
3348.64652	0.97448
3346.58961	0.97447
3344.53271	0.97455
3342.47580	0.97475
3340.41889	0.97474
3338.36198	0.97437
3336.30507	0.97424
3334.24816	0.97511
3332.19126	0.97616
3330.13435	0.97626
3328.07744	0.97559
3326.02053	0.97475
3323.96362	0.97428
3321.90672	0.97460
3319.84981	0.97524
3317.79290	0.97546
3315.73599	0.97528
3313.67908	0.97500
3311.62217	0.97473
3309.56527	0.97478
3307.50836	0.97541
3305.45145	0.97634
3303.39454	0.97716
3301.33763	0.97761
3299.28073	0.97769
3297.22382	0.97769
3295.16691	0.97752
3293.11000	0.97705
3291.05309	0.97668
3288.99618	0.97678
3286.93928	0.97747
3284.88237	0.97814
3282.82546	0.97839
3280.76855	0.97847
3278.71164	0.97828
3276.65474	0.97795
3274.59783	0.97803
3272.54092	0.97815
3270.48401	0.97795
3268.42710	0.97775
3266.37019	0.97764
3264.31329	0.97801
3262.25638	0.97884
3260.19947	0.97921
3258.14256	0.97916
3256.08565	0.97922
3254.02875	0.97933
3251.97184	0.97964
3249.91493	0.98009
3247.85802	0.98011
3245.80111	0.97984
3243.74420	0.97979
3241.68730	0.98008
3239.63039	0.98047
3237.57348	0.98062
3235.51657	0.98057
3233.45966	0.98043
3231.40276	0.98038
3229.34585	0.98041
3227.28894	0.98066
3225.23203	0.98115
3223.17512	0.98128
3221.11821	0.98135
3219.06131	0.98176
3217.00440	0.98181
3214.94749	0.98165
3212.89058	0.98197
3210.83367	0.98212
3208.77677	0.98177
3206.71986	0.98163
3204.66295	0.98161
3202.60604	0.98162
3200.54913	0.98225
3198.49222	0.98318
3196.43532	0.98355
3194.37841	0.98346
3192.32150	0.98330
3190.26459	0.98308
3188.20768	0.98297
3186.15078	0.98323
3184.09387	0.98363
3182.03696	0.98372
3179.98005	0.98372
3177.92314	0.98384
3175.86623	0.98392
3173.80933	0.98389
3171.75242	0.98371
3169.69551	0.98329
3167.63860	0.98297
3165.58169	0.98314
3163.52479	0.98365
3161.46788	0.98425
3159.41097	0.98476
3157.35406	0.98501
3155.29715	0.98491
3153.24024	0.98466
3151.18334	0.98450
3149.12643	0.98426
3147.06952	0.98408
3145.01261	0.98420
3142.95570	0.98461
3140.89880	0.98490
3138.84189	0.98480
3136.78498	0.98478
3134.72807	0.98529
3132.67116	0.98568
3130.61425	0.98521
3128.55735	0.98452
3126.50044	0.98446
3124.44353	0.98507
3122.38662	0.98558
3120.32971	0.98571
3118.27281	0.98593
3116.21590	0.98621
3114.15899	0.98639
3112.10208	0.98668
3110.04517	0.98696
3107.98826	0.98669
3105.93136	0.98605
3103.87445	0.98582
3101.81754	0.98608
3099.76063	0.98615
3097.70372	0.98590
3095.64682	0.98585
3093.58991	0.98625
3091.53300	0.98681
3089.47609	0.98712
3087.41918	0.98723
3085.36227	0.98714
3083.30537	0.98688
3081.24846	0.98672
3079.19155	0.98666
3077.13464	0.98683
3075.07773	0.98696
3073.02083	0.98676
3070.96392	0.98665
3068.90701	0.98688
3066.85010	0.98704
3064.79319	0.98679
3062.73628	0.98663
3060.67938	0.98685
3058.62247	0.98677
3056.56556	0.98647
3054.50865	0.98641
3052.45174	0.98632
3050.39484	0.98628
3048.33793	0.98637
3046.28102	0.98645
3044.22411	0.98677
3042.16720	0.98714
3040.11029	0.98726
3038.05339	0.98750
3035.99648	0.98778
3033.93957	0.98744
3031.88266	0.98704
3029.82575	0.98728
3027.76885	0.98752
3025.71194	0.98722
3023.65503	0.98685
3021.59812	0.98668
3019.54121	0.98659
3017.48430	0.98685
3015.42740	0.98743
3013.37049	0.98775
3011.31358	0.98749
3009.25667	0.98697
3007.19976	0.98670
3005.14286	0.98678
3003.08595	0.98697
3001.02904	0.98701
2998.97213	0.98681
2996.91522	0.98675
2994.85831	0.98678
2992.80141	0.98643
2990.74450	0.98607
2988.68759	0.98585
2986.63068	0.98570
2984.57377	0.98592
2982.51687	0.98621
2980.45996	0.98630
2978.40305	0.98627
2976.34614	0.98612
2974.28923	0.98574
2972.23232	0.98521
2970.17542	0.98493
2968.11851	0.98501
2966.06160	0.98506
2964.00469	0.98467
2961.94778	0.98408
2959.89088	0.98382
2957.83397	0.98386
2955.77706	0.98377
2953.72015	0.98366
2951.66324	0.98365
2949.60633	0.98354
2947.54943	0.98316
2945.49252	0.98241
2943.43561	0.98187
2941.37870	0.98193
2939.32179	0.98207
2937.26489	0.98190
2935.20798	0.98165
2933.15107	0.98156
2931.09416	0.98163
2929.03725	0.98178
2926.98034	0.98167
2924.92344	0.98126
2922.86653	0.98110
2920.80962	0.98117
2918.75271	0.98114
2916.69580	0.98131
2914.63890	0.98168
2912.58199	0.98171
2910.52508	0.98142
2908.46817	0.98114
2906.41126	0.98082
2904.35435	0.98040
2902.29745	0.98020
2900.24054	0.98024
2898.18363	0.98048
2896.12672	0.98084
2894.06981	0.98071
2892.01291	0.97998
2889.95600	0.97955
2887.89909	0.97999
2885.84218	0.98069
2883.78527	0.98088
2881.72836	0.98065
2879.67146	0.98051
2877.61455	0.98046
2875.55764	0.98029
2873.50073	0.98015
2871.44382	0.98032
2869.38692	0.98068
2867.33001	0.98104
2865.27310	0.98139
2863.21619	0.98161
2861.15928	0.98193
2859.10237	0.98241
2857.04547	0.98261
2854.98856	0.98269
2852.93165	0.98289
2850.87474	0.98294
2848.81783	0.98315
2846.76093	0.98355
2844.70402	0.98372
2842.64711	0.98386
2840.59020	0.98408
2838.53329	0.98440
2836.47638	0.98492
2834.41948	0.98548
2832.36257	0.98570
2830.30566	0.98567
2828.24875	0.98594
2826.19184	0.98635
2824.13494	0.98640
2822.07803	0.98627
2820.02112	0.98620
2817.96421	0.98614
2815.90730	0.98633
2813.85039	0.98680
2811.79349	0.98683
2809.73658	0.98626
2807.67967	0.98598
2805.62276	0.98644
2803.56585	0.98695
2801.50895	0.98676
2799.45204	0.98630
2797.39513	0.98620
2795.33822	0.98650
2793.28131	0.98718
2791.22440	0.98768
2789.16750	0.98765
2787.11059	0.98749
2785.05368	0.98733
2782.99677	0.98724
2780.93986	0.98735
2778.88296	0.98754
2776.82605	0.98763
2774.76914	0.98744
2772.71223	0.98713
2770.65532	0.98722
2768.59841	0.98737
2766.54151	0.98707
2764.48460	0.98698
2762.42769	0.98701
2760.37078	0.98667
2758.31387	0.98656
2756.25697	0.98674
2754.20006	0.98675
2752.14315	0.98692
2750.08624	0.98736
2748.02933	0.98742
2745.97242	0.98694
2743.91552	0.98678
2741.85861	0.98717
2739.80170	0.98728
2737.74479	0.98716
2735.68788	0.98745
2733.63098	0.98784
2731.57407	0.98801
2729.51716	0.98791
2727.46025	0.98750
2725.40334	0.98709
2723.34643	0.98703
2721.28953	0.98724
2719.23262	0.98733
2717.17571	0.98730
2715.11880	0.98736
2713.06189	0.98754
2711.00499	0.98784
2708.94808	0.98796
2706.89117	0.98776
2704.83426	0.98769
2702.77735	0.98782
2700.72044	0.98796
2698.66354	0.98806
2696.60663	0.98794
2694.54972	0.98776
2692.49281	0.98775
2690.43590	0.98778
2688.37900	0.98780
2686.32209	0.98785
2684.26518	0.98788
2682.20827	0.98767
2680.15136	0.98739
2678.09445	0.98742
2676.03755	0.98773
2673.98064	0.98790
2671.92373	0.98768
2669.86682	0.98759
2667.80991	0.98783
2665.75301	0.98796
2663.69610	0.98782
2661.63919	0.98774
2659.58228	0.98774
2657.52537	0.98751
2655.46846	0.98713
2653.41156	0.98683
2651.35465	0.98655
2649.29774	0.98648
2647.24083	0.98665
2645.18392	0.98685
2643.12702	0.98700
2641.07011	0.98711
2639.01320	0.98714
2636.95629	0.98709
2634.89938	0.98716
2632.84247	0.98738
2630.78557	0.98737
2628.72866	0.98707
2626.67175	0.98704
2624.61484	0.98740
2622.55793	0.98764
2620.50103	0.98773
2618.44412	0.98793
2616.38721	0.98817
2614.33030	0.98818
2612.27339	0.98803
2610.21648	0.98803
2608.15958	0.98808
2606.10267	0.98800
2604.04576	0.98767
2601.98885	0.98741
2599.93194	0.98741
2597.87504	0.98732
2595.81813	0.98731
2593.76122	0.98772
2591.70431	0.98820
2589.64740	0.98855
2587.59049	0.98881
2585.53359	0.98853
2583.47668	0.98788
2581.41977	0.98781
2579.36286	0.98838
2577.30595	0.98890
2575.24905	0.98893
2573.19214	0.98880
2571.13523	0.98924
2569.07832	0.98977
2567.02141	0.98954
2564.96450	0.98911
2562.90760	0.98912
2560.85069	0.98916
2558.79378	0.98915
2556.73687	0.98937
2554.67996	0.98945
2552.62306	0.98922
2550.56615	0.98896
2548.50924	0.98887
2546.45233	0.98884
2544.39542	0.98847
2542.33851	0.98806
2540.28161	0.98811
2538.22470	0.98807
2536.16779	0.98801
2534.11088	0.98842
2532.05397	0.98850
2529.99707	0.98836
2527.94016	0.98894
2525.88325	0.98980
2523.82634	0.99006
2521.76943	0.98986
2519.71252	0.98933
2517.65562	0.98879
2515.59871	0.98902
2513.54180	0.98957
2511.48489	0.98963
2509.42798	0.98945
2507.37108	0.98938
2505.31417	0.98939
2503.25726	0.98934
2501.20035	0.98912
2499.14344	0.98870
2497.08653	0.98836
2495.02963	0.98831
2492.97272	0.98854
2490.91581	0.98903
2488.85890	0.98942
2486.80199	0.98926
2484.74509	0.98882
2482.68818	0.98887
2480.63127	0.98977
2478.57436	0.99068
2476.51745	0.99051
2474.46054	0.98942
2472.40364	0.98873
2470.34673	0.98893
2468.28982	0.98903
2466.23291	0.98841
2464.17600	0.98794
2462.11910	0.98817
2460.06219	0.98866
2458.00528	0.98904
2455.94837	0.98885
2453.89146	0.98836
2451.83455	0.98832
2449.77765	0.98851
2447.72074	0.98872
2445.66383	0.98919
2443.60692	0.98958
2441.55001	0.98968
2439.49311	0.98965
2437.43620	0.98960
2435.37929	0.98976
2433.32238	0.98988
2431.26547	0.98977
2429.20856	0.98988
2427.15166	0.99005
2425.09475	0.98984
2423.03784	0.98964
2420.98093	0.98992
2418.92402	0.99023
2416.86712	0.99028
2414.81021	0.99012
2412.75330	0.98992
2410.69639	0.99027
2408.63948	0.99081
2406.58257	0.99069
2404.52567	0.99032
2402.46876	0.98995
2400.41185	0.98933
2398.35494	0.98905
2396.29803	0.98945
2394.24113	0.98987
2392.18422	0.99011
2390.12731	0.99038
2388.07040	0.99021
2386.01349	0.98964
2383.95658	0.98932
2381.89968	0.98949
2379.84277	0.98995
2377.78586	0.99013
2375.72895	0.99024
2373.67204	0.99072
2371.61514	0.99075
2369.55823	0.98980
2367.50132	0.98875
2365.44441	0.98816
2363.38750	0.98852
2361.33059	0.99006
2359.27369	0.99104
2357.21678	0.99065
2355.15987	0.99037
2353.10296	0.99088
2351.04605	0.99123
2348.98915	0.99096
2346.93224	0.99024
2344.87533	0.98933
2342.81842	0.98914
2340.76151	0.98966
2338.70460	0.98960
2336.64770	0.98910
2334.59079	0.98899
2332.53388	0.98938
2330.47697	0.99000
2328.42006	0.98979
2326.36316	0.98852
2324.30625	0.98756
2322.24934	0.98783
2320.19243	0.98847
2318.13552	0.98865
2316.07861	0.98823
2314.02171	0.98763
2311.96480	0.98759
2309.90789	0.98805
2307.85098	0.98864
2305.79407	0.98891
2303.73717	0.98902
2301.68026	0.98940
2299.62335	0.98961
2297.56644	0.98918
2295.50953	0.98871
2293.45262	0.98882
2291.39572	0.98911
2289.33881	0.98919
2287.28190	0.98951
2285.22499	0.98996
2283.16808	0.98948
2281.11117	0.98823
2279.05427	0.98784
2276.99736	0.98848
2274.94045	0.98860
2272.88354	0.98812
2270.82663	0.98794
2268.76973	0.98782
2266.71282	0.98755
2264.65591	0.98783
2262.59900	0.98901
2260.54209	0.98972
2258.48518	0.98899
2256.42828	0.98840
2254.37137	0.98880
2252.31446	0.98916
2250.25755	0.98924
2248.20064	0.98922
2246.14374	0.98965
2244.08683	0.99039
2242.02992	0.98964
2239.97301	0.98758
2237.91610	0.98637
2235.85919	0.98744
2233.80229	0.98917
2231.74538	0.98926
2229.68847	0.98905
2227.63156	0.99018
2225.57465	0.99166
2223.51775	0.99186
2221.46084	0.99127
2219.40393	0.99110
2217.34702	0.99058
2215.29011	0.98914
2213.23320	0.98742
2211.17630	0.98625
2209.11939	0.98669
2207.06248	0.98850
2205.00557	0.99023
2202.94866	0.99082
2200.89176	0.99065
2198.83485	0.99015
2196.77794	0.98931
2194.72103	0.99011
2192.66412	0.99223
2190.60721	0.99211
2188.55031	0.99064
2186.49340	0.99080
2184.43649	0.99144
2182.37958	0.99225
2180.32267	0.99402
2178.26577	0.99462
2176.20886	0.99350
2174.15195	0.99197
2172.09504	0.99063
2170.03813	0.98952
2167.98122	0.98762
2165.92432	0.98546
2163.86741	0.98478
2161.81050	0.98451
2159.75359	0.98506
2157.69668	0.98878
2155.63978	0.99259
2153.58287	0.99272
2151.52596	0.99071
2149.46905	0.99080
2147.41214	0.99329
2145.35523	0.99485
2143.29833	0.99488
2141.24142	0.99447
2139.18451	0.99377
2137.12760	0.99353
2135.07069	0.99413
2133.01379	0.99426
2130.95688	0.99340
2128.89997	0.99208
2126.84306	0.99100
2124.78615	0.99078
2122.72924	0.99058
2120.67234	0.99044
2118.61543	0.99055
2116.55852	0.98951
2114.50161	0.98880
2112.44470	0.98958
2110.38780	0.98979
2108.33089	0.98924
2106.27398	0.98950
2104.21707	0.99087
2102.16016	0.99164
2100.10325	0.99066
2098.04635	0.98927
2095.98944	0.98937
2093.93253	0.99061
2091.87562	0.99120
2089.81871	0.99077
2087.76181	0.99024
2085.70490	0.99065
2083.64799	0.99128
2081.59108	0.99061
2079.53417	0.98934
2077.47726	0.98833
2075.42036	0.98799
2073.36345	0.98934
2071.30654	0.99142
2069.24963	0.99184
2067.19272	0.99128
2065.13582	0.99164
2063.07891	0.99278
2061.02200	0.99327
2058.96509	0.99205
2056.90818	0.99019
2054.85127	0.98929
2052.79437	0.98917
2050.73746	0.98915
2048.68055	0.98898
2046.62364	0.98909
2044.56673	0.99098
2042.50983	0.99364
2040.45292	0.99412
2038.39601	0.99232
2036.33910	0.98975
2034.28219	0.98862
2032.22528	0.98962
2030.16838	0.98969
2028.11147	0.98957
2026.05456	0.99184
2023.99765	0.99400
2021.94074	0.99378
2019.88384	0.99224
2017.82693	0.99122
2015.77002	0.99098
2013.71311	0.99165
2011.65620	0.99311
2009.59929	0.99434
2007.54239	0.99520
2005.48548	0.99525
2003.42857	0.99440
2001.37166	0.99303
1999.31475	0.99092
1997.25785	0.98952
1995.20094	0.99102
1993.14403	0.99378
1991.08712	0.99533
1989.03021	0.99593
1986.97330	0.99498
1984.91640	0.99197
1982.85949	0.98954
1980.80258	0.98987
1978.74567	0.99192
1976.68876	0.99297
1974.63186	0.99217
1972.57495	0.99214
1970.51804	0.99400
1968.46113	0.99569
1966.40422	0.99540
1964.34731	0.99331
1962.29041	0.99138
1960.23350	0.99031
1958.17659	0.98975
1956.11968	0.99060
1954.06277	0.99232
1952.00587	0.99241
1949.94896	0.99081
1947.89205	0.98984
1945.83514	0.99049
1943.77823	0.99174
1941.72132	0.99246
1939.66442	0.99290
1937.60751	0.99377
1935.55060	0.99451
1933.49369	0.99424
1931.43678	0.99312
1929.37988	0.99189
1927.32297	0.99153
1925.26606	0.99191
1923.20915	0.99204
1921.15224	0.99174
1919.09533	0.99177
1917.03843	0.99227
1914.98152	0.99246
1912.92461	0.99277
1910.86770	0.99280
1908.81079	0.99191
1906.75389	0.99150
1904.69698	0.99187
1902.64007	0.99228
1900.58316	0.99258
1898.52625	0.99215
1896.46934	0.99141
1894.41244	0.99154
1892.35553	0.99204
1890.29862	0.99233
1888.24171	0.99246
1886.18480	0.99219
1884.12790	0.99158
1882.07099	0.99129
1880.01408	0.99143
1877.95717	0.99097
1875.90026	0.99045
1873.84335	0.99109
1871.78645	0.99223
1869.72954	0.99284
1867.67263	0.99262
1865.61572	0.99223
1863.55881	0.99219
1861.50191	0.99221
1859.44500	0.99211
1857.38809	0.99228
1855.33118	0.99266
1853.27427	0.99276
1851.21736	0.99254
1849.16046	0.99231
1847.10355	0.99196
1845.04664	0.99140
1842.98973	0.99133
1840.93282	0.99179
1838.87592	0.99214
1836.81901	0.99237
1834.76210	0.99237
1832.70519	0.99193
1830.64828	0.99134
1828.59137	0.99117
1826.53447	0.99137
1824.47756	0.99153
1822.42065	0.99187
1820.36374	0.99226
1818.30683	0.99234
1816.24993	0.99241
1814.19302	0.99240
1812.13611	0.99197
1810.07920	0.99159
1808.02229	0.99150
1805.96538	0.99137
1803.90848	0.99138
1801.85157	0.99173
1799.79466	0.99196
1797.73775	0.99172
1795.68084	0.99118
1793.62394	0.99064
1791.56703	0.99041
1789.51012	0.99031
1787.45321	0.99024
1785.39630	0.99058
1783.33939	0.99109
1781.28249	0.99105
1779.22558	0.99035
1777.16867	0.98965
1775.11176	0.98914
1773.05485	0.98833
1770.99795	0.98729
1768.94104	0.98610
1766.88413	0.98410
1764.82722	0.98137
1762.77031	0.97799
1760.71340	0.97407
1758.65650	0.97025
1756.59959	0.96632
1754.54268	0.96269
1752.48577	0.95920
1750.42886	0.95514
1748.37196	0.95127
1746.31505	0.94810
1744.25814	0.94538
1742.20123	0.94292
1740.14432	0.94065
1738.08741	0.93942
1736.03051	0.93920
1733.97360	0.93835
1731.91669	0.93699
1729.85978	0.93645
1727.80287	0.93632
1725.74597	0.93637
1723.68906	0.93689
1721.63215	0.93809
1719.57524	0.93982
1717.51833	0.94188
1715.46142	0.94427
1713.40452	0.94696
1711.34761	0.94980
1709.29070	0.95260
1707.23379	0.95541
1705.17688	0.95853
1703.11998	0.96170
1701.06307	0.96495
1699.00616	0.96798
1696.94925	0.97011
1694.89234	0.97184
1692.83543	0.97329
1690.77853	0.97472
1688.72162	0.97607
1686.66471	0.97696
1684.60780	0.97746
1682.55089	0.97780
1680.49399	0.97822
1678.43708	0.97865
1676.38017	0.97899
1674.32326	0.97952
1672.26635	0.98020
1670.20944	0.98055
1668.15254	0.98052
1666.09563	0.98044
1664.03872	0.98058
1661.98181	0.98096
1659.92490	0.98108
1657.86800	0.98092
1655.81109	0.98074
1653.75418	0.98034
1651.69727	0.98032
1649.64036	0.98101
1647.58345	0.98155
1645.52655	0.98151
1643.46964	0.98137
1641.41273	0.98138
1639.35582	0.98135
1637.29891	0.98135
1635.24201	0.98149
1633.18510	0.98159
1631.12819	0.98161
1629.07128	0.98159
1627.01437	0.98165
1624.95746	0.98184
1622.90056	0.98199
1620.84365	0.98214
1618.78674	0.98245
1616.72983	0.98275
1614.67292	0.98303
1612.61602	0.98333
1610.55911	0.98351
1608.50220	0.98369
1606.44529	0.98411
1604.38838	0.98460
1602.33147	0.98481
1600.27457	0.98480
1598.21766	0.98485
1596.16075	0.98502
1594.10384	0.98517
1592.04693	0.98544
1589.99003	0.98579
1587.93312	0.98589
1585.87621	0.98583
1583.81930	0.98591
1581.76239	0.98618
1579.70548	0.98638
1577.64858	0.98632
1575.59167	0.98638
1573.53476	0.98660
1571.47785	0.98662
1569.42094	0.98653
1567.36404	0.98645
1565.30713	0.98646
1563.25022	0.98674
1561.19331	0.98709
1559.13640	0.98701
1557.07949	0.98672
1555.02259	0.98654
1552.96568	0.98649
1550.90877	0.98671
1548.85186	0.98689
1546.79495	0.98680
1544.73805	0.98649
1542.68114	0.98626
1540.62423	0.98642
1538.56732	0.98666
1536.51041	0.98683
1534.45350	0.98706
1532.39660	0.98717
1530.33969	0.98702
1528.28278	0.98688
1526.22587	0.98682
1524.16896	0.98661
1522.11206	0.98624
1520.05515	0.98596
1517.99824	0.98582
1515.94133	0.98587
1513.88442	0.98591
1511.82751	0.98569
1509.77061	0.98529
1507.71370	0.98491
1505.65679	0.98511
1503.59988	0.98545
1501.54297	0.98560
1499.48607	0.98563
1497.42916	0.98542
1495.37225	0.98509
1493.31534	0.98465
1491.25843	0.98410
1489.20152	0.98375
1487.14462	0.98374
1485.08771	0.98393
1483.03080	0.98399
1480.97389	0.98361
1478.91698	0.98297
1476.86008	0.98217
1474.80317	0.98142
1472.74626	0.98074
1470.68935	0.97982
1468.63244	0.97906
1466.57553	0.97841
1464.51863	0.97767
1462.46172	0.97720
1460.40481	0.97682
1458.34790	0.97587
1456.29099	0.97439
1454.23409	0.97347
1452.17718	0.97291
1450.12027	0.97233
1448.06336	0.97176
1446.00645	0.97094
1443.94954	0.96995
1441.89264	0.96918
1439.83573	0.96853
1437.77882	0.96770
1435.72191	0.96667
1433.66500	0.96585
1431.60810	0.96523
1429.55119	0.96475
1427.49428	0.96467
1425.43737	0.96488
1423.38046	0.96508
1421.32355	0.96528
1419.26665	0.96522
1417.20974	0.96479
1415.15283	0.96463
1413.09592	0.96475
1411.03901	0.96484
1408.98211	0.96484
1406.92520	0.96489
1404.86829	0.96480
1402.81138	0.96454
1400.75447	0.96424
1398.69756	0.96376
1396.64066	0.96318
1394.58375	0.96250
1392.52684	0.96161
1390.46993	0.96061
1388.41302	0.95924
1386.35612	0.95725
1384.29921	0.95513
1382.24230	0.95290
1380.18539	0.95039
1378.12848	0.94791
1376.07157	0.94556
1374.01467	0.94318
1371.95776	0.94165
1369.90085	0.94143
1367.84394	0.94184
1365.78703	0.94285
1363.73013	0.94478
1361.67322	0.94749
1359.61631	0.95042
1357.55940	0.95336
1355.50249	0.95620
1353.44558	0.95847
1351.38868	0.95986
1349.33177	0.96080
1347.27486	0.96189
1345.21795	0.96308
1343.16104	0.96404
1341.10414	0.96455
1339.04723	0.96478
1336.99032	0.96500
1334.93341	0.96519
1332.87650	0.96542
1330.81959	0.96569
1328.76269	0.96575
1326.70578	0.96565
1324.64887	0.96568
1322.59196	0.96589
1320.53505	0.96620
1318.47815	0.96639
1316.42124	0.96612
1314.36433	0.96588
1312.30742	0.96631
1310.25051	0.96705
1308.19360	0.96730
1306.13670	0.96734
1304.07979	0.96773
1302.02288	0.96806
1299.96597	0.96784
1297.90906	0.96734
1295.85216	0.96701
1293.79525	0.96688
1291.73834	0.96688
1289.68143	0.96676
1287.62452	0.96611
1285.56761	0.96503
1283.51071	0.96380
1281.45380	0.96238
1279.39689	0.96091
1277.33998	0.95961
1275.28307	0.95815
1273.22617	0.95621
1271.16926	0.95408
1269.11235	0.95205
1267.05544	0.95000
1264.99853	0.94762
1262.94162	0.94505
1260.88472	0.94244
1258.82781	0.93945
1256.77090	0.93618
1254.71399	0.93308
1252.65708	0.93012
1250.60018	0.92706
1248.54327	0.92380
1246.48636	0.92069
1244.42945	0.91815
1242.37254	0.91581
1240.31563	0.91305
1238.25873	0.91005
1236.20182	0.90728
1234.14491	0.90485
1232.08800	0.90298
1230.03109	0.90190
1227.97419	0.90133
1225.91728	0.90084
1223.86037	0.90067
1221.80346	0.90152
1219.74655	0.90352
1217.68964	0.90614
1215.63274	0.90909
1213.57583	0.91251
1211.51892	0.91615
1209.46201	0.91960
1207.40510	0.92283
1205.34820	0.92566
1203.29129	0.92816
1201.23438	0.93066
1199.17747	0.93315
1197.12056	0.93553
1195.06365	0.93766
1193.00675	0.93952
1190.94984	0.94121
1188.89293	0.94255
1186.83602	0.94315
1184.77911	0.94314
1182.72221	0.94259
1180.66530	0.94140
1178.60839	0.93983
1176.55148	0.93829
1174.49457	0.93700
1172.43766	0.93549
1170.38076	0.93364
1168.32385	0.93189
1166.26694	0.93020
1164.21003	0.92847
1162.15312	0.92690
1160.09622	0.92572
1158.03931	0.92494
1155.98240	0.92472
1153.92549	0.92503
1151.86858	0.92526
1149.81167	0.92523
1147.75477	0.92519
1145.69786	0.92513
1143.64095	0.92496
1141.58404	0.92447
1139.52713	0.92346
1137.47023	0.92210
1135.41332	0.92060
1133.35641	0.91889
1131.29950	0.91702
1129.24259	0.91518
1127.18568	0.91323
1125.12878	0.91122
1123.07187	0.90936
1121.01496	0.90751
1118.95805	0.90574
1116.90114	0.90450
1114.84424	0.90365
1112.78733	0.90269
1110.73042	0.90137
1108.67351	0.89958
1106.61660	0.89776
1104.55969	0.89646
1102.50279	0.89535
1100.44588	0.89399
1098.38897	0.89236
1096.33206	0.89065
1094.27515	0.88906
1092.21825	0.88760
1090.16134	0.88605
1088.10443	0.88406
1086.04752	0.88179
1083.99061	0.87953
1081.93370	0.87713
1079.87680	0.87484
1077.81989	0.87290
1075.76298	0.87084
1073.70607	0.86860
1071.64916	0.86649
1069.59226	0.86461
1067.53535	0.86299
1065.47844	0.86165
1063.42153	0.86033
1061.36462	0.85882
1059.30771	0.85701
1057.25081	0.85510
1055.19390	0.85372
1053.13699	0.85255
1051.08008	0.85074
1049.02317	0.84882
1046.96627	0.84742
1044.90936	0.84624
1042.85245	0.84509
1040.79554	0.84380
1038.73863	0.84224
1036.68172	0.84104
1034.62482	0.84037
1032.56791	0.83951
1030.51100	0.83842
1028.45409	0.83766
1026.39718	0.83746
1024.34028	0.83757
1022.28337	0.83785
1020.22646	0.83870
1018.16955	0.84037
1016.11264	0.84218
1014.05573	0.84367
1011.99883	0.84528
1009.94192	0.84679
1007.88501	0.84805
1005.82810	0.84957
1003.77119	0.85132
1001.71429	0.85311
999.65738	0.85486
997.60047	0.85654
995.54356	0.85841
993.48665	0.86065
991.42974	0.86290
989.37284	0.86491
987.31593	0.86687
985.25902	0.86888
983.20211	0.87087
981.14520	0.87301
979.08830	0.87540
977.03139	0.87783
974.97448	0.88002
972.91757	0.88220
970.86066	0.88482
968.80375	0.88759
966.74685	0.89001
964.68994	0.89229
962.63303	0.89465
960.57612	0.89701
958.51921	0.89930
956.46231	0.90143
954.40540	0.90340
952.34849	0.90523
950.29158	0.90667
948.23467	0.90787
946.17776	0.90950
944.12086	0.91094
942.06395	0.91134
940.00704	0.91171
937.95013	0.91286
935.89322	0.91395
933.83632	0.91456
931.77941	0.91486
929.72250	0.91498
927.66559	0.91549
925.60868	0.91640
923.55177	0.91681
921.49487	0.91647
919.43796	0.91608
917.38105	0.91623
915.32414	0.91672
913.26723	0.91693
911.21033	0.91645
909.15342	0.91531
907.09651	0.91438
905.03960	0.91424
902.98269	0.91456
900.92578	0.91483
898.86888	0.91494
896.81197	0.91533
894.75506	0.91616
892.69815	0.91680
890.64124	0.91723
888.58434	0.91805
886.52743	0.91948
884.47052	0.92111
882.41361	0.92285
880.35670	0.92474
878.29979	0.92616
876.24289	0.92710
874.18598	0.92838
872.12907	0.93030
870.07216	0.93264
868.01525	0.93469
865.95835	0.93590
863.90144	0.93693
861.84453	0.93827
859.78762	0.93959
857.73071	0.94062
855.67380	0.94115
853.61690	0.94136
851.55999	0.94169
849.50308	0.94205
847.44617	0.94213
845.38926	0.94224
843.33236	0.94261
841.27545	0.94237
839.21854	0.94117
837.16163	0.94049
835.10472	0.94074
833.04781	0.94081
830.99091	0.94075
828.93400	0.94098
826.87709	0.94124
824.82018	0.94129
822.76327	0.94112
820.70637	0.94084
818.64946	0.94071
816.59255	0.94113
814.53564	0.94161
812.47873	0.94144
810.42182	0.94123
808.36492	0.94115
806.30801	0.94057
804.25110	0.94026
802.19419	0.94085
800.13728	0.94134
798.08038	0.94140
796.02347	0.94169
793.96656	0.94201
791.90965	0.94198
789.85274	0.94208
787.79583	0.94219
785.73893	0.94261
783.68202	0.94364
781.62511	0.94412
779.56820	0.94422
777.51129	0.94500
775.45439	0.94627
773.39748	0.94764
771.34057	0.94826
769.28366	0.94780
767.22675	0.94758
765.16984	0.94815
763.11294	0.94888
761.05603	0.94956
758.99912	0.95015
756.94221	0.95034
754.88530	0.95014
752.82839	0.95021
750.77149	0.95059
748.71458	0.95091
746.65767	0.95095
744.60076	0.95019
742.54385	0.94940
740.48695	0.94965
738.43004	0.95055
736.37313	0.95124
734.31622	0.95113
732.25931	0.95035
730.20240	0.94955
728.14550	0.94895
726.08859	0.94871
724.03168	0.94903
721.97477	0.94942
719.91786	0.94927
717.86096	0.94843
715.80405	0.94765
713.74714	0.94749
711.69023	0.94720
709.63332	0.94642
707.57641	0.94575
705.51951	0.94531
703.46260	0.94448
701.40569	0.94372
699.34878	0.94390
697.29187	0.94421
695.23497	0.94407
693.17806	0.94381
691.12115	0.94347
689.06424	0.94330
687.00733	0.94294
684.95042	0.94144
682.89352	0.93962
680.83661	0.93900
678.77970	0.93860
676.72279	0.93787
674.66588	0.93787
672.60898	0.93806
670.55207	0.93776
668.49516	0.93769
666.43825	0.93802
664.38134	0.93809
662.32443	0.93838
660.26753	0.93887
658.21062	0.93846
656.15371	0.93707
654.09680	0.93633
652.03989	0.93708
649.98299	0.93767
647.92608	0.93686
645.86917	0.93586
643.81226	0.93554
641.75535	0.93536
639.69844	0.93457
637.64154	0.93297
635.58463	0.93150
633.52772	0.93133
631.47081	0.93180
629.41390	0.93175
627.35700	0.93181
625.30009	0.93163
623.24318	0.93028
621.18627	0.92875
619.12936	0.92782
617.07245	0.92730
615.01555	0.92641
612.95864	0.92469
610.90173	0.92259
608.84482	0.92039
606.78791	0.91851
604.73101	0.91739
602.67410	0.91682
600.61719	0.91603
598.56028	0.91530
596.50337	0.91573
594.44646	0.91770
592.38956	0.91938
590.33265	0.91906
588.27574	0.91817
586.21883	0.91770
584.16192	0.91777
582.10502	0.91843
580.04811	0.91904
577.99120	0.91916
575.93429	0.91871
573.87738	0.91896
571.82047	0.92004
569.76357	0.91981
567.70666	0.91795
565.64975	0.91569
563.59284	0.91412
561.53593	0.91371
559.47903	0.91372
557.42212	0.91432
555.36521	0.91581
553.30830	0.91669
551.25139	0.91636
549.19448	0.91522
547.13758	0.91369
545.08067	0.91256
543.02376	0.91186
540.96685	0.91141
538.90994	0.91134
536.85304	0.91211
534.79613	0.91325
532.73922	0.91322
530.68231	0.91206
528.62540	0.91086
526.56849	0.91040
524.51159	0.90973
522.45468	0.90825
520.39777	0.90722
518.34086	0.90676
516.28395	0.90599
514.22705	0.90444
512.17014	0.90229
510.11323	0.90018
508.05632	0.89839
505.99941	0.89706
503.94250	0.89597
501.88560	0.89396
499.82869	0.89131
497.77178	0.88907
495.71487	0.88689
493.65796	0.88475
491.60106	0.88253
489.54415	0.87892
487.48724	0.87489
485.43033	0.87271
483.37342	0.87220
481.31651	0.87216
479.25961	0.87249
477.20270	0.87296
475.14579	0.87229
473.08888	0.87011
471.03197	0.86711
468.97507	0.86415
466.91816	0.86243
464.86125	0.86147
462.80434	0.86034
460.74743	0.86010
458.69052	0.86044
456.63362	0.85954
454.57671	0.85931
452.51980	0.86068
450.46289	0.86210
448.40598	0.86283
446.34908	0.86206
444.29217	0.86042
442.23526	0.85982
440.17835	0.85982
438.12144	0.85800
436.06453	0.85535
434.00763	0.85559
431.95072	0.85839
429.89381	0.86108
427.83690	0.86297
425.77999	0.86370
423.72309	0.86144
421.66618	0.85736
419.60927	0.85688
417.55236	0.85949
415.49545	0.85998
413.43854	0.86083
411.38164	0.86278
409.32473	0.86387
407.26782	0.86284
405.21091	0.86140
403.15400	0.86191
401.09710	0.86161
399.04019	0.86182
