3996.57260	0.97950
3994.51569	0.97967
3992.45878	0.98006
3990.40188	0.98016
3988.34497	0.98036
3986.28806	0.98066
3984.23115	0.98005
3982.17424	0.97908
3980.11733	0.97942
3978.06043	0.98067
3976.00352	0.98102
3973.94661	0.98015
3971.88970	0.97936
3969.83279	0.97952
3967.77589	0.97981
3965.71898	0.97938
3963.66207	0.97875
3961.60516	0.97852
3959.54825	0.97842
3957.49134	0.97860
3955.43444	0.97951
3953.37753	0.98037
3951.32062	0.98052
3949.26371	0.98015
3947.20680	0.97963
3945.14990	0.97942
3943.09299	0.97975
3941.03608	0.97998
3938.97917	0.97965
3936.92226	0.97958
3934.86535	0.97971
3932.80845	0.97914
3930.75154	0.97859
3928.69463	0.97889
3926.63772	0.97953
3924.58081	0.97982
3922.52391	0.97938
3920.46700	0.97874
3918.41009	0.97871
3916.35318	0.97923
3914.29627	0.97974
3912.23936	0.97996
3910.18246	0.97986
3908.12555	0.97978
3906.06864	0.97982
3904.01173	0.97958
3901.95482	0.97922
3899.89792	0.97876
3897.84101	0.97824
3895.78410	0.97848
3893.72719	0.97953
3891.67028	0.98030
3889.61337	0.98013
3887.55647	0.97981
3885.49956	0.97974
3883.44265	0.98001
3881.38574	0.98041
3879.32883	0.98060
3877.27193	0.98075
3875.21502	0.98031
3873.15811	0.97889
3871.10120	0.97799
3869.04429	0.97900
3866.98738	0.98049
3864.93048	0.98064
3862.87357	0.97999
3860.81666	0.98016
3858.75975	0.98096
3856.70284	0.98172
3854.64594	0.98212
3852.58903	0.98123
3850.53212	0.98005
3848.47521	0.97969
3846.41830	0.97977
3844.36139	0.97996
3842.30449	0.98000
3840.24758	0.98036
3838.19067	0.98067
3836.13376	0.97997
3834.07685	0.97953
3832.01995	0.97979
3829.96304	0.97991
3827.90613	0.98006
3825.84922	0.98040
3823.79231	0.98022
3821.73540	0.97937
3819.67850	0.97851
3817.62159	0.97811
3815.56468	0.97840
3813.50777	0.97926
3811.45086	0.98008
3809.39396	0.98060
3807.33705	0.98080
3805.28014	0.98074
3803.22323	0.98059
3801.16632	0.98045
3799.10941	0.98040
3797.05251	0.98035
3794.99560	0.98003
3792.93869	0.97968
3790.88178	0.97970
3788.82487	0.97988
3786.76796	0.97975
3784.71106	0.97946
3782.65415	0.97953
3780.59724	0.97943
3778.54033	0.97873
3776.48342	0.97870
3774.42652	0.97968
3772.36961	0.98020
3770.31270	0.97979
3768.25579	0.97968
3766.19888	0.97971
3764.14197	0.97909
3762.08507	0.97880
3760.02816	0.97911
3757.97125	0.97907
3755.91434	0.97906
3753.85743	0.97997
3751.80053	0.98098
3749.74362	0.98041
3747.68671	0.97976
3745.62980	0.98059
3743.57289	0.98122
3741.51598	0.98060
3739.45908	0.97991
3737.40217	0.97945
3735.34526	0.97938
3733.28835	0.97936
3731.23144	0.97938
3729.17454	0.98017
3727.11763	0.98116
3725.06072	0.98100
3723.00381	0.98033
3720.94690	0.98038
3718.88999	0.98053
3716.83309	0.98055
3714.77618	0.98060
3712.71927	0.98092
3710.66236	0.98108
3708.60545	0.98052
3706.54855	0.98024
3704.49164	0.98058
3702.43473	0.98060
3700.37782	0.98020
3698.32091	0.98029
3696.26400	0.98036
3694.20710	0.98000
3692.15019	0.97982
3690.09328	0.97973
3688.03637	0.97929
3685.97946	0.97919
3683.92256	0.97955
3681.86565	0.98008
3679.80874	0.98067
3677.75183	0.98140
3675.69492	0.98200
3673.63801	0.98176
3671.58111	0.98150
3669.52420	0.98124
3667.46729	0.98063
3665.41038	0.98016
3663.35347	0.98019
3661.29657	0.98066
3659.23966	0.98053
3657.18275	0.97990
3655.12584	0.98032
3653.06893	0.98105
3651.01202	0.98088
3648.95512	0.98029
3646.89821	0.98011
3644.84130	0.98054
3642.78439	0.98095
3640.72748	0.98094
3638.67058	0.98075
3636.61367	0.98047
3634.55676	0.97984
3632.49985	0.97891
3630.44294	0.97840
3628.38603	0.97840
3626.32913	0.97841
3624.27222	0.97895
3622.21531	0.98009
3620.15840	0.98064
3618.10149	0.97970
3616.04459	0.97852
3613.98768	0.97787
3611.93077	0.97708
3609.87386	0.97627
3607.81695	0.97676
3605.76004	0.97808
3603.70314	0.97864
3601.64623	0.97855
3599.58932	0.97851
3597.53241	0.97888
3595.47550	0.97957
3593.41860	0.97967
3591.36169	0.97869
3589.30478	0.97733
3587.24787	0.97712
3585.19096	0.97817
3583.13405	0.97853
3581.07715	0.97787
3579.02024	0.97720
3576.96333	0.97732
3574.90642	0.97743
3572.84951	0.97678
3570.79261	0.97588
3568.73570	0.97529
3566.67879	0.97514
3564.62188	0.97476
3562.56497	0.97416
3560.50806	0.97406
3558.45116	0.97406
3556.39425	0.97346
3554.33734	0.97259
3552.28043	0.97226
3550.22352	0.97261
3548.16662	0.97301
3546.10971	0.97289
3544.05280	0.97225
3541.99589	0.97189
3539.93898	0.97176
3537.88207	0.97150
3535.82517	0.97118
3533.76826	0.97042
3531.71135	0.96964
3529.65444	0.96943
3527.59753	0.96951
3525.54063	0.96945
3523.48372	0.96866
3521.42681	0.96743
3519.36990	0.96699
3517.31299	0.96731
3515.25608	0.96756
3513.19918	0.96748
3511.14227	0.96748
3509.08536	0.96742
3507.02845	0.96701
3504.97154	0.96677
3502.91464	0.96668
3500.85773	0.96655
3498.80082	0.96658
3496.74391	0.96670
3494.68700	0.96633
3492.63009	0.96539
3490.57319	0.96475
3488.51628	0.96471
3486.45937	0.96497
3484.40246	0.96534
3482.34555	0.96531
3480.28865	0.96475
3478.23174	0.96447
3476.17483	0.96465
3474.11792	0.96477
3472.06101	0.96489
3470.00410	0.96504
3467.94720	0.96485
3465.89029	0.96478
3463.83338	0.96563
3461.77647	0.96631
3459.71956	0.96591
3457.66266	0.96553
3455.60575	0.96582
3453.54884	0.96623
3451.49193	0.96647
3449.43502	0.96672
3447.37811	0.96713
3445.32121	0.96748
3443.26430	0.96754
3441.20739	0.96760
3439.15048	0.96774
3437.09357	0.96796
3435.03667	0.96824
3432.97976	0.96836
3430.92285	0.96852
3428.86594	0.96886
3426.80903	0.96922
3424.75212	0.96935
3422.69522	0.96937
3420.63831	0.96968
3418.58140	0.97022
3416.52449	0.97053
3414.46758	0.97047
3412.41068	0.97034
3410.35377	0.97048
3408.29686	0.97065
3406.23995	0.97077
3404.18304	0.97111
3402.12613	0.97128
3400.06923	0.97120
3398.01232	0.97148
3395.95541	0.97156
3393.89850	0.97125
3391.84159	0.97146
3389.78469	0.97219
3387.72778	0.97297
3385.67087	0.97346
3383.61396	0.97325
3381.55705	0.97289
3379.50014	0.97302
3377.44324	0.97325
3375.38633	0.97320
3373.32942	0.97324
3371.27251	0.97358
3369.21560	0.97392
3367.15870	0.97401
3365.10179	0.97420
3363.04488	0.97475
3360.98797	0.97500
3358.93106	0.97482
3356.87415	0.97467
3354.81725	0.97459
3352.76034	0.97459
3350.70343	0.97464
3348.64652	0.97471
3346.58961	0.97507
3344.53271	0.97540
3342.47580	0.97500
3340.41889	0.97440
3338.36198	0.97426
3336.30507	0.97443
3334.24816	0.97478
3332.19126	0.97507
3330.13435	0.97491
3328.07744	0.97451
3326.02053	0.97442
3323.96362	0.97471
3321.90672	0.97530
3319.84981	0.97603
3317.79290	0.97613
3315.73599	0.97555
3313.67908	0.97552
3311.62217	0.97616
3309.56527	0.97653
3307.50836	0.97642
3305.45145	0.97602
3303.39454	0.97567
3301.33763	0.97566
3299.28073	0.97610
3297.22382	0.97658
3295.16691	0.97641
3293.11000	0.97583
3291.05309	0.97579
3288.99618	0.97632
3286.93928	0.97703
3284.88237	0.97744
3282.82546	0.97740
3280.76855	0.97731
3278.71164	0.97732
3276.65474	0.97734
3274.59783	0.97729
3272.54092	0.97734
3270.48401	0.97748
3268.42710	0.97725
3266.37019	0.97672
3264.31329	0.97643
3262.25638	0.97686
3260.19947	0.97782
3258.14256	0.97809
3256.08565	0.97737
3254.02875	0.97679
3251.97184	0.97681
3249.91493	0.97719
3247.85802	0.97782
3245.80111	0.97842
3243.74420	0.97866
3241.68730	0.97856
3239.63039	0.97826
3237.57348	0.97751
3235.51657	0.97658
3233.45966	0.97683
3231.40276	0.97819
3229.34585	0.97919
3227.28894	0.97909
3225.23203	0.97819
3223.17512	0.97753
3221.11821	0.97787
3219.06131	0.97869
3217.00440	0.97886
3214.94749	0.97832
3212.89058	0.97808
3210.83367	0.97853
3208.77677	0.97867
3206.71986	0.97792
3204.66295	0.97707
3202.60604	0.97690
3200.54913	0.97752
3198.49222	0.97821
3196.43532	0.97821
3194.37841	0.97781
3192.32150	0.97776
3190.26459	0.97820
3188.20768	0.97849
3186.15078	0.97820
3184.09387	0.97754
3182.03696	0.97720
3179.98005	0.97746
3177.92314	0.97807
3175.86623	0.97871
3173.80933	0.97884
3171.75242	0.97837
3169.69551	0.97815
3167.63860	0.97860
3165.58169	0.97929
3163.52479	0.97958
3161.46788	0.97909
3159.41097	0.97836
3157.35406	0.97815
3155.29715	0.97835
3153.24024	0.97836
3151.18334	0.97791
3149.12643	0.97745
3147.06952	0.97727
3145.01261	0.97756
3142.95570	0.97834
3140.89880	0.97867
3138.84189	0.97824
3136.78498	0.97803
3134.72807	0.97848
3132.67116	0.97866
3130.61425	0.97797
3128.55735	0.97744
3126.50044	0.97783
3124.44353	0.97852
3122.38662	0.97889
3120.32971	0.97872
3118.27281	0.97819
3116.21590	0.97821
3114.15899	0.97844
3112.10208	0.97804
3110.04517	0.97769
3107.98826	0.97774
3105.93136	0.97775
3103.87445	0.97806
3101.81754	0.97887
3099.76063	0.97922
3097.70372	0.97896
3095.64682	0.97905
3093.58991	0.97921
3091.53300	0.97857
3089.47609	0.97800
3087.41918	0.97848
3085.36227	0.97914
3083.30537	0.97913
3081.24846	0.97878
3079.19155	0.97861
3077.13464	0.97866
3075.07773	0.97852
3073.02083	0.97837
3070.96392	0.97851
3068.90701	0.97859
3066.85010	0.97858
3064.79319	0.97872
3062.73628	0.97870
3060.67938	0.97862
3058.62247	0.97877
3056.56556	0.97865
3054.50865	0.97783
3052.45174	0.97710
3050.39484	0.97740
3048.33793	0.97810
3046.28102	0.97832
3044.22411	0.97831
3042.16720	0.97839
3040.11029	0.97839
3038.05339	0.97796
3035.99648	0.97768
3033.93957	0.97818
3031.88266	0.97861
3029.82575	0.97826
3027.76885	0.97778
3025.71194	0.97756
3023.65503	0.97751
3021.59812	0.97756
3019.54121	0.97727
3017.48430	0.97671
3015.42740	0.97642
3013.37049	0.97636
3011.31358	0.97638
3009.25667	0.97644
3007.19976	0.97633
3005.14286	0.97609
3003.08595	0.97613
3001.02904	0.97645
2998.97213	0.97652
2996.91522	0.97628
2994.85831	0.97611
2992.80141	0.97599
2990.74450	0.97575
2988.68759	0.97520
2986.63068	0.97441
2984.57377	0.97388
2982.51687	0.97370
2980.45996	0.97369
2978.40305	0.97385
2976.34614	0.97407
2974.28923	0.97421
2972.23232	0.97380
2970.17542	0.97276
2968.11851	0.97198
2966.06160	0.97199
2964.00469	0.97231
2961.94778	0.97231
2959.89088	0.97174
2957.83397	0.97110
2955.77706	0.97106
2953.72015	0.97139
2951.66324	0.97124
2949.60633	0.97068
2947.54943	0.97026
2945.49252	0.96979
2943.43561	0.96928
2941.37870	0.96913
2939.32179	0.96931
2937.26489	0.96943
2935.20798	0.96973
2933.15107	0.97061
2931.09416	0.97138
2929.03725	0.97172
2926.98034	0.97217
2924.92344	0.97250
2922.86653	0.97234
2920.80962	0.97191
2918.75271	0.97154
2916.69580	0.97157
2914.63890	0.97187
2912.58199	0.97204
2910.52508	0.97194
2908.46817	0.97164
2906.41126	0.97147
2904.35435	0.97151
2902.29745	0.97136
2900.24054	0.97105
2898.18363	0.97101
2896.12672	0.97124
2894.06981	0.97147
2892.01291	0.97142
2889.95600	0.97114
2887.89909	0.97107
2885.84218	0.97114
2883.78527	0.97101
2881.72836	0.97093
2879.67146	0.97102
2877.61455	0.97098
2875.55764	0.97091
2873.50073	0.97134
2871.44382	0.97201
2869.38692	0.97230
2867.33001	0.97249
2865.27310	0.97291
2863.21619	0.97324
2861.15928	0.97325
2859.10237	0.97319
2857.04547	0.97333
2854.98856	0.97369
2852.93165	0.97402
2850.87474	0.97423
2848.81783	0.97443
2846.76093	0.97466
2844.70402	0.97493
2842.64711	0.97546
2840.59020	0.97605
2838.53329	0.97607
2836.47638	0.97572
2834.41948	0.97588
2832.36257	0.97635
2830.30566	0.97651
2828.24875	0.97635
2826.19184	0.97613
2824.13494	0.97624
2822.07803	0.97671
2820.02112	0.97709
2817.96421	0.97699
2815.90730	0.97680
2813.85039	0.97675
2811.79349	0.97659
2809.73658	0.97646
2807.67967	0.97650
2805.62276	0.97667
2803.56585	0.97684
2801.50895	0.97682
2799.45204	0.97682
2797.39513	0.97697
2795.33822	0.97703
2793.28131	0.97702
2791.22440	0.97707
2789.16750	0.97703
2787.11059	0.97707
2785.05368	0.97752
2782.99677	0.97793
2780.93986	0.97779
2778.88296	0.97742
2776.82605	0.97745
2774.76914	0.97771
2772.71223	0.97768
2770.65532	0.97760
2768.59841	0.97762
2766.54151	0.97760
2764.48460	0.97760
2762.42769	0.97762
2760.37078	0.97766
2758.31387	0.97778
2756.25697	0.97793
2754.20006	0.97812
2752.14315	0.97826
2750.08624	0.97830
2748.02933	0.97830
2745.97242	0.97806
2743.91552	0.97777
2741.85861	0.97772
2739.80170	0.97760
2737.74479	0.97728
2735.68788	0.97718
2733.63098	0.97756
2731.57407	0.97796
2729.51716	0.97789
2727.46025	0.97756
2725.40334	0.97751
2723.34643	0.97781
2721.28953	0.97800
2719.23262	0.97779
2717.17571	0.97739
2715.11880	0.97717
2713.06189	0.97716
2711.00499	0.97725
2708.94808	0.97741
2706.89117	0.97771
2704.83426	0.97808
2702.77735	0.97807
2700.72044	0.97764
2698.66354	0.97744
2696.60663	0.97784
2694.54972	0.97834
2692.49281	0.97860
2690.43590	0.97881
2688.37900	0.97881
2686.32209	0.97838
2684.26518	0.97806
2682.20827	0.97816
2680.15136	0.97839
2678.09445	0.97845
2676.03755	0.97839
2673.98064	0.97841
2671.92373	0.97846
2669.86682	0.97839
2667.80991	0.97816
2665.75301	0.97799
2663.69610	0.97817
2661.63919	0.97830
2659.58228	0.97798
2657.52537	0.97756
2655.46846	0.97721
2653.41156	0.97711
2651.35465	0.97743
2649.29774	0.97769
2647.24083	0.97793
2645.18392	0.97848
2643.12702	0.97872
2641.07011	0.97852
2639.01320	0.97846
2636.95629	0.97831
2634.89938	0.97801
2632.84247	0.97790
2630.78557	0.97758
2628.72866	0.97713
2626.67175	0.97731
2624.61484	0.97791
2622.55793	0.97810
2620.50103	0.97792
2618.44412	0.97788
2616.38721	0.97817
2614.33030	0.97866
2612.27339	0.97912
2610.21648	0.97953
2608.15958	0.97959
2606.10267	0.97928
2604.04576	0.97894
2601.98885	0.97866
2599.93194	0.97884
2597.87504	0.97946
2595.81813	0.97959
2593.76122	0.97942
2591.70431	0.97982
2589.64740	0.98036
2587.59049	0.98043
2585.53359	0.98001
2583.47668	0.97968
2581.41977	0.97973
2579.36286	0.97985
2577.30595	0.98007
2575.24905	0.97993
2573.19214	0.97942
2571.13523	0.97935
2569.07832	0.97952
2567.02141	0.97918
2564.96450	0.97872
2562.90760	0.97903
2560.85069	0.97985
2558.79378	0.98032
2556.73687	0.97991
2554.67996	0.97910
2552.62306	0.97906
2550.56615	0.97990
2548.50924	0.98051
2546.45233	0.98036
2544.39542	0.98031
2542.33851	0.98095
2540.28161	0.98143
2538.22470	0.98134
2536.16779	0.98119
2534.11088	0.98078
2532.05397	0.98039
2529.99707	0.98070
2527.94016	0.98123
2525.88325	0.98117
2523.82634	0.98057
2521.76943	0.98057
2519.71252	0.98134
2517.65562	0.98167
2515.59871	0.98142
2513.54180	0.98101
2511.48489	0.98050
2509.42798	0.97999
2507.37108	0.97969
2505.31417	0.97997
2503.25726	0.98091
2501.20035	0.98197
2499.14344	0.98248
2497.08653	0.98205
2495.02963	0.98105
2492.97272	0.98062
2490.91581	0.98099
2488.85890	0.98139
2486.80199	0.98134
2484.74509	0.98084
2482.68818	0.98017
2480.63127	0.97988
2478.57436	0.97990
2476.51745	0.97991
2474.46054	0.97999
2472.40364	0.98002
2470.34673	0.98001
2468.28982	0.98028
2466.23291	0.98081
2464.17600	0.98105
2462.11910	0.98072
2460.06219	0.98021
2458.00528	0.97976
2455.94837	0.97955
2453.89146	0.97968
2451.83455	0.97963
2449.77765	0.97931
2447.72074	0.97953
2445.66383	0.98033
2443.60692	0.98082
2441.55001	0.98077
2439.49311	0.98090
2437.43620	0.98120
2435.37929	0.98091
2433.32238	0.98031
2431.26547	0.98019
2429.20856	0.98032
2427.15166	0.98019
2425.09475	0.98016
2423.03784	0.98046
2420.98093	0.98066
2418.92402	0.98088
2416.86712	0.98118
2414.81021	0.98115
2412.75330	0.98082
2410.69639	0.98057
2408.63948	0.98060
2406.58257	0.98076
2404.52567	0.98081
2402.46876	0.98080
2400.41185	0.98087
2398.35494	0.98096
2396.29803	0.98074
2394.24113	0.98025
2392.18422	0.98015
2390.12731	0.98044
2388.07040	0.98075
2386.01349	0.98101
2383.95658	0.98101
2381.89968	0.98072
2379.84277	0.98038
2377.78586	0.98016
2375.72895	0.98052
2373.67204	0.98151
2371.61514	0.98215
2369.55823	0.98240
2367.50132	0.98232
2365.44441	0.98092
2363.38750	0.97913
2361.33059	0.97811
2359.27369	0.97799
2357.21678	0.97880
2355.15987	0.97928
2353.10296	0.97930
2351.04605	0.97990
2348.98915	0.98043
2346.93224	0.98035
2344.87533	0.98027
2342.81842	0.98051
2340.76151	0.98054
2338.70460	0.98023
2336.64770	0.98008
2334.59079	0.98037
2332.53388	0.98089
2330.47697	0.98128
2328.42006	0.98109
2326.36316	0.97981
2324.30625	0.97854
2322.24934	0.97882
2320.19243	0.97967
2318.13552	0.97934
2316.07861	0.97898
2314.02171	0.97983
2311.96480	0.98057
2309.90789	0.98050
2307.85098	0.98057
2305.79407	0.98071
2303.73717	0.98038
2301.68026	0.98007
2299.62335	0.98045
2297.56644	0.98101
2295.50953	0.98091
2293.45262	0.98080
2291.39572	0.98120
2289.33881	0.98129
2287.28190	0.98074
2285.22499	0.98018
2283.16808	0.97995
2281.11117	0.97954
2279.05427	0.97918
2276.99736	0.97980
2274.94045	0.98079
2272.88354	0.98131
2270.82663	0.98148
2268.76973	0.98154
2266.71282	0.98181
2264.65591	0.98180
2262.59900	0.98088
2260.54209	0.98005
2258.48518	0.98007
2256.42828	0.98003
2254.37137	0.97946
2252.31446	0.97957
2250.25755	0.98096
2248.20064	0.98211
2246.14374	0.98190
2244.08683	0.98114
2242.02992	0.98086
2239.97301	0.98063
2237.91610	0.98038
2235.85919	0.98055
2233.80229	0.98048
2231.74538	0.98018
2229.68847	0.98075
2227.63156	0.98253
2225.57465	0.98421
2223.51775	0.98428
2221.46084	0.98359
2219.40393	0.98356
2217.34702	0.98365
2215.29011	0.98326
2213.23320	0.98303
2211.17630	0.98366
2209.11939	0.98444
2207.06248	0.98368
2205.00557	0.98201
2202.94866	0.98179
2200.89176	0.98191
2198.83485	0.98016
2196.77794	0.97893
2194.72103	0.98013
2192.66412	0.98149
2190.60721	0.98171
2188.55031	0.98187
2186.49340	0.98263
2184.43649	0.98306
2182.37958	0.98227
2180.32267	0.98137
2178.26577	0.98208
2176.20886	0.98280
2174.15195	0.98108
2172.09504	0.97953
2170.03813	0.98084
2167.98122	0.98402
2165.92432	0.98682
2163.86741	0.98621
2161.81050	0.98395
2159.75359	0.98517
2157.69668	0.98818
2155.63978	0.98794
2153.58287	0.98556
2151.52596	0.98399
2149.46905	0.98318
2147.41214	0.98415
2145.35523	0.98615
2143.29833	0.98589
2141.24142	0.98457
2139.18451	0.98374
2137.12760	0.98241
2135.07069	0.98128
2133.01379	0.98143
2130.95688	0.98225
2128.89997	0.98261
2126.84306	0.98223
2124.78615	0.98150
2122.72924	0.98057
2120.67234	0.97991
2118.61543	0.97978
2116.55852	0.98024
2114.50161	0.98122
2112.44470	0.98173
2110.38780	0.98144
2108.33089	0.98142
2106.27398	0.98230
2104.21707	0.98292
2102.16016	0.98211
2100.10325	0.98107
2098.04635	0.98118
2095.98944	0.98191
2093.93253	0.98215
2091.87562	0.98158
2089.81871	0.98043
2087.76181	0.97955
2085.70490	0.97969
2083.64799	0.98025
2081.59108	0.98114
2079.53417	0.98263
2077.47726	0.98348
2075.42036	0.98312
2073.36345	0.98308
2071.30654	0.98387
2069.24963	0.98399
2067.19272	0.98342
2065.13582	0.98369
2063.07891	0.98492
2061.02200	0.98574
2058.96509	0.98529
2056.90818	0.98450
2054.85127	0.98435
2052.79437	0.98385
2050.73746	0.98225
2048.68055	0.98116
2046.62364	0.98230
2044.56673	0.98405
2042.50983	0.98443
2040.45292	0.98436
2038.39601	0.98532
2036.33910	0.98638
2034.28219	0.98583
2032.22528	0.98514
2030.16838	0.98574
2028.11147	0.98571
2026.05456	0.98506
2023.99765	0.98532
2021.94074	0.98570
2019.88384	0.98611
2017.82693	0.98618
2015.77002	0.98373
2013.71311	0.97985
2011.65620	0.97852
2009.59929	0.98071
2007.54239	0.98443
2005.48548	0.98717
2003.42857	0.98705
2001.37166	0.98526
1999.31475	0.98388
1997.25785	0.98293
1995.20094	0.98249
1993.14403	0.98297
1991.08712	0.98400
1989.03021	0.98469
1986.97330	0.98418
1984.91640	0.98371
1982.85949	0.98451
1980.80258	0.98503
1978.74567	0.98581
1976.68876	0.98744
1974.63186	0.98730
1972.57495	0.98603
1970.51804	0.98614
1968.46113	0.98654
1966.40422	0.98570
1964.34731	0.98542
1962.29041	0.98702
1960.23350	0.98863
1958.17659	0.98810
1956.11968	0.98699
1954.06277	0.98724
1952.00587	0.98766
1949.94896	0.98731
1947.89205	0.98705
1945.83514	0.98678
1943.77823	0.98625
1941.72132	0.98675
1939.66442	0.98778
1937.60751	0.98758
1935.55060	0.98664
1933.49369	0.98587
1931.43678	0.98523
1929.37988	0.98474
1927.32297	0.98475
1925.26606	0.98520
1923.20915	0.98525
1921.15224	0.98487
1919.09533	0.98436
1917.03843	0.98351
1914.98152	0.98319
1912.92461	0.98377
1910.86770	0.98428
1908.81079	0.98406
1906.75389	0.98378
1904.69698	0.98397
1902.64007	0.98455
1900.58316	0.98519
1898.52625	0.98561
1896.46934	0.98596
1894.41244	0.98636
1892.35553	0.98673
1890.29862	0.98631
1888.24171	0.98556
1886.18480	0.98581
1884.12790	0.98646
1882.07099	0.98634
1880.01408	0.98540
1877.95717	0.98482
1875.90026	0.98524
1873.84335	0.98567
1871.78645	0.98575
1869.72954	0.98600
1867.67263	0.98677
1865.61572	0.98733
1863.55881	0.98669
1861.50191	0.98560
1859.44500	0.98506
1857.38809	0.98504
1855.33118	0.98528
1853.27427	0.98574
1851.21736	0.98643
1849.16046	0.98727
1847.10355	0.98761
1845.04664	0.98721
1842.98973	0.98667
1840.93282	0.98607
1838.87592	0.98577
1836.81901	0.98605
1834.76210	0.98648
1832.70519	0.98657
1830.64828	0.98656
1828.59137	0.98671
1826.53447	0.98647
1824.47756	0.98569
1822.42065	0.98527
1820.36374	0.98573
1818.30683	0.98631
1816.24993	0.98614
1814.19302	0.98552
1812.13611	0.98522
1810.07920	0.98503
1808.02229	0.98460
1805.96538	0.98393
1803.90848	0.98330
1801.85157	0.98307
1799.79466	0.98310
1797.73775	0.98303
1795.68084	0.98284
1793.62394	0.98234
1791.56703	0.98134
1789.51012	0.98043
1787.45321	0.97976
1785.39630	0.97910
1783.33939	0.97787
1781.28249	0.97585
1779.22558	0.97336
1777.16867	0.97060
1775.11176	0.96728
1773.05485	0.96230
1770.99795	0.95483
1768.94104	0.94580
1766.88413	0.93518
1764.82722	0.92356
1762.77031	0.90960
1760.71340	0.89294
1758.65650	0.87776
1756.59959	0.86334
1754.54268	0.85075
1752.48577	0.84032
1750.42886	0.82888
1748.37196	0.81751
1746.31505	0.80848
1744.25814	0.80154
1742.20123	0.79670
1740.14432	0.79369
1738.08741	0.79302
1736.03051	0.79534
1733.97360	0.80069
1731.91669	0.80794
1729.85978	0.81601
1727.80287	0.82558
1725.74597	0.83593
1723.68906	0.84671
1721.63215	0.85709
1719.57524	0.86721
1717.51833	0.87896
1715.46142	0.89082
1713.40452	0.90029
1711.34761	0.90834
1709.29070	0.91576
1707.23379	0.92286
1705.17688	0.92905
1703.11998	0.93339
1701.06307	0.93732
1699.00616	0.94186
1696.94925	0.94586
1694.89234	0.94917
1692.83543	0.95165
1690.77853	0.95375
1688.72162	0.95565
1686.66471	0.95716
1684.60780	0.95876
1682.55089	0.96009
1680.49399	0.96100
1678.43708	0.96193
1676.38017	0.96275
1674.32326	0.96354
1672.26635	0.96458
1670.20944	0.96558
1668.15254	0.96604
1666.09563	0.96632
1664.03872	0.96686
1661.98181	0.96747
1659.92490	0.96777
1657.86800	0.96790
1655.81109	0.96787
1653.75418	0.96777
1651.69727	0.96808
1649.64036	0.96829
1647.58345	0.96810
1645.52655	0.96815
1643.46964	0.96861
1641.41273	0.96894
1639.35582	0.96920
1637.29891	0.96969
1635.24201	0.97034
1633.18510	0.97075
1631.12819	0.97100
1629.07128	0.97113
1627.01437	0.97136
1624.95746	0.97195
1622.90056	0.97264
1620.84365	0.97315
1618.78674	0.97348
1616.72983	0.97369
1614.67292	0.97410
1612.61602	0.97468
1610.55911	0.97505
1608.50220	0.97529
1606.44529	0.97557
1604.38838	0.97558
1602.33147	0.97539
1600.27457	0.97549
1598.21766	0.97576
1596.16075	0.97608
1594.10384	0.97653
1592.04693	0.97690
1589.99003	0.97718
1587.93312	0.97753
1585.87621	0.97786
1583.81930	0.97792
1581.76239	0.97778
1579.70548	0.97760
1577.64858	0.97755
1575.59167	0.97780
1573.53476	0.97812
1571.47785	0.97828
1569.42094	0.97838
1567.36404	0.97841
1565.30713	0.97842
1563.25022	0.97842
1561.19331	0.97846
1559.13640	0.97887
1557.07949	0.97937
1555.02259	0.97940
1552.96568	0.97925
1550.90877	0.97904
1548.85186	0.97909
1546.79495	0.97946
1544.73805	0.97964
1542.68114	0.97934
1540.62423	0.97906
1538.56732	0.97913
1536.51041	0.97934
1534.45350	0.97957
1532.39660	0.97945
1530.33969	0.97906
1528.28278	0.97910
1526.22587	0.97969
1524.16896	0.98035
1522.11206	0.98053
1520.05515	0.98033
1517.99824	0.98029
1515.94133	0.98023
1513.88442	0.98004
1511.82751	0.97996
1509.77061	0.97998
1507.71370	0.97991
1505.65679	0.97981
1503.59988	0.97995
1501.54297	0.98017
1499.48607	0.98018
1497.42916	0.98012
1495.37225	0.98029
1493.31534	0.98041
1491.25843	0.98037
1489.20152	0.98011
1487.14462	0.97972
1485.08771	0.97949
1483.03080	0.97925
1480.97389	0.97892
1478.91698	0.97859
1476.86008	0.97817
1474.80317	0.97755
1472.74626	0.97662
1470.68935	0.97557
1468.63244	0.97443
1466.57553	0.97285
1464.51863	0.97081
1462.46172	0.96896
1460.40481	0.96754
1458.34790	0.96611
1456.29099	0.96463
1454.23409	0.96366
1452.17718	0.96277
1450.12027	0.96156
1448.06336	0.95986
1446.00645	0.95791
1443.94954	0.95628
1441.89264	0.95483
1439.83573	0.95351
1437.77882	0.95205
1435.72191	0.95033
1433.66500	0.94937
1431.60810	0.94919
1429.55119	0.94962
1427.49428	0.95074
1425.43737	0.95207
1423.38046	0.95327
1421.32355	0.95435
1419.26665	0.95538
1417.20974	0.95656
1415.15283	0.95778
1413.09592	0.95871
1411.03901	0.95930
1408.98211	0.95984
1406.92520	0.96043
1404.86829	0.96073
1402.81138	0.96066
1400.75447	0.96049
1398.69756	0.95989
1396.64066	0.95821
1394.58375	0.95509
1392.52684	0.95102
1390.46993	0.94654
1388.41302	0.94074
1386.35612	0.93316
1384.29921	0.92536
1382.24230	0.91771
1380.18539	0.90980
1378.12848	0.90189
1376.07157	0.89420
1374.01467	0.88666
1371.95776	0.88041
1369.90085	0.87670
1367.84394	0.87592
1365.78703	0.87870
1363.73013	0.88571
1361.67322	0.89690
1359.61631	0.90972
1357.55940	0.92211
1355.50249	0.93316
1353.44558	0.94186
1351.38868	0.94796
1349.33177	0.95213
1347.27486	0.95502
1345.21795	0.95697
1343.16104	0.95831
1341.10414	0.95924
1339.04723	0.95989
1336.99032	0.96040
1334.93341	0.96076
1332.87650	0.96090
1330.81959	0.96080
1328.76269	0.96050
1326.70578	0.95997
1324.64887	0.95937
1322.59196	0.95910
1320.53505	0.95908
1318.47815	0.95906
1316.42124	0.95920
1314.36433	0.95949
1312.30742	0.95969
1310.25051	0.95984
1308.19360	0.96009
1306.13670	0.96014
1304.07979	0.95990
1302.02288	0.95964
1299.96597	0.95922
1297.90906	0.95832
1295.85216	0.95711
1293.79525	0.95589
1291.73834	0.95444
1289.68143	0.95265
1287.62452	0.95053
1285.56761	0.94798
1283.51071	0.94514
1281.45380	0.94194
1279.39689	0.93845
1277.33998	0.93460
1275.28307	0.92989
1273.22617	0.92445
1271.16926	0.91875
1269.11235	0.91263
1267.05544	0.90606
1264.99853	0.89915
1262.94162	0.89159
1260.88472	0.88317
1258.82781	0.87413
1256.77090	0.86455
1254.71399	0.85437
1252.65708	0.84376
1250.60018	0.83287
1248.54327	0.82157
1246.48636	0.80983
1244.42945	0.79788
1242.37254	0.78597
1240.31563	0.77423
1238.25873	0.76266
1236.20182	0.75138
1234.14491	0.74080
1232.08800	0.73123
1230.03109	0.72281
1227.97419	0.71603
1225.91728	0.71129
1223.86037	0.70835
1221.80346	0.70735
1219.74655	0.70857
1217.68964	0.71192
1215.63274	0.71772
1213.57583	0.72645
1211.51892	0.73797
1209.46201	0.75226
1207.40510	0.76924
1205.34820	0.78809
1203.29129	0.80777
1201.23438	0.82730
1199.17747	0.84576
1197.12056	0.86223
1195.06365	0.87609
1193.00675	0.88754
1190.94984	0.89661
1188.89293	0.90279
1186.83602	0.90637
1184.77911	0.90831
1182.72221	0.90884
1180.66530	0.90785
1178.60839	0.90562
1176.55148	0.90283
1174.49457	0.90009
1172.43766	0.89770
1170.38076	0.89567
1168.32385	0.89401
1166.26694	0.89297
1164.21003	0.89278
1162.15312	0.89344
1160.09622	0.89475
1158.03931	0.89663
1155.98240	0.89923
1153.92549	0.90225
1151.86858	0.90513
1149.81167	0.90758
1147.75477	0.90942
1145.69786	0.91058
1143.64095	0.91101
1141.58404	0.91054
1139.52713	0.90908
1137.47023	0.90680
1135.41332	0.90406
1133.35641	0.90102
1131.29950	0.89774
1129.24259	0.89467
1127.18568	0.89217
1125.12878	0.89003
1123.07187	0.88813
1121.01496	0.88694
1118.95805	0.88667
1116.90114	0.88671
1114.84424	0.88651
1112.78733	0.88609
1110.73042	0.88558
1108.67351	0.88466
1106.61660	0.88331
1104.55969	0.88177
1102.50279	0.87960
1100.44588	0.87650
1098.38897	0.87282
1096.33206	0.86908
1094.27515	0.86492
1092.21825	0.85970
1090.16134	0.85379
1088.10443	0.84764
1086.04752	0.84088
1083.99061	0.83344
1081.93370	0.82614
1079.87680	0.81955
1077.81989	0.81328
1075.76298	0.80704
1073.70607	0.80107
1071.64916	0.79544
1069.59226	0.78990
1067.53535	0.78421
1065.47844	0.77847
1063.42153	0.77287
1061.36462	0.76742
1059.30771	0.76176
1057.25081	0.75567
1055.19390	0.74927
1053.13699	0.74257
1051.08008	0.73575
1049.02317	0.72946
1046.96627	0.72403
1044.90936	0.71900
1042.85245	0.71406
1040.79554	0.70935
1038.73863	0.70496
1036.68172	0.70100
1034.62482	0.69779
1032.56791	0.69639
1030.51100	0.69780
1028.45409	0.70202
1026.39718	0.70861
1024.34028	0.71699
1022.28337	0.72668
1020.22646	0.73713
1018.16955	0.74775
1016.11264	0.75852
1014.05573	0.76930
1011.99883	0.77941
1009.94192	0.78870
1007.88501	0.79758
1005.82810	0.80628
1003.77119	0.81476
1001.71429	0.82247
999.65738	0.82902
997.60047	0.83516
995.54356	0.84124
993.48665	0.84640
991.42974	0.85039
989.37284	0.85391
987.31593	0.85728
985.25902	0.86035
983.20211	0.86331
981.14520	0.86652
979.08830	0.87000
977.03139	0.87363
974.97448	0.87768
972.91757	0.88245
970.86066	0.88755
968.80375	0.89209
966.74685	0.89574
964.68994	0.89899
962.63303	0.90206
960.57612	0.90459
958.51921	0.90634
956.46231	0.90752
954.40540	0.90866
952.34849	0.91000
950.29158	0.91135
948.23467	0.91269
946.17776	0.91401
944.12086	0.91536
942.06395	0.91699
940.00704	0.91861
937.95013	0.91975
935.89322	0.92025
933.83632	0.92021
931.77941	0.91984
929.72250	0.91910
927.66559	0.91791
925.60868	0.91667
923.55177	0.91552
921.49487	0.91403
919.43796	0.91248
917.38105	0.91136
915.32414	0.91012
913.26723	0.90839
911.21033	0.90660
909.15342	0.90530
907.09651	0.90434
905.03960	0.90333
902.98269	0.90250
900.92578	0.90228
898.86888	0.90288
896.81197	0.90431
894.75506	0.90646
892.69815	0.90917
890.64124	0.91175
888.58434	0.91384
886.52743	0.91600
884.47052	0.91798
882.41361	0.91960
880.35670	0.92166
878.29979	0.92404
876.24289	0.92608
874.18598	0.92825
872.12907	0.93095
870.07216	0.93389
868.01525	0.93692
865.95835	0.93970
863.90144	0.94179
861.84453	0.94340
859.78762	0.94495
857.73071	0.94626
855.67380	0.94715
853.61690	0.94768
851.55999	0.94779
849.50308	0.94738
847.44617	0.94640
845.38926	0.94522
843.33236	0.94441
841.27545	0.94408
839.21854	0.94418
837.16163	0.94497
835.10472	0.94639
833.04781	0.94763
830.99091	0.94817
828.93400	0.94889
826.87709	0.95071
824.82018	0.95306
822.76327	0.95486
820.70637	0.95570
818.64946	0.95607
816.59255	0.95664
814.53564	0.95733
812.47873	0.95761
810.42182	0.95755
808.36492	0.95797
806.30801	0.95919
804.25110	0.96014
802.19419	0.96049
800.13728	0.96073
798.08038	0.96095
796.02347	0.96130
793.96656	0.96183
791.90965	0.96235
789.85274	0.96278
787.79583	0.96283
785.73893	0.96234
783.68202	0.96209
781.62511	0.96246
779.56820	0.96284
777.51129	0.96315
775.45439	0.96370
773.39748	0.96405
771.34057	0.96380
769.28366	0.96348
767.22675	0.96340
765.16984	0.96362
763.11294	0.96420
761.05603	0.96460
758.99912	0.96461
756.94221	0.96470
754.88530	0.96496
752.82839	0.96526
750.77149	0.96560
748.71458	0.96576
746.65767	0.96592
744.60076	0.96636
742.54385	0.96658
740.48695	0.96636
738.43004	0.96636
736.37313	0.96637
734.31622	0.96583
732.25931	0.96508
730.20240	0.96435
728.14550	0.96345
726.08859	0.96232
724.03168	0.96150
721.97477	0.96120
719.91786	0.96102
717.86096	0.96042
715.80405	0.95960
713.74714	0.95941
711.69023	0.95983
709.63332	0.95986
707.57641	0.95907
705.51951	0.95835
703.46260	0.95844
701.40569	0.95856
699.34878	0.95752
697.29187	0.95594
695.23497	0.95454
693.17806	0.95311
691.12115	0.95230
689.06424	0.95236
687.00733	0.95231
684.95042	0.95205
682.89352	0.95219
680.83661	0.95226
678.77970	0.95202
676.72279	0.95204
674.66588	0.95247
672.60898	0.95335
670.55207	0.95463
668.49516	0.95516
666.43825	0.95394
664.38134	0.95300
662.32443	0.95243
660.26753	0.95143
658.21062	0.95013
656.15371	0.94896
654.09680	0.94817
652.03989	0.94775
649.98299	0.94717
647.92608	0.94603
645.86917	0.94439
643.81226	0.94247
641.75535	0.94064
639.69844	0.93918
637.64154	0.93781
635.58463	0.93595
633.52772	0.93427
631.47081	0.93326
629.41390	0.93253
627.35700	0.93184
625.30009	0.93124
623.24318	0.93040
621.18627	0.92837
619.12936	0.92537
617.07245	0.92260
615.01555	0.92014
612.95864	0.91640
610.90173	0.91063
608.84482	0.90371
606.78791	0.89720
604.73101	0.89284
602.67410	0.89137
600.61719	0.89300
598.56028	0.89802
596.50337	0.90441
594.44646	0.90963
592.38956	0.91434
590.33265	0.91953
588.27574	0.92424
586.21883	0.92698
584.16192	0.92820
582.10502	0.93012
580.04811	0.93283
577.99120	0.93488
575.93429	0.93495
573.87738	0.93283
571.82047	0.93053
569.76357	0.92955
567.70666	0.92980
565.64975	0.93039
563.59284	0.93027
561.53593	0.92890
559.47903	0.92660
557.42212	0.92477
555.36521	0.92448
553.30830	0.92593
551.25139	0.92882
549.19448	0.93162
547.13758	0.93274
545.08067	0.93292
543.02376	0.93393
540.96685	0.93462
538.90994	0.93398
536.85304	0.93379
534.79613	0.93430
532.73922	0.93395
530.68231	0.93318
528.62540	0.93386
526.56849	0.93496
524.51159	0.93428
522.45468	0.93299
520.39777	0.93214
518.34086	0.93103
516.28395	0.92962
514.22705	0.92844
512.17014	0.92814
510.11323	0.92885
508.05632	0.92871
505.99941	0.92668
503.94250	0.92472
501.88560	0.92397
499.82869	0.92343
497.77178	0.92290
495.71487	0.92290
493.65796	0.92219
491.60106	0.92094
489.54415	0.92119
487.48724	0.92164
485.43033	0.92049
483.37342	0.91936
481.31651	0.91958
479.25961	0.92088
477.20270	0.92213
475.14579	0.92152
473.08888	0.92012
471.03197	0.91961
468.97507	0.91819
466.91816	0.91544
464.86125	0.91302
462.80434	0.91109
460.74743	0.90984
458.69052	0.90864
456.63362	0.90718
454.57671	0.90799
452.51980	0.91020
450.46289	0.91047
448.40598	0.90891
446.34908	0.90946
444.29217	0.91276
442.23526	0.91381
440.17835	0.91219
438.12144	0.91259
436.06453	0.91464
434.00763	0.91556
431.95072	0.91682
429.89381	0.91838
427.83690	0.91670
425.77999	0.91332
423.72309	0.91268
421.66618	0.91426
419.60927	0.91820
417.55236	0.92336
415.49545	0.92508
413.43854	0.92621
411.38164	0.92841
409.32473	0.92707
407.26782	0.91951
405.21091	0.91400
403.15400	0.91423
401.09710	0.91258
399.04019	0.90590
