3996.57260	0.99293
3994.51569	0.99405
3992.45878	0.99475
3990.40188	0.99447
3988.34497	0.99418
3986.28806	0.99434
3984.23115	0.99427
3982.17424	0.99375
3980.11733	0.99343
3978.06043	0.99343
3976.00352	0.99320
3973.94661	0.99261
3971.88970	0.99206
3969.83279	0.99208
3967.77589	0.99274
3965.71898	0.99337
3963.66207	0.99345
3961.60516	0.99344
3959.54825	0.99366
3957.49134	0.99386
3955.43444	0.99401
3953.37753	0.99411
3951.32062	0.99399
3949.26371	0.99399
3947.20680	0.99447
3945.14990	0.99504
3943.09299	0.99504
3941.03608	0.99455
3938.97917	0.99406
3936.92226	0.99375
3934.86535	0.99368
3932.80845	0.99356
3930.75154	0.99338
3928.69463	0.99339
3926.63772	0.99348
3924.58081	0.99349
3922.52391	0.99369
3920.46700	0.99415
3918.41009	0.99409
3916.35318	0.99359
3914.29627	0.99334
3912.23936	0.99321
3910.18246	0.99333
3908.12555	0.99398
3906.06864	0.99427
3904.01173	0.99324
3901.95482	0.99261
3899.89792	0.99372
3897.84101	0.99475
3895.78410	0.99493
3893.72719	0.99511
3891.67028	0.99526
3889.61337	0.99509
3887.55647	0.99487
3885.49956	0.99464
3883.44265	0.99460
3881.38574	0.99456
3879.32883	0.99420
3877.27193	0.99429
3875.21502	0.99474
3873.15811	0.99449
3871.10120	0.99330
3869.04429	0.99257
3866.98738	0.99356
3864.93048	0.99467
3862.87357	0.99444
3860.81666	0.99396
3858.75975	0.99398
3856.70284	0.99422
3854.64594	0.99456
3852.58903	0.99459
3850.53212	0.99433
3848.47521	0.99404
3846.41830	0.99369
3844.36139	0.99362
3842.30449	0.99379
3840.24758	0.99382
3838.19067	0.99395
3836.13376	0.99416
3834.07685	0.99430
3832.01995	0.99449
3829.96304	0.99456
3827.90613	0.99409
3825.84922	0.99328
3823.79231	0.99283
3821.73540	0.99261
3819.67850	0.99277
3817.62159	0.99345
3815.56468	0.99380
3813.50777	0.99356
3811.45086	0.99355
3809.39396	0.99421
3807.33705	0.99454
3805.28014	0.99373
3803.22323	0.99321
3801.16632	0.99357
3799.10941	0.99434
3797.05251	0.99478
3794.99560	0.99439
3792.93869	0.99386
3790.88178	0.99362
3788.82487	0.99386
3786.76796	0.99458
3784.71106	0.99467
3782.65415	0.99427
3780.59724	0.99408
3778.54033	0.99344
3776.48342	0.99303
3774.42652	0.99352
3772.36961	0.99397
3770.31270	0.99319
3768.25579	0.99198
3766.19888	0.99253
3764.14197	0.99367
3762.08507	0.99339
3760.02816	0.99274
3757.97125	0.99307
3755.91434	0.99358
3753.85743	0.99352
3751.80053	0.99356
3749.74362	0.99408
3747.68671	0.99385
3745.62980	0.99287
3743.57289	0.99254
3741.51598	0.99320
3739.45908	0.99394
3737.40217	0.99469
3735.34526	0.99502
3733.28835	0.99445
3731.23144	0.99385
3729.17454	0.99378
3727.11763	0.99417
3725.06072	0.99427
3723.00381	0.99358
3720.94690	0.99309
3718.88999	0.99297
3716.83309	0.99264
3714.77618	0.99248
3712.71927	0.99316
3710.66236	0.99445
3708.60545	0.99471
3706.54855	0.99407
3704.49164	0.99352
3702.43473	0.99276
3700.37782	0.99226
3698.32091	0.99282
3696.26400	0.99358
3694.20710	0.99418
3692.15019	0.99432
3690.09328	0.99364
3688.03637	0.99294
3685.97946	0.99283
3683.92256	0.99349
3681.86565	0.99454
3679.80874	0.99485
3677.75183	0.99469
3675.69492	0.99443
3673.63801	0.99366
3671.58111	0.99331
3669.52420	0.99360
3667.46729	0.99443
3665.41038	0.99486
3663.35347	0.99419
3661.29657	0.99325
3659.23966	0.99308
3657.18275	0.99354
3655.12584	0.99376
3653.06893	0.99368
3651.01202	0.99354
3648.95512	0.99281
3646.89821	0.99184
3644.84130	0.99141
3642.78439	0.99101
3640.72748	0.99050
3638.67058	0.99058
3636.61367	0.99108
3634.55676	0.99113
3632.49985	0.99092
3630.44294	0.99060
3628.38603	0.99020
3626.32913	0.99074
3624.27222	0.99140
3622.21531	0.99148
3620.15840	0.99135
3618.10149	0.99078
3616.04459	0.98982
3613.98768	0.98881
3611.93077	0.98846
3609.87386	0.98929
3607.81695	0.98926
3605.76004	0.98752
3603.70314	0.98635
3601.64623	0.98671
3599.58932	0.98776
3597.53241	0.98836
3595.47550	0.98823
3593.41860	0.98744
3591.36169	0.98631
3589.30478	0.98533
3587.24787	0.98465
3585.19096	0.98461
3583.13405	0.98502
3581.07715	0.98520
3579.02024	0.98489
3576.96333	0.98426
3574.90642	0.98407
3572.84951	0.98441
3570.79261	0.98444
3568.73570	0.98403
3566.67879	0.98318
3564.62188	0.98236
3562.56497	0.98195
3560.50806	0.98144
3558.45116	0.98129
3556.39425	0.98165
3554.33734	0.98131
3552.28043	0.98038
3550.22352	0.98004
3548.16662	0.98019
3546.10971	0.98028
3544.05280	0.98028
3541.99589	0.98008
3539.93898	0.97945
3537.88207	0.97871
3535.82517	0.97826
3533.76826	0.97790
3531.71135	0.97732
3529.65444	0.97677
3527.59753	0.97657
3525.54063	0.97660
3523.48372	0.97638
3521.42681	0.97587
3519.36990	0.97547
3517.31299	0.97508
3515.25608	0.97485
3513.19918	0.97474
3511.14227	0.97436
3509.08536	0.97379
3507.02845	0.97339
3504.97154	0.97352
3502.91464	0.97407
3500.85773	0.97416
3498.80082	0.97339
3496.74391	0.97262
3494.68700	0.97256
3492.63009	0.97282
3490.57319	0.97290
3488.51628	0.97258
3486.45937	0.97191
3484.40246	0.97143
3482.34555	0.97148
3480.28865	0.97141
3478.23174	0.97110
3476.17483	0.97102
3474.11792	0.97073
3472.06101	0.97013
3470.00410	0.96983
3467.94720	0.96940
3465.89029	0.96860
3463.83338	0.96799
3461.77647	0.96793
3459.71956	0.96853
3457.66266	0.96939
3455.60575	0.96989
3453.54884	0.96965
3451.49193	0.96895
3449.43502	0.96825
3447.37811	0.96779
3445.32121	0.96794
3443.26430	0.96837
3441.20739	0.96830
3439.15048	0.96779
3437.09357	0.96748
3435.03667	0.96746
3432.97976	0.96755
3430.92285	0.96793
3428.86594	0.96850
3426.80903	0.96872
3424.75212	0.96857
3422.69522	0.96842
3420.63831	0.96828
3418.58140	0.96773
3416.52449	0.96705
3414.46758	0.96706
3412.41068	0.96753
3410.35377	0.96786
3408.29686	0.96810
3406.23995	0.96835
3404.18304	0.96848
3402.12613	0.96819
3400.06923	0.96788
3398.01232	0.96816
3395.95541	0.96844
3393.89850	0.96853
3391.84159	0.96887
3389.78469	0.96944
3387.72778	0.96976
3385.67087	0.96931
3383.61396	0.96875
3381.55705	0.96865
3379.50014	0.96885
3377.44324	0.96915
3375.38633	0.96933
3373.32942	0.96970
3371.27251	0.97020
3369.21560	0.97025
3367.15870	0.97020
3365.10179	0.97026
3363.04488	0.97003
3360.98797	0.96965
3358.93106	0.96919
3356.87415	0.96910
3354.81725	0.96985
3352.76034	0.97085
3350.70343	0.97131
3348.64652	0.97103
3346.58961	0.97091
3344.53271	0.97146
3342.47580	0.97188
3340.41889	0.97186
3338.36198	0.97187
3336.30507	0.97192
3334.24816	0.97176
3332.19126	0.97185
3330.13435	0.97259
3328.07744	0.97296
3326.02053	0.97226
3323.96362	0.97143
3321.90672	0.97126
3319.84981	0.97189
3317.79290	0.97288
3315.73599	0.97362
3313.67908	0.97395
3311.62217	0.97375
3309.56527	0.97320
3307.50836	0.97317
3305.45145	0.97369
3303.39454	0.97393
3301.33763	0.97384
3299.28073	0.97390
3297.22382	0.97428
3295.16691	0.97451
3293.11000	0.97447
3291.05309	0.97454
3288.99618	0.97457
3286.93928	0.97418
3284.88237	0.97385
3282.82546	0.97431
3280.76855	0.97500
3278.71164	0.97515
3276.65474	0.97497
3274.59783	0.97507
3272.54092	0.97546
3270.48401	0.97550
3268.42710	0.97557
3266.37019	0.97592
3264.31329	0.97594
3262.25638	0.97567
3260.19947	0.97567
3258.14256	0.97637
3256.08565	0.97711
3254.02875	0.97722
3251.97184	0.97714
3249.91493	0.97706
3247.85802	0.97699
3245.80111	0.97680
3243.74420	0.97665
3241.68730	0.97706
3239.63039	0.97806
3237.57348	0.97890
3235.51657	0.97882
3233.45966	0.97826
3231.40276	0.97823
3229.34585	0.97869
3227.28894	0.97876
3225.23203	0.97824
3223.17512	0.97809
3221.11821	0.97868
3219.06131	0.97915
3217.00440	0.97911
3214.94749	0.97905
3212.89058	0.97910
3210.83367	0.97919
3208.77677	0.97951
3206.71986	0.98015
3204.66295	0.98067
3202.60604	0.98077
3200.54913	0.98086
3198.49222	0.98126
3196.43532	0.98177
3194.37841	0.98221
3192.32150	0.98262
3190.26459	0.98263
3188.20768	0.98219
3186.15078	0.98207
3184.09387	0.98241
3182.03696	0.98244
3179.98005	0.98193
3177.92314	0.98133
3175.86623	0.98133
3173.80933	0.98214
3171.75242	0.98299
3169.69551	0.98341
3167.63860	0.98350
3165.58169	0.98316
3163.52479	0.98279
3161.46788	0.98310
3159.41097	0.98368
3157.35406	0.98375
3155.29715	0.98353
3153.24024	0.98361
3151.18334	0.98420
3149.12643	0.98504
3147.06952	0.98546
3145.01261	0.98510
3142.95570	0.98466
3140.89880	0.98465
3138.84189	0.98474
3136.78498	0.98482
3134.72807	0.98517
3132.67116	0.98554
3130.61425	0.98542
3128.55735	0.98513
3126.50044	0.98529
3124.44353	0.98581
3122.38662	0.98612
3120.32971	0.98592
3118.27281	0.98552
3116.21590	0.98551
3114.15899	0.98583
3112.10208	0.98597
3110.04517	0.98589
3107.98826	0.98588
3105.93136	0.98632
3103.87445	0.98704
3101.81754	0.98727
3099.76063	0.98685
3097.70372	0.98658
3095.64682	0.98691
3093.58991	0.98722
3091.53300	0.98686
3089.47609	0.98626
3087.41918	0.98631
3085.36227	0.98691
3083.30537	0.98725
3081.24846	0.98742
3079.19155	0.98765
3077.13464	0.98789
3075.07773	0.98822
3073.02083	0.98831
3070.96392	0.98795
3068.90701	0.98747
3066.85010	0.98716
3064.79319	0.98727
3062.73628	0.98782
3060.67938	0.98822
3058.62247	0.98806
3056.56556	0.98779
3054.50865	0.98814
3052.45174	0.98890
3050.39484	0.98934
3048.33793	0.98933
3046.28102	0.98897
3044.22411	0.98851
3042.16720	0.98820
3040.11029	0.98801
3038.05339	0.98817
3035.99648	0.98865
3033.93957	0.98891
3031.88266	0.98887
3029.82575	0.98869
3027.76885	0.98831
3025.71194	0.98791
3023.65503	0.98775
3021.59812	0.98802
3019.54121	0.98836
3017.48430	0.98836
3015.42740	0.98841
3013.37049	0.98831
3011.31358	0.98793
3009.25667	0.98806
3007.19976	0.98842
3005.14286	0.98852
3003.08595	0.98877
3001.02904	0.98865
2998.97213	0.98778
2996.91522	0.98738
2994.85831	0.98776
2992.80141	0.98799
2990.74450	0.98796
2988.68759	0.98774
2986.63068	0.98749
2984.57377	0.98764
2982.51687	0.98790
2980.45996	0.98795
2978.40305	0.98779
2976.34614	0.98732
2974.28923	0.98679
2972.23232	0.98645
2970.17542	0.98621
2968.11851	0.98581
2966.06160	0.98511
2964.00469	0.98447
2961.94778	0.98430
2959.89088	0.98465
2957.83397	0.98491
2955.77706	0.98470
2953.72015	0.98442
2951.66324	0.98427
2949.60633	0.98420
2947.54943	0.98422
2945.49252	0.98407
2943.43561	0.98350
2941.37870	0.98293
2939.32179	0.98292
2937.26489	0.98323
2935.20798	0.98335
2933.15107	0.98338
2931.09416	0.98342
2929.03725	0.98344
2926.98034	0.98338
2924.92344	0.98304
2922.86653	0.98245
2920.80962	0.98195
2918.75271	0.98175
2916.69580	0.98163
2914.63890	0.98143
2912.58199	0.98129
2910.52508	0.98119
2908.46817	0.98110
2906.41126	0.98117
2904.35435	0.98137
2902.29745	0.98146
2900.24054	0.98139
2898.18363	0.98130
2896.12672	0.98124
2894.06981	0.98113
2892.01291	0.98093
2889.95600	0.98080
2887.89909	0.98074
2885.84218	0.98078
2883.78527	0.98076
2881.72836	0.98075
2879.67146	0.98130
2877.61455	0.98195
2875.55764	0.98186
2873.50073	0.98153
2871.44382	0.98172
2869.38692	0.98227
2867.33001	0.98257
2865.27310	0.98268
2863.21619	0.98331
2861.15928	0.98406
2859.10237	0.98426
2857.04547	0.98429
2854.98856	0.98454
2852.93165	0.98501
2850.87474	0.98530
2848.81783	0.98513
2846.76093	0.98516
2844.70402	0.98579
2842.64711	0.98652
2840.59020	0.98690
2838.53329	0.98693
2836.47638	0.98685
2834.41948	0.98688
2832.36257	0.98690
2830.30566	0.98694
2828.24875	0.98734
2826.19184	0.98803
2824.13494	0.98847
2822.07803	0.98861
2820.02112	0.98856
2817.96421	0.98823
2815.90730	0.98793
2813.85039	0.98788
2811.79349	0.98798
2809.73658	0.98833
2807.67967	0.98886
2805.62276	0.98910
2803.56585	0.98894
2801.50895	0.98876
2799.45204	0.98885
2797.39513	0.98910
2795.33822	0.98916
2793.28131	0.98899
2791.22440	0.98875
2789.16750	0.98869
2787.11059	0.98900
2785.05368	0.98928
2782.99677	0.98924
2780.93986	0.98938
2778.88296	0.98981
2776.82605	0.99011
2774.76914	0.99020
2772.71223	0.99007
2770.65532	0.98988
2768.59841	0.98968
2766.54151	0.98946
2764.48460	0.98930
2762.42769	0.98925
2760.37078	0.98938
2758.31387	0.98947
2756.25697	0.98937
2754.20006	0.98922
2752.14315	0.98934
2750.08624	0.98965
2748.02933	0.98957
2745.97242	0.98906
2743.91552	0.98890
2741.85861	0.98945
2739.80170	0.99015
2737.74479	0.99034
2735.68788	0.99000
2733.63098	0.98962
2731.57407	0.98938
2729.51716	0.98934
2727.46025	0.98951
2725.40334	0.98967
2723.34643	0.98987
2721.28953	0.99010
2719.23262	0.99010
2717.17571	0.98981
2715.11880	0.98962
2713.06189	0.98969
2711.00499	0.98994
2708.94808	0.99012
2706.89117	0.99004
2704.83426	0.98992
2702.77735	0.98995
2700.72044	0.99002
2698.66354	0.98997
2696.60663	0.98986
2694.54972	0.98995
2692.49281	0.99030
2690.43590	0.99071
2688.37900	0.99088
2686.32209	0.99096
2684.26518	0.99088
2682.20827	0.99038
2680.15136	0.98977
2678.09445	0.98964
2676.03755	0.99000
2673.98064	0.99039
2671.92373	0.99039
2669.86682	0.98994
2667.80991	0.98953
2665.75301	0.98954
2663.69610	0.98959
2661.63919	0.98943
2659.58228	0.98945
2657.52537	0.98960
2655.46846	0.98949
2653.41156	0.98931
2651.35465	0.98923
2649.29774	0.98925
2647.24083	0.98942
2645.18392	0.98966
2643.12702	0.98976
2641.07011	0.98957
2639.01320	0.98922
2636.95629	0.98890
2634.89938	0.98905
2632.84247	0.98950
2630.78557	0.98951
2628.72866	0.98932
2626.67175	0.98971
2624.61484	0.99032
2622.55793	0.99055
2620.50103	0.99037
2618.44412	0.99008
2616.38721	0.98993
2614.33030	0.98987
2612.27339	0.98997
2610.21648	0.99001
2608.15958	0.98971
2606.10267	0.98948
2604.04576	0.98976
2601.98885	0.99003
2599.93194	0.98994
2597.87504	0.98993
2595.81813	0.98994
2593.76122	0.98999
2591.70431	0.99026
2589.64740	0.99024
2587.59049	0.99004
2585.53359	0.99011
2583.47668	0.99035
2581.41977	0.99080
2579.36286	0.99086
2577.30595	0.99020
2575.24905	0.98983
2573.19214	0.99024
2571.13523	0.99091
2569.07832	0.99117
2567.02141	0.99086
2564.96450	0.99057
2562.90760	0.99117
2560.85069	0.99232
2558.79378	0.99250
2556.73687	0.99183
2554.67996	0.99129
2552.62306	0.99111
2550.56615	0.99092
2548.50924	0.99044
2546.45233	0.99044
2544.39542	0.99124
2542.33851	0.99210
2540.28161	0.99234
2538.22470	0.99165
2536.16779	0.99086
2534.11088	0.99088
2532.05397	0.99128
2529.99707	0.99159
2527.94016	0.99178
2525.88325	0.99147
2523.82634	0.99082
2521.76943	0.99051
2519.71252	0.99101
2517.65562	0.99199
2515.59871	0.99235
2513.54180	0.99179
2511.48489	0.99118
2509.42798	0.99109
2507.37108	0.99149
2505.31417	0.99184
2503.25726	0.99148
2501.20035	0.99112
2499.14344	0.99114
2497.08653	0.99124
2495.02963	0.99187
2492.97272	0.99237
2490.91581	0.99184
2488.85890	0.99118
2486.80199	0.99107
2484.74509	0.99117
2482.68818	0.99114
2480.63127	0.99103
2478.57436	0.99121
2476.51745	0.99153
2474.46054	0.99153
2472.40364	0.99131
2470.34673	0.99139
2468.28982	0.99156
2466.23291	0.99126
2464.17600	0.99103
2462.11910	0.99116
2460.06219	0.99109
2458.00528	0.99090
2455.94837	0.99095
2453.89146	0.99111
2451.83455	0.99138
2449.77765	0.99184
2447.72074	0.99229
2445.66383	0.99257
2443.60692	0.99245
2441.55001	0.99191
2439.49311	0.99129
2437.43620	0.99107
2435.37929	0.99156
2433.32238	0.99251
2431.26547	0.99296
2429.20856	0.99234
2427.15166	0.99155
2425.09475	0.99160
2423.03784	0.99186
2420.98093	0.99165
2418.92402	0.99183
2416.86712	0.99269
2414.81021	0.99327
2412.75330	0.99303
2410.69639	0.99264
2408.63948	0.99265
2406.58257	0.99267
2404.52567	0.99245
2402.46876	0.99223
2400.41185	0.99218
2398.35494	0.99211
2396.29803	0.99204
2394.24113	0.99233
2392.18422	0.99273
2390.12731	0.99291
2388.07040	0.99287
2386.01349	0.99251
2383.95658	0.99222
2381.89968	0.99225
2379.84277	0.99268
2377.78586	0.99351
2375.72895	0.99382
2373.67204	0.99298
2371.61514	0.99191
2369.55823	0.99187
2367.50132	0.99302
2365.44441	0.99400
2363.38750	0.99386
2361.33059	0.99312
2359.27369	0.99271
2357.21678	0.99257
2355.15987	0.99156
2353.10296	0.99047
2351.04605	0.99017
2348.98915	0.99031
2346.93224	0.99084
2344.87533	0.99153
2342.81842	0.99190
2340.76151	0.99176
2338.70460	0.99132
2336.64770	0.99129
2334.59079	0.99151
2332.53388	0.99109
2330.47697	0.99020
2328.42006	0.98972
2326.36316	0.98984
2324.30625	0.99037
2322.24934	0.99109
2320.19243	0.99173
2318.13552	0.99191
2316.07861	0.99122
2314.02171	0.99051
2311.96480	0.99059
2309.90789	0.99092
2307.85098	0.99110
2305.79407	0.99099
2303.73717	0.99072
2301.68026	0.99070
2299.62335	0.99100
2297.56644	0.99152
2295.50953	0.99173
2293.45262	0.99128
2291.39572	0.99091
2289.33881	0.99090
2287.28190	0.99063
2285.22499	0.99041
2283.16808	0.99082
2281.11117	0.99146
2279.05427	0.99190
2276.99736	0.99169
2274.94045	0.99085
2272.88354	0.99035
2270.82663	0.99044
2268.76973	0.99043
2266.71282	0.99027
2264.65591	0.99015
2262.59900	0.99016
2260.54209	0.99077
2258.48518	0.99188
2256.42828	0.99285
2254.37137	0.99295
2252.31446	0.99187
2250.25755	0.99152
2248.20064	0.99279
2246.14374	0.99358
2244.08683	0.99282
2242.02992	0.99200
2239.97301	0.99237
2237.91610	0.99288
2235.85919	0.99323
2233.80229	0.99389
2231.74538	0.99368
2229.68847	0.99265
2227.63156	0.99187
2225.57465	0.99126
2223.51775	0.99082
2221.46084	0.99093
2219.40393	0.99163
2217.34702	0.99215
2215.29011	0.99205
2213.23320	0.99142
2211.17630	0.99035
2209.11939	0.99014
2207.06248	0.99079
2205.00557	0.99146
2202.94866	0.99258
2200.89176	0.99271
2198.83485	0.99181
2196.77794	0.99149
2194.72103	0.99112
2192.66412	0.99055
2190.60721	0.99057
2188.55031	0.99086
2186.49340	0.99157
2184.43649	0.99269
2182.37958	0.99281
2180.32267	0.99227
2178.26577	0.99145
2176.20886	0.99087
2174.15195	0.99188
2172.09504	0.99209
2170.03813	0.99070
2167.98122	0.99071
2165.92432	0.99066
2163.86741	0.98869
2161.81050	0.99034
2159.75359	0.99757
2157.69668	1.00154
2155.63978	0.99959
2153.58287	0.99758
2151.52596	0.99692
2149.46905	0.99598
2147.41214	0.99533
2145.35523	0.99522
2143.29833	0.99381
2141.24142	0.99231
2139.18451	0.99257
2137.12760	0.99396
2135.07069	0.99553
2133.01379	0.99501
2130.95688	0.99246
2128.89997	0.99130
2126.84306	0.99206
2124.78615	0.99244
2122.72924	0.99176
2120.67234	0.99062
2118.61543	0.98958
2116.55852	0.98967
2114.50161	0.99094
2112.44470	0.99187
2110.38780	0.99206
2108.33089	0.99239
2106.27398	0.99272
2104.21707	0.99226
2102.16016	0.99105
2100.10325	0.99025
2098.04635	0.99043
2095.98944	0.99140
2093.93253	0.99251
2091.87562	0.99318
2089.81871	0.99353
2087.76181	0.99325
2085.70490	0.99248
2083.64799	0.99195
2081.59108	0.99165
2079.53417	0.99067
2077.47726	0.98945
2075.42036	0.98958
2073.36345	0.99083
2071.30654	0.99172
2069.24963	0.99184
2067.19272	0.99239
2065.13582	0.99328
2063.07891	0.99277
2061.02200	0.99098
2058.96509	0.98967
2056.90818	0.98982
2054.85127	0.99079
2052.79437	0.99155
2050.73746	0.99259
2048.68055	0.99405
2046.62364	0.99485
2044.56673	0.99539
2042.50983	0.99605
2040.45292	0.99643
2038.39601	0.99494
2036.33910	0.99114
2034.28219	0.98938
2032.22528	0.99177
2030.16838	0.99376
2028.11147	0.99316
2026.05456	0.99220
2023.99765	0.99204
2021.94074	0.99272
2019.88384	0.99242
2017.82693	0.99074
2015.77002	0.99031
2013.71311	0.99065
2011.65620	0.99093
2009.59929	0.99180
2007.54239	0.99295
2005.48548	0.99475
2003.42857	0.99595
2001.37166	0.99506
1999.31475	0.99346
1997.25785	0.99212
1995.20094	0.99133
1993.14403	0.99161
1991.08712	0.99250
1989.03021	0.99231
1986.97330	0.98995
1984.91640	0.98779
1982.85949	0.98842
1980.80258	0.99044
1978.74567	0.99240
1976.68876	0.99422
1974.63186	0.99504
1972.57495	0.99495
1970.51804	0.99548
1968.46113	0.99670
1966.40422	0.99638
1964.34731	0.99480
1962.29041	0.99439
1960.23350	0.99485
1958.17659	0.99494
1956.11968	0.99431
1954.06277	0.99326
1952.00587	0.99306
1949.94896	0.99315
1947.89205	0.99263
1945.83514	0.99289
1943.77823	0.99371
1941.72132	0.99369
1939.66442	0.99393
1937.60751	0.99499
1935.55060	0.99557
1933.49369	0.99528
1931.43678	0.99504
1929.37988	0.99556
1927.32297	0.99581
1925.26606	0.99476
1923.20915	0.99376
1921.15224	0.99383
1919.09533	0.99432
1917.03843	0.99406
1914.98152	0.99294
1912.92461	0.99244
1910.86770	0.99285
1908.81079	0.99316
1906.75389	0.99326
1904.69698	0.99351
1902.64007	0.99390
1900.58316	0.99451
1898.52625	0.99446
1896.46934	0.99328
1894.41244	0.99227
1892.35553	0.99219
1890.29862	0.99233
1888.24171	0.99243
1886.18480	0.99286
1884.12790	0.99312
1882.07099	0.99286
1880.01408	0.99265
1877.95717	0.99291
1875.90026	0.99333
1873.84335	0.99334
1871.78645	0.99347
1869.72954	0.99446
1867.67263	0.99521
1865.61572	0.99465
1863.55881	0.99395
1861.50191	0.99390
1859.44500	0.99361
1857.38809	0.99297
1855.33118	0.99311
1853.27427	0.99385
1851.21736	0.99428
1849.16046	0.99448
1847.10355	0.99504
1845.04664	0.99563
1842.98973	0.99522
1840.93282	0.99438
1838.87592	0.99423
1836.81901	0.99455
1834.76210	0.99431
1832.70519	0.99358
1830.64828	0.99323
1828.59137	0.99336
1826.53447	0.99358
1824.47756	0.99362
1822.42065	0.99356
1820.36374	0.99369
1818.30683	0.99394
1816.24993	0.99403
1814.19302	0.99401
1812.13611	0.99428
1810.07920	0.99438
1808.02229	0.99370
1805.96538	0.99288
1803.90848	0.99284
1801.85157	0.99349
1799.79466	0.99366
1797.73775	0.99329
1795.68084	0.99321
1793.62394	0.99318
1791.56703	0.99284
1789.51012	0.99252
1787.45321	0.99235
1785.39630	0.99213
1783.33939	0.99150
1781.28249	0.99078
1779.22558	0.99053
1777.16867	0.99039
1775.11176	0.99006
1773.05485	0.98926
1770.99795	0.98749
1768.94104	0.98516
1766.88413	0.98287
1764.82722	0.98087
1762.77031	0.97818
1760.71340	0.97408
1758.65650	0.96965
1756.59959	0.96505
1754.54268	0.96084
1752.48577	0.95717
1750.42886	0.95316
1748.37196	0.94925
1746.31505	0.94594
1744.25814	0.94293
1742.20123	0.94040
1740.14432	0.93807
1738.08741	0.93598
1736.03051	0.93452
1733.97360	0.93274
1731.91669	0.93127
1729.85978	0.93081
1727.80287	0.93065
1725.74597	0.93097
1723.68906	0.93188
1721.63215	0.93330
1719.57524	0.93534
1717.51833	0.93794
1715.46142	0.94066
1713.40452	0.94373
1711.34761	0.94734
1709.29070	0.95116
1707.23379	0.95507
1705.17688	0.95908
1703.11998	0.96258
1701.06307	0.96585
1699.00616	0.96908
1696.94925	0.97147
1694.89234	0.97304
1692.83543	0.97429
1690.77853	0.97587
1688.72162	0.97771
1686.66471	0.97929
1684.60780	0.98028
1682.55089	0.98040
1680.49399	0.98047
1678.43708	0.98082
1676.38017	0.98113
1674.32326	0.98119
1672.26635	0.98126
1670.20944	0.98136
1668.15254	0.98127
1666.09563	0.98143
1664.03872	0.98173
1661.98181	0.98147
1659.92490	0.98095
1657.86800	0.98090
1655.81109	0.98142
1653.75418	0.98200
1651.69727	0.98123
1649.64036	0.98042
1647.58345	0.98019
1645.52655	0.98015
1643.46964	0.98015
1641.41273	0.98011
1639.35582	0.98023
1637.29891	0.98079
1635.24201	0.98111
1633.18510	0.98062
1631.12819	0.98047
1629.07128	0.98089
1627.01437	0.98134
1624.95746	0.98170
1622.90056	0.98208
1620.84365	0.98235
1618.78674	0.98276
1616.72983	0.98324
1614.67292	0.98336
1612.61602	0.98359
1610.55911	0.98408
1608.50220	0.98436
1606.44529	0.98452
1604.38838	0.98486
1602.33147	0.98522
1600.27457	0.98547
1598.21766	0.98567
1596.16075	0.98588
1594.10384	0.98612
1592.04693	0.98631
1589.99003	0.98652
1587.93312	0.98673
1585.87621	0.98690
1583.81930	0.98716
1581.76239	0.98755
1579.70548	0.98782
1577.64858	0.98783
1575.59167	0.98781
1573.53476	0.98800
1571.47785	0.98808
1569.42094	0.98774
1567.36404	0.98742
1565.30713	0.98758
1563.25022	0.98808
1561.19331	0.98881
1559.13640	0.98946
1557.07949	0.98891
1555.02259	0.98817
1552.96568	0.98800
1550.90877	0.98824
1548.85186	0.98847
1546.79495	0.98864
1544.73805	0.98899
1542.68114	0.98950
1540.62423	0.98983
1538.56732	0.98920
1536.51041	0.98833
1534.45350	0.98786
1532.39660	0.98779
1530.33969	0.98781
1528.28278	0.98768
1526.22587	0.98739
1524.16896	0.98724
1522.11206	0.98747
1520.05515	0.98804
1517.99824	0.98843
1515.94133	0.98803
1513.88442	0.98718
1511.82751	0.98670
1509.77061	0.98697
1507.71370	0.98744
1505.65679	0.98673
1503.59988	0.98616
1501.54297	0.98620
1499.48607	0.98621
1497.42916	0.98589
1495.37225	0.98537
1493.31534	0.98501
1491.25843	0.98486
1489.20152	0.98438
1487.14462	0.98348
1485.08771	0.98293
1483.03080	0.98280
1480.97389	0.98250
1478.91698	0.98192
1476.86008	0.98131
1474.80317	0.98065
1472.74626	0.97956
1470.68935	0.97838
1468.63244	0.97792
1466.57553	0.97762
1464.51863	0.97659
1462.46172	0.97535
1460.40481	0.97466
1458.34790	0.97397
1456.29099	0.97264
1454.23409	0.97170
1452.17718	0.97113
1450.12027	0.97050
1448.06336	0.96970
1446.00645	0.96850
1443.94954	0.96715
1441.89264	0.96594
1439.83573	0.96509
1437.77882	0.96443
1435.72191	0.96352
1433.66500	0.96289
1431.60810	0.96284
1429.55119	0.96274
1427.49428	0.96234
1425.43737	0.96185
1423.38046	0.96137
1421.32355	0.96130
1419.26665	0.96158
1417.20974	0.96175
1415.15283	0.96180
1413.09592	0.96186
1411.03901	0.96192
1408.98211	0.96196
1406.92520	0.96175
1404.86829	0.96134
1402.81138	0.96126
1400.75447	0.96149
1398.69756	0.96138
1396.64066	0.96063
1394.58375	0.95952
1392.52684	0.95841
1390.46993	0.95722
1388.41302	0.95556
1386.35612	0.95334
1384.29921	0.95085
1382.24230	0.94823
1380.18539	0.94545
1378.12848	0.94274
1376.07157	0.94050
1374.01467	0.93856
1371.95776	0.93716
1369.90085	0.93689
1367.84394	0.93754
1365.78703	0.93896
1363.73013	0.94127
1361.67322	0.94426
1359.61631	0.94725
1357.55940	0.95027
1355.50249	0.95334
1353.44558	0.95569
1351.38868	0.95716
1349.33177	0.95832
1347.27486	0.95935
1345.21795	0.96019
1343.16104	0.96093
1341.10414	0.96176
1339.04723	0.96244
1336.99032	0.96262
1334.93341	0.96274
1332.87650	0.96291
1330.81959	0.96301
1328.76269	0.96323
1326.70578	0.96350
1324.64887	0.96359
1322.59196	0.96353
1320.53505	0.96351
1318.47815	0.96367
1316.42124	0.96388
1314.36433	0.96399
1312.30742	0.96407
1310.25051	0.96434
1308.19360	0.96480
1306.13670	0.96511
1304.07979	0.96500
1302.02288	0.96489
1299.96597	0.96513
1297.90906	0.96540
1295.85216	0.96550
1293.79525	0.96528
1291.73834	0.96463
1289.68143	0.96382
1287.62452	0.96295
1285.56761	0.96190
1283.51071	0.96066
1281.45380	0.95938
1279.39689	0.95801
1277.33998	0.95630
1275.28307	0.95446
1273.22617	0.95271
1271.16926	0.95075
1269.11235	0.94848
1267.05544	0.94604
1264.99853	0.94348
1262.94162	0.94091
1260.88472	0.93839
1258.82781	0.93559
1256.77090	0.93249
1254.71399	0.92949
1252.65708	0.92660
1250.60018	0.92372
1248.54327	0.92087
1246.48636	0.91804
1244.42945	0.91508
1242.37254	0.91190
1240.31563	0.90902
1238.25873	0.90694
1236.20182	0.90511
1234.14491	0.90298
1232.08800	0.90107
1230.03109	0.89972
1227.97419	0.89884
1225.91728	0.89864
1223.86037	0.89924
1221.80346	0.90058
1219.74655	0.90263
1217.68964	0.90540
1215.63274	0.90856
1213.57583	0.91178
1211.51892	0.91519
1209.46201	0.91876
1207.40510	0.92205
1205.34820	0.92480
1203.29129	0.92715
1201.23438	0.92937
1199.17747	0.93156
1197.12056	0.93370
1195.06365	0.93591
1193.00675	0.93797
1190.94984	0.93942
1188.89293	0.94016
1186.83602	0.94021
1184.77911	0.93972
1182.72221	0.93915
1180.66530	0.93846
1178.60839	0.93741
1176.55148	0.93592
1174.49457	0.93412
1172.43766	0.93246
1170.38076	0.93088
1168.32385	0.92910
1166.26694	0.92724
1164.21003	0.92530
1162.15312	0.92337
1160.09622	0.92194
1158.03931	0.92121
1155.98240	0.92102
1153.92549	0.92126
1151.86858	0.92154
1149.81167	0.92161
1147.75477	0.92176
1145.69786	0.92182
1143.64095	0.92145
1141.58404	0.92089
1139.52713	0.92019
1137.47023	0.91926
1135.41332	0.91807
1133.35641	0.91643
1131.29950	0.91447
1129.24259	0.91263
1127.18568	0.91095
1125.12878	0.90923
1123.07187	0.90767
1121.01496	0.90636
1118.95805	0.90497
1116.90114	0.90331
1114.84424	0.90181
1112.78733	0.90069
1110.73042	0.89949
1108.67351	0.89806
1106.61660	0.89683
1104.55969	0.89581
1102.50279	0.89453
1100.44588	0.89306
1098.38897	0.89154
1096.33206	0.88986
1094.27515	0.88823
1092.21825	0.88684
1090.16134	0.88549
1088.10443	0.88406
1086.04752	0.88243
1083.99061	0.88039
1081.93370	0.87811
1079.87680	0.87607
1077.81989	0.87429
1075.76298	0.87259
1073.70607	0.87079
1071.64916	0.86855
1069.59226	0.86623
1067.53535	0.86435
1065.47844	0.86269
1063.42153	0.86096
1061.36462	0.85937
1059.30771	0.85794
1057.25081	0.85650
1055.19390	0.85531
1053.13699	0.85396
1051.08008	0.85191
1049.02317	0.84973
1046.96627	0.84811
1044.90936	0.84689
1042.85245	0.84574
1040.79554	0.84463
1038.73863	0.84343
1036.68172	0.84197
1034.62482	0.84042
1032.56791	0.83912
1030.51100	0.83801
1028.45409	0.83719
1026.39718	0.83688
1024.34028	0.83686
1022.28337	0.83691
1020.22646	0.83721
1018.16955	0.83793
1016.11264	0.83889
1014.05573	0.83980
1011.99883	0.84084
1009.94192	0.84229
1007.88501	0.84395
1005.82810	0.84562
1003.77119	0.84728
1001.71429	0.84861
999.65738	0.84978
997.60047	0.85136
995.54356	0.85309
993.48665	0.85466
991.42974	0.85648
989.37284	0.85855
987.31593	0.86063
985.25902	0.86272
983.20211	0.86472
981.14520	0.86676
979.08830	0.86895
977.03139	0.87127
974.97448	0.87413
972.91757	0.87737
970.86066	0.88019
968.80375	0.88259
966.74685	0.88512
964.68994	0.88816
962.63303	0.89130
960.57612	0.89393
958.51921	0.89614
956.46231	0.89815
954.40540	0.90015
952.34849	0.90214
950.29158	0.90401
948.23467	0.90566
946.17776	0.90699
944.12086	0.90834
942.06395	0.90976
940.00704	0.91071
937.95013	0.91124
935.89322	0.91172
933.83632	0.91216
931.77941	0.91249
929.72250	0.91244
927.66559	0.91220
925.60868	0.91256
923.55177	0.91319
921.49487	0.91350
919.43796	0.91354
917.38105	0.91341
915.32414	0.91360
913.26723	0.91396
911.21033	0.91359
909.15342	0.91257
907.09651	0.91165
905.03960	0.91080
902.98269	0.90980
900.92578	0.90940
898.86888	0.91018
896.81197	0.91147
894.75506	0.91251
892.69815	0.91349
890.64124	0.91485
888.58434	0.91657
886.52743	0.91845
884.47052	0.92029
882.41361	0.92184
880.35670	0.92336
878.29979	0.92526
876.24289	0.92776
874.18598	0.93053
872.12907	0.93273
870.07216	0.93399
868.01525	0.93480
865.95835	0.93603
863.90144	0.93806
861.84453	0.94002
859.78762	0.94087
857.73071	0.94156
855.67380	0.94317
853.61690	0.94457
851.55999	0.94482
849.50308	0.94419
847.44617	0.94349
845.38926	0.94368
843.33236	0.94423
841.27545	0.94390
839.21854	0.94289
837.16163	0.94239
835.10472	0.94244
833.04781	0.94218
830.99091	0.94182
828.93400	0.94158
826.87709	0.94120
824.82018	0.94119
822.76327	0.94157
820.70637	0.94177
818.64946	0.94188
816.59255	0.94206
814.53564	0.94195
812.47873	0.94149
810.42182	0.94092
808.36492	0.94030
806.30801	0.94012
804.25110	0.94020
802.19419	0.93975
800.13728	0.93942
798.08038	0.93997
796.02347	0.94055
793.96656	0.94079
791.90965	0.94121
789.85274	0.94157
787.79583	0.94159
785.73893	0.94161
783.68202	0.94186
781.62511	0.94236
779.56820	0.94317
777.51129	0.94429
775.45439	0.94531
773.39748	0.94582
771.34057	0.94586
769.28366	0.94628
767.22675	0.94731
765.16984	0.94773
763.11294	0.94728
761.05603	0.94695
758.99912	0.94714
756.94221	0.94799
754.88530	0.94884
752.82839	0.94871
750.77149	0.94818
748.71458	0.94819
746.65767	0.94847
744.60076	0.94844
742.54385	0.94844
740.48695	0.94836
738.43004	0.94761
736.37313	0.94660
734.31622	0.94631
732.25931	0.94664
730.20240	0.94662
728.14550	0.94612
726.08859	0.94572
724.03168	0.94557
721.97477	0.94544
719.91786	0.94516
717.86096	0.94427
715.80405	0.94295
713.74714	0.94235
711.69023	0.94276
709.63332	0.94328
707.57641	0.94299
705.51951	0.94201
703.46260	0.94120
701.40569	0.94052
699.34878	0.93977
697.29187	0.93954
695.23497	0.93950
693.17806	0.93861
691.12115	0.93755
689.06424	0.93751
687.00733	0.93724
684.95042	0.93562
682.89352	0.93434
680.83661	0.93412
678.77970	0.93347
676.72279	0.93243
674.66588	0.93204
672.60898	0.93221
670.55207	0.93238
668.49516	0.93150
666.43825	0.93072
664.38134	0.93166
662.32443	0.93224
660.26753	0.93150
658.21062	0.93093
656.15371	0.93130
654.09680	0.93174
652.03989	0.93146
649.98299	0.93032
647.92608	0.92885
645.86917	0.92784
643.81226	0.92776
641.75535	0.92807
639.69844	0.92768
637.64154	0.92686
635.58463	0.92654
633.52772	0.92597
631.47081	0.92461
629.41390	0.92408
627.35700	0.92492
625.30009	0.92500
623.24318	0.92328
621.18627	0.92163
619.12936	0.92133
617.07245	0.92074
615.01555	0.91898
612.95864	0.91744
610.90173	0.91656
608.84482	0.91587
606.78791	0.91523
604.73101	0.91419
602.67410	0.91284
600.61719	0.91191
598.56028	0.91176
596.50337	0.91268
594.44646	0.91418
592.38956	0.91504
590.33265	0.91526
588.27574	0.91577
586.21883	0.91623
584.16192	0.91532
582.10502	0.91335
580.04811	0.91208
577.99120	0.91247
575.93429	0.91313
573.87738	0.91282
571.82047	0.91320
569.76357	0.91441
567.70666	0.91390
565.64975	0.91173
563.59284	0.91023
561.53593	0.90983
559.47903	0.90968
557.42212	0.90949
555.36521	0.90935
553.30830	0.90956
551.25139	0.90984
549.19448	0.90959
547.13758	0.90925
545.08067	0.90855
543.02376	0.90741
540.96685	0.90675
538.90994	0.90607
536.85304	0.90516
534.79613	0.90453
532.73922	0.90426
530.68231	0.90439
528.62540	0.90453
526.56849	0.90502
524.51159	0.90558
522.45468	0.90463
520.39777	0.90218
518.34086	0.90050
516.28395	0.90059
514.22705	0.89954
512.17014	0.89678
510.11323	0.89405
508.05632	0.89144
505.99941	0.88957
503.94250	0.88824
501.88560	0.88578
499.82869	0.88316
497.77178	0.88217
495.71487	0.88232
493.65796	0.88154
491.60106	0.87848
489.54415	0.87573
487.48724	0.87566
485.43033	0.87561
483.37342	0.87418
481.31651	0.87341
479.25961	0.87233
477.20270	0.86887
475.14579	0.86436
473.08888	0.86187
471.03197	0.86163
468.97507	0.86029
466.91816	0.85927
464.86125	0.86171
462.80434	0.86288
460.74743	0.85953
458.69052	0.85653
456.63362	0.85460
454.57671	0.85153
452.51980	0.85012
450.46289	0.85005
448.40598	0.84877
446.34908	0.84812
444.29217	0.84971
442.23526	0.85076
440.17835	0.85001
438.12144	0.84934
436.06453	0.85035
434.00763	0.85212
431.95072	0.85136
429.89381	0.84844
427.83690	0.84696
425.77999	0.85013
423.72309	0.85652
421.66618	0.85998
419.60927	0.86131
417.55236	0.86210
415.49545	0.85852
413.43854	0.85392
411.38164	0.85201
409.32473	0.85181
407.26782	0.85414
405.21091	0.86039
403.15400	0.86543
401.09710	0.86384
399.04019	0.85955
