3996.57260	0.96600
3994.51569	0.96656
3992.45878	0.96652
3990.40188	0.96626
3988.34497	0.96587
3986.28806	0.96560
3984.23115	0.96578
3982.17424	0.96596
3980.11733	0.96613
3978.06043	0.96669
3976.00352	0.96678
3973.94661	0.96598
3971.88970	0.96556
3969.83279	0.96590
3967.77589	0.96621
3965.71898	0.96615
3963.66207	0.96612
3961.60516	0.96629
3959.54825	0.96630
3957.49134	0.96621
3955.43444	0.96611
3953.37753	0.96598
3951.32062	0.96622
3949.26371	0.96673
3947.20680	0.96692
3945.14990	0.96663
3943.09299	0.96589
3941.03608	0.96552
3938.97917	0.96604
3936.92226	0.96647
3934.86535	0.96649
3932.80845	0.96655
3930.75154	0.96648
3928.69463	0.96605
3926.63772	0.96536
3924.58081	0.96522
3922.52391	0.96617
3920.46700	0.96701
3918.41009	0.96682
3916.35318	0.96626
3914.29627	0.96627
3912.23936	0.96682
3910.18246	0.96720
3908.12555	0.96704
3906.06864	0.96686
3904.01173	0.96691
3901.95482	0.96655
3899.89792	0.96565
3897.84101	0.96495
3895.78410	0.96468
3893.72719	0.96491
3891.67028	0.96561
3889.61337	0.96607
3887.55647	0.96615
3885.49956	0.96598
3883.44265	0.96570
3881.38574	0.96591
3879.32883	0.96606
3877.27193	0.96566
3875.21502	0.96552
3873.15811	0.96621
3871.10120	0.96698
3869.04429	0.96723
3866.98738	0.96750
3864.93048	0.96729
3862.87357	0.96576
3860.81666	0.96435
3858.75975	0.96462
3856.70284	0.96617
3854.64594	0.96765
3852.58903	0.96741
3850.53212	0.96635
3848.47521	0.96592
3846.41830	0.96578
3844.36139	0.96586
3842.30449	0.96646
3840.24758	0.96710
3838.19067	0.96737
3836.13376	0.96748
3834.07685	0.96706
3832.01995	0.96618
3829.96304	0.96576
3827.90613	0.96581
3825.84922	0.96613
3823.79231	0.96678
3821.73540	0.96698
3819.67850	0.96643
3817.62159	0.96622
3815.56468	0.96646
3813.50777	0.96679
3811.45086	0.96707
3809.39396	0.96705
3807.33705	0.96667
3805.28014	0.96660
3803.22323	0.96698
3801.16632	0.96698
3799.10941	0.96639
3797.05251	0.96597
3794.99560	0.96609
3792.93869	0.96641
3790.88178	0.96648
3788.82487	0.96663
3786.76796	0.96717
3784.71106	0.96763
3782.65415	0.96774
3780.59724	0.96751
3778.54033	0.96703
3776.48342	0.96679
3774.42652	0.96672
3772.36961	0.96632
3770.31270	0.96599
3768.25579	0.96644
3766.19888	0.96703
3764.14197	0.96709
3762.08507	0.96694
3760.02816	0.96697
3757.97125	0.96742
3755.91434	0.96811
3753.85743	0.96827
3751.80053	0.96760
3749.74362	0.96698
3747.68671	0.96741
3745.62980	0.96785
3743.57289	0.96726
3741.51598	0.96682
3739.45908	0.96693
3737.40217	0.96716
3735.34526	0.96754
3733.28835	0.96785
3731.23144	0.96782
3729.17454	0.96783
3727.11763	0.96746
3725.06072	0.96629
3723.00381	0.96561
3720.94690	0.96588
3718.88999	0.96614
3716.83309	0.96603
3714.77618	0.96603
3712.71927	0.96600
3710.66236	0.96541
3708.60545	0.96490
3706.54855	0.96486
3704.49164	0.96543
3702.43473	0.96607
3700.37782	0.96586
3698.32091	0.96572
3696.26400	0.96626
3694.20710	0.96684
3692.15019	0.96692
3690.09328	0.96636
3688.03637	0.96613
3685.97946	0.96663
3683.92256	0.96689
3681.86565	0.96744
3679.80874	0.96838
3677.75183	0.96858
3675.69492	0.96753
3673.63801	0.96629
3671.58111	0.96565
3669.52420	0.96526
3667.46729	0.96568
3665.41038	0.96656
3663.35347	0.96703
3661.29657	0.96712
3659.23966	0.96689
3657.18275	0.96613
3655.12584	0.96554
3653.06893	0.96576
3651.01202	0.96569
3648.95512	0.96426
3646.89821	0.96315
3644.84130	0.96340
3642.78439	0.96359
3640.72748	0.96323
3638.67058	0.96339
3636.61367	0.96429
3634.55676	0.96478
3632.49985	0.96471
3630.44294	0.96450
3628.38603	0.96413
3626.32913	0.96405
3624.27222	0.96423
3622.21531	0.96445
3620.15840	0.96468
3618.10149	0.96437
3616.04459	0.96362
3613.98768	0.96297
3611.93077	0.96234
3609.87386	0.96223
3607.81695	0.96250
3605.76004	0.96244
3603.70314	0.96263
3601.64623	0.96305
3599.58932	0.96295
3597.53241	0.96255
3595.47550	0.96198
3593.41860	0.96120
3591.36169	0.96125
3589.30478	0.96187
3587.24787	0.96113
3585.19096	0.95977
3583.13405	0.95978
3581.07715	0.96031
3579.02024	0.96008
3576.96333	0.95934
3574.90642	0.95887
3572.84951	0.95854
3570.79261	0.95827
3568.73570	0.95854
3566.67879	0.95911
3564.62188	0.95904
3562.56497	0.95837
3560.50806	0.95742
3558.45116	0.95640
3556.39425	0.95582
3554.33734	0.95542
3552.28043	0.95461
3550.22352	0.95391
3548.16662	0.95370
3546.10971	0.95360
3544.05280	0.95358
3541.99589	0.95366
3539.93898	0.95390
3537.88207	0.95387
3535.82517	0.95328
3533.76826	0.95268
3531.71135	0.95223
3529.65444	0.95183
3527.59753	0.95167
3525.54063	0.95146
3523.48372	0.95079
3521.42681	0.94992
3519.36990	0.94930
3517.31299	0.94889
3515.25608	0.94827
3513.19918	0.94772
3511.14227	0.94781
3509.08536	0.94808
3507.02845	0.94805
3504.97154	0.94767
3502.91464	0.94656
3500.85773	0.94534
3498.80082	0.94475
3496.74391	0.94456
3494.68700	0.94508
3492.63009	0.94595
3490.57319	0.94615
3488.51628	0.94606
3486.45937	0.94598
3484.40246	0.94566
3482.34555	0.94559
3480.28865	0.94578
3478.23174	0.94577
3476.17483	0.94558
3474.11792	0.94523
3472.06101	0.94502
3470.00410	0.94526
3467.94720	0.94557
3465.89029	0.94548
3463.83338	0.94522
3461.77647	0.94536
3459.71956	0.94577
3457.66266	0.94617
3455.60575	0.94675
3453.54884	0.94716
3451.49193	0.94720
3449.43502	0.94754
3447.37811	0.94837
3445.32121	0.94879
3443.26430	0.94846
3441.20739	0.94828
3439.15048	0.94850
3437.09357	0.94875
3435.03667	0.94941
3432.97976	0.95021
3430.92285	0.95017
3428.86594	0.94968
3426.80903	0.94969
3424.75212	0.95018
3422.69522	0.95057
3420.63831	0.95069
3418.58140	0.95065
3416.52449	0.95085
3414.46758	0.95174
3412.41068	0.95262
3410.35377	0.95266
3408.29686	0.95256
3406.23995	0.95276
3404.18304	0.95285
3402.12613	0.95283
3400.06923	0.95302
3398.01232	0.95336
3395.95541	0.95359
3393.89850	0.95356
3391.84159	0.95338
3389.78469	0.95367
3387.72778	0.95471
3385.67087	0.95569
3383.61396	0.95575
3381.55705	0.95530
3379.50014	0.95503
3377.44324	0.95503
3375.38633	0.95514
3373.32942	0.95518
3371.27251	0.95526
3369.21560	0.95579
3367.15870	0.95620
3365.10179	0.95590
3363.04488	0.95560
3360.98797	0.95581
3358.93106	0.95606
3356.87415	0.95589
3354.81725	0.95573
3352.76034	0.95632
3350.70343	0.95725
3348.64652	0.95746
3346.58961	0.95716
3344.53271	0.95707
3342.47580	0.95701
3340.41889	0.95710
3338.36198	0.95756
3336.30507	0.95767
3334.24816	0.95764
3332.19126	0.95823
3330.13435	0.95881
3328.07744	0.95869
3326.02053	0.95839
3323.96362	0.95845
3321.90672	0.95883
3319.84981	0.95909
3317.79290	0.95881
3315.73599	0.95851
3313.67908	0.95885
3311.62217	0.95945
3309.56527	0.95975
3307.50836	0.95974
3305.45145	0.95979
3303.39454	0.95999
3301.33763	0.96001
3299.28073	0.95971
3297.22382	0.95966
3295.16691	0.96026
3293.11000	0.96053
3291.05309	0.96008
3288.99618	0.95970
3286.93928	0.95970
3284.88237	0.96005
3282.82546	0.96066
3280.76855	0.96136
3278.71164	0.96195
3276.65474	0.96198
3274.59783	0.96149
3272.54092	0.96102
3270.48401	0.96080
3268.42710	0.96052
3266.37019	0.96017
3264.31329	0.96034
3262.25638	0.96068
3260.19947	0.96068
3258.14256	0.96073
3256.08565	0.96066
3254.02875	0.96036
3251.97184	0.96022
3249.91493	0.96064
3247.85802	0.96163
3245.80111	0.96240
3243.74420	0.96249
3241.68730	0.96247
3239.63039	0.96252
3237.57348	0.96255
3235.51657	0.96261
3233.45966	0.96239
3231.40276	0.96221
3229.34585	0.96242
3227.28894	0.96256
3225.23203	0.96259
3223.17512	0.96257
3221.11821	0.96227
3219.06131	0.96189
3217.00440	0.96201
3214.94749	0.96265
3212.89058	0.96319
3210.83367	0.96309
3208.77677	0.96236
3206.71986	0.96160
3204.66295	0.96145
3202.60604	0.96213
3200.54913	0.96295
3198.49222	0.96301
3196.43532	0.96259
3194.37841	0.96238
3192.32150	0.96247
3190.26459	0.96252
3188.20768	0.96256
3186.15078	0.96271
3184.09387	0.96268
3182.03696	0.96249
3179.98005	0.96284
3177.92314	0.96373
3175.86623	0.96410
3173.80933	0.96377
3171.75242	0.96354
3169.69551	0.96350
3167.63860	0.96307
3165.58169	0.96237
3163.52479	0.96200
3161.46788	0.96206
3159.41097	0.96229
3157.35406	0.96248
3155.29715	0.96263
3153.24024	0.96264
3151.18334	0.96258
3149.12643	0.96277
3147.06952	0.96312
3145.01261	0.96353
3142.95570	0.96374
3140.89880	0.96327
3138.84189	0.96281
3136.78498	0.96312
3134.72807	0.96342
3132.67116	0.96349
3130.61425	0.96365
3128.55735	0.96351
3126.50044	0.96319
3124.44353	0.96318
3122.38662	0.96338
3120.32971	0.96373
3118.27281	0.96404
3116.21590	0.96390
3114.15899	0.96385
3112.10208	0.96424
3110.04517	0.96445
3107.98826	0.96415
3105.93136	0.96365
3103.87445	0.96347
3101.81754	0.96354
3099.76063	0.96339
3097.70372	0.96328
3095.64682	0.96350
3093.58991	0.96362
3091.53300	0.96336
3089.47609	0.96328
3087.41918	0.96361
3085.36227	0.96356
3083.30537	0.96325
3081.24846	0.96351
3079.19155	0.96382
3077.13464	0.96353
3075.07773	0.96338
3073.02083	0.96362
3070.96392	0.96365
3068.90701	0.96353
3066.85010	0.96349
3064.79319	0.96344
3062.73628	0.96350
3060.67938	0.96375
3058.62247	0.96386
3056.56556	0.96357
3054.50865	0.96311
3052.45174	0.96275
3050.39484	0.96245
3048.33793	0.96234
3046.28102	0.96246
3044.22411	0.96260
3042.16720	0.96291
3040.11029	0.96332
3038.05339	0.96314
3035.99648	0.96237
3033.93957	0.96201
3031.88266	0.96246
3029.82575	0.96263
3027.76885	0.96205
3025.71194	0.96145
3023.65503	0.96104
3021.59812	0.96063
3019.54121	0.96028
3017.48430	0.96011
3015.42740	0.96010
3013.37049	0.96034
3011.31358	0.96072
3009.25667	0.96075
3007.19976	0.96030
3005.14286	0.95983
3003.08595	0.95976
3001.02904	0.95987
2998.97213	0.95963
2996.91522	0.95913
2994.85831	0.95906
2992.80141	0.95945
2990.74450	0.95953
2988.68759	0.95901
2986.63068	0.95832
2984.57377	0.95792
2982.51687	0.95787
2980.45996	0.95790
2978.40305	0.95770
2976.34614	0.95740
2974.28923	0.95717
2972.23232	0.95663
2970.17542	0.95579
2968.11851	0.95510
2966.06160	0.95441
2964.00469	0.95353
2961.94778	0.95293
2959.89088	0.95282
2957.83397	0.95279
2955.77706	0.95260
2953.72015	0.95236
2951.66324	0.95215
2949.60633	0.95223
2947.54943	0.95260
2945.49252	0.95251
2943.43561	0.95153
2941.37870	0.95056
2939.32179	0.95062
2937.26489	0.95138
2935.20798	0.95204
2933.15107	0.95270
2931.09416	0.95338
2929.03725	0.95391
2926.98034	0.95441
2924.92344	0.95463
2922.86653	0.95459
2920.80962	0.95479
2918.75271	0.95490
2916.69580	0.95435
2914.63890	0.95383
2912.58199	0.95405
2910.52508	0.95429
2908.46817	0.95382
2906.41126	0.95317
2904.35435	0.95300
2902.29745	0.95309
2900.24054	0.95318
2898.18363	0.95344
2896.12672	0.95351
2894.06981	0.95309
2892.01291	0.95273
2889.95600	0.95270
2887.89909	0.95283
2885.84218	0.95302
2883.78527	0.95301
2881.72836	0.95292
2879.67146	0.95313
2877.61455	0.95347
2875.55764	0.95383
2873.50073	0.95425
2871.44382	0.95435
2869.38692	0.95412
2867.33001	0.95409
2865.27310	0.95446
2863.21619	0.95517
2861.15928	0.95584
2859.10237	0.95615
2857.04547	0.95655
2854.98856	0.95718
2852.93165	0.95765
2850.87474	0.95799
2848.81783	0.95866
2846.76093	0.95963
2844.70402	0.96020
2842.64711	0.96017
2840.59020	0.95997
2838.53329	0.96014
2836.47638	0.96059
2834.41948	0.96064
2832.36257	0.96050
2830.30566	0.96076
2828.24875	0.96136
2826.19184	0.96186
2824.13494	0.96197
2822.07803	0.96205
2820.02112	0.96242
2817.96421	0.96250
2815.90730	0.96207
2813.85039	0.96160
2811.79349	0.96137
2809.73658	0.96152
2807.67967	0.96180
2805.62276	0.96194
2803.56585	0.96203
2801.50895	0.96208
2799.45204	0.96206
2797.39513	0.96219
2795.33822	0.96232
2793.28131	0.96240
2791.22440	0.96250
2789.16750	0.96250
2787.11059	0.96250
2785.05368	0.96279
2782.99677	0.96329
2780.93986	0.96360
2778.88296	0.96348
2776.82605	0.96323
2774.76914	0.96309
2772.71223	0.96289
2770.65532	0.96275
2768.59841	0.96309
2766.54151	0.96355
2764.48460	0.96335
2762.42769	0.96275
2760.37078	0.96237
2758.31387	0.96237
2756.25697	0.96268
2754.20006	0.96309
2752.14315	0.96338
2750.08624	0.96357
2748.02933	0.96380
2745.97242	0.96379
2743.91552	0.96340
2741.85861	0.96300
2739.80170	0.96284
2737.74479	0.96297
2735.68788	0.96316
2733.63098	0.96329
2731.57407	0.96336
2729.51716	0.96333
2727.46025	0.96331
2725.40334	0.96328
2723.34643	0.96321
2721.28953	0.96314
2719.23262	0.96308
2717.17571	0.96307
2715.11880	0.96321
2713.06189	0.96340
2711.00499	0.96348
2708.94808	0.96361
2706.89117	0.96374
2704.83426	0.96369
2702.77735	0.96358
2700.72044	0.96331
2698.66354	0.96308
2696.60663	0.96316
2694.54972	0.96334
2692.49281	0.96345
2690.43590	0.96352
2688.37900	0.96363
2686.32209	0.96386
2684.26518	0.96407
2682.20827	0.96413
2680.15136	0.96415
2678.09445	0.96413
2676.03755	0.96400
2673.98064	0.96382
2671.92373	0.96355
2669.86682	0.96312
2667.80991	0.96286
2665.75301	0.96325
2663.69610	0.96394
2661.63919	0.96407
2659.58228	0.96355
2657.52537	0.96314
2655.46846	0.96326
2653.41156	0.96359
2651.35465	0.96364
2649.29774	0.96338
2647.24083	0.96339
2645.18392	0.96380
2643.12702	0.96414
2641.07011	0.96447
2639.01320	0.96471
2636.95629	0.96440
2634.89938	0.96396
2632.84247	0.96382
2630.78557	0.96359
2628.72866	0.96350
2626.67175	0.96395
2624.61484	0.96451
2622.55793	0.96488
2620.50103	0.96509
2618.44412	0.96520
2616.38721	0.96532
2614.33030	0.96523
2612.27339	0.96478
2610.21648	0.96458
2608.15958	0.96486
2606.10267	0.96520
2604.04576	0.96535
2601.98885	0.96556
2599.93194	0.96601
2597.87504	0.96621
2595.81813	0.96594
2593.76122	0.96544
2591.70431	0.96475
2589.64740	0.96460
2587.59049	0.96499
2585.53359	0.96516
2583.47668	0.96529
2581.41977	0.96554
2579.36286	0.96579
2577.30595	0.96582
2575.24905	0.96573
2573.19214	0.96593
2571.13523	0.96608
2569.07832	0.96617
2567.02141	0.96653
2564.96450	0.96682
2562.90760	0.96683
2560.85069	0.96686
2558.79378	0.96709
2556.73687	0.96711
2554.67996	0.96681
2552.62306	0.96659
2550.56615	0.96652
2548.50924	0.96680
2546.45233	0.96721
2544.39542	0.96718
2542.33851	0.96707
2540.28161	0.96710
2538.22470	0.96713
2536.16779	0.96732
2534.11088	0.96750
2532.05397	0.96728
2529.99707	0.96682
2527.94016	0.96670
2525.88325	0.96696
2523.82634	0.96732
2521.76943	0.96725
2519.71252	0.96662
2517.65562	0.96617
2515.59871	0.96645
2513.54180	0.96715
2511.48489	0.96759
2509.42798	0.96768
2507.37108	0.96745
2505.31417	0.96692
2503.25726	0.96681
2501.20035	0.96755
2499.14344	0.96823
2497.08653	0.96790
2495.02963	0.96738
2492.97272	0.96762
2490.91581	0.96807
2488.85890	0.96825
2486.80199	0.96790
2484.74509	0.96714
2482.68818	0.96689
2480.63127	0.96709
2478.57436	0.96710
2476.51745	0.96717
2474.46054	0.96748
2472.40364	0.96763
2470.34673	0.96752
2468.28982	0.96738
2466.23291	0.96738
2464.17600	0.96763
2462.11910	0.96754
2460.06219	0.96699
2458.00528	0.96687
2455.94837	0.96703
2453.89146	0.96705
2451.83455	0.96751
2449.77765	0.96835
2447.72074	0.96845
2445.66383	0.96783
2443.60692	0.96758
2441.55001	0.96774
2439.49311	0.96793
2437.43620	0.96839
2435.37929	0.96887
2433.32238	0.96875
2431.26547	0.96832
2429.20856	0.96805
2427.15166	0.96786
2425.09475	0.96758
2423.03784	0.96715
2420.98093	0.96685
2418.92402	0.96655
2416.86712	0.96629
2414.81021	0.96637
2412.75330	0.96635
2410.69639	0.96626
2408.63948	0.96673
2406.58257	0.96798
2404.52567	0.96904
2402.46876	0.96910
2400.41185	0.96857
2398.35494	0.96792
2396.29803	0.96731
2394.24113	0.96696
2392.18422	0.96708
2390.12731	0.96748
2388.07040	0.96778
2386.01349	0.96770
2383.95658	0.96726
2381.89968	0.96710
2379.84277	0.96750
2377.78586	0.96796
2375.72895	0.96805
2373.67204	0.96773
2371.61514	0.96738
2369.55823	0.96761
2367.50132	0.96826
2365.44441	0.96846
2363.38750	0.96817
2361.33059	0.96780
2359.27369	0.96737
2357.21678	0.96710
2355.15987	0.96703
2353.10296	0.96710
2351.04605	0.96753
2348.98915	0.96793
2346.93224	0.96794
2344.87533	0.96824
2342.81842	0.96871
2340.76151	0.96830
2338.70460	0.96791
2336.64770	0.96827
2334.59079	0.96891
2332.53388	0.96910
2330.47697	0.96847
2328.42006	0.96694
2326.36316	0.96537
2324.30625	0.96518
2322.24934	0.96600
2320.19243	0.96656
2318.13552	0.96646
2316.07861	0.96653
2314.02171	0.96713
2311.96480	0.96737
2309.90789	0.96711
2307.85098	0.96692
2305.79407	0.96686
2303.73717	0.96656
2301.68026	0.96647
2299.62335	0.96736
2297.56644	0.96845
2295.50953	0.96856
2293.45262	0.96812
2291.39572	0.96823
2289.33881	0.96834
2287.28190	0.96764
2285.22499	0.96685
2283.16808	0.96669
2281.11117	0.96714
2279.05427	0.96772
2276.99736	0.96784
2274.94045	0.96742
2272.88354	0.96711
2270.82663	0.96761
2268.76973	0.96847
2266.71282	0.96901
2264.65591	0.96927
2262.59900	0.96965
2260.54209	0.96993
2258.48518	0.96913
2256.42828	0.96808
2254.37137	0.96848
2252.31446	0.96981
2250.25755	0.97070
2248.20064	0.97044
2246.14374	0.96957
2244.08683	0.97001
2242.02992	0.97141
2239.97301	0.97156
2237.91610	0.97084
2235.85919	0.97099
2233.80229	0.97161
2231.74538	0.97160
2229.68847	0.97143
2227.63156	0.97254
2225.57465	0.97406
2223.51775	0.97335
2221.46084	0.97138
2219.40393	0.97068
2217.34702	0.97095
2215.29011	0.97080
2213.23320	0.97022
2211.17630	0.97049
2209.11939	0.97106
2207.06248	0.96992
2205.00557	0.96761
2202.94866	0.96684
2200.89176	0.96874
2198.83485	0.97122
2196.77794	0.97232
2194.72103	0.97267
2192.66412	0.97219
2190.60721	0.97122
2188.55031	0.97147
2186.49340	0.97160
2184.43649	0.96997
2182.37958	0.96912
2180.32267	0.97002
2178.26577	0.97079
2176.20886	0.97209
2174.15195	0.97309
2172.09504	0.97186
2170.03813	0.97079
2167.98122	0.97161
2165.92432	0.97167
2163.86741	0.96999
2161.81050	0.96983
2159.75359	0.97201
2157.69668	0.97340
2155.63978	0.97347
2153.58287	0.97278
2151.52596	0.97089
2149.46905	0.96977
2147.41214	0.96933
2145.35523	0.96772
2143.29833	0.96758
2141.24142	0.96959
2139.18451	0.97012
2137.12760	0.96950
2135.07069	0.97006
2133.01379	0.97114
2130.95688	0.97142
2128.89997	0.97028
2126.84306	0.96881
2124.78615	0.96865
2122.72924	0.96970
2120.67234	0.97090
2118.61543	0.97027
2116.55852	0.96798
2114.50161	0.96714
2112.44470	0.96788
2110.38780	0.96765
2108.33089	0.96711
2106.27398	0.96798
2104.21707	0.96908
2102.16016	0.96937
2100.10325	0.96962
2098.04635	0.96980
2095.98944	0.96954
2093.93253	0.96974
2091.87562	0.97060
2089.81871	0.97146
2087.76181	0.97144
2085.70490	0.97046
2083.64799	0.96981
2081.59108	0.96976
2079.53417	0.97001
2077.47726	0.97059
2075.42036	0.97165
2073.36345	0.97270
2071.30654	0.97273
2069.24963	0.97226
2067.19272	0.97219
2065.13582	0.97265
2063.07891	0.97316
2061.02200	0.97368
2058.96509	0.97446
2056.90818	0.97480
2054.85127	0.97348
2052.79437	0.97127
2050.73746	0.97061
2048.68055	0.97086
2046.62364	0.97030
2044.56673	0.97010
2042.50983	0.97126
2040.45292	0.97286
2038.39601	0.97397
2036.33910	0.97503
2034.28219	0.97584
2032.22528	0.97548
2030.16838	0.97429
2028.11147	0.97385
2026.05456	0.97522
2023.99765	0.97690
2021.94074	0.97716
2019.88384	0.97626
2017.82693	0.97553
2015.77002	0.97571
2013.71311	0.97638
2011.65620	0.97672
2009.59929	0.97696
2007.54239	0.97813
2005.48548	0.97820
2003.42857	0.97592
2001.37166	0.97405
1999.31475	0.97357
1997.25785	0.97375
1995.20094	0.97370
1993.14403	0.97341
1991.08712	0.97457
1989.03021	0.97717
1986.97330	0.97884
1984.91640	0.97880
1982.85949	0.97832
1980.80258	0.97790
1978.74567	0.97738
1976.68876	0.97692
1974.63186	0.97683
1972.57495	0.97573
1970.51804	0.97429
1968.46113	0.97496
1966.40422	0.97617
1964.34731	0.97633
1962.29041	0.97577
1960.23350	0.97511
1958.17659	0.97444
1956.11968	0.97357
1954.06277	0.97392
1952.00587	0.97558
1949.94896	0.97658
1947.89205	0.97658
1945.83514	0.97646
1943.77823	0.97620
1941.72132	0.97622
1939.66442	0.97694
1937.60751	0.97693
1935.55060	0.97574
1933.49369	0.97477
1931.43678	0.97491
1929.37988	0.97569
1927.32297	0.97563
1925.26606	0.97538
1923.20915	0.97576
1921.15224	0.97597
1919.09533	0.97636
1917.03843	0.97650
1914.98152	0.97597
1912.92461	0.97530
1910.86770	0.97461
1908.81079	0.97418
1906.75389	0.97390
1904.69698	0.97379
1902.64007	0.97454
1900.58316	0.97569
1898.52625	0.97576
1896.46934	0.97516
1894.41244	0.97536
1892.35553	0.97614
1890.29862	0.97644
1888.24171	0.97618
1886.18480	0.97595
1884.12790	0.97616
1882.07099	0.97649
1880.01408	0.97671
1877.95717	0.97673
1875.90026	0.97635
1873.84335	0.97592
1871.78645	0.97606
1869.72954	0.97682
1867.67263	0.97743
1865.61572	0.97734
1863.55881	0.97681
1861.50191	0.97633
1859.44500	0.97631
1857.38809	0.97687
1855.33118	0.97761
1853.27427	0.97806
1851.21736	0.97821
1849.16046	0.97838
1847.10355	0.97847
1845.04664	0.97811
1842.98973	0.97748
1840.93282	0.97694
1838.87592	0.97683
1836.81901	0.97712
1834.76210	0.97746
1832.70519	0.97749
1830.64828	0.97701
1828.59137	0.97641
1826.53447	0.97655
1824.47756	0.97702
1822.42065	0.97729
1820.36374	0.97745
1818.30683	0.97721
1816.24993	0.97674
1814.19302	0.97643
1812.13611	0.97616
1810.07920	0.97577
1808.02229	0.97566
1805.96538	0.97560
1803.90848	0.97514
1801.85157	0.97437
1799.79466	0.97352
1797.73775	0.97268
1795.68084	0.97207
1793.62394	0.97156
1791.56703	0.97052
1789.51012	0.96917
1787.45321	0.96783
1785.39630	0.96641
1783.33939	0.96458
1781.28249	0.96236
1779.22558	0.95930
1777.16867	0.95525
1775.11176	0.95018
1773.05485	0.94244
1770.99795	0.93126
1768.94104	0.91800
1766.88413	0.90198
1764.82722	0.88436
1762.77031	0.86355
1760.71340	0.83908
1758.65650	0.81707
1756.59959	0.79651
1754.54268	0.77854
1752.48577	0.76330
1750.42886	0.74627
1748.37196	0.72923
1746.31505	0.71586
1744.25814	0.70532
1742.20123	0.69690
1740.14432	0.69027
1738.08741	0.68722
1736.03051	0.68904
1733.97360	0.69416
1731.91669	0.70193
1729.85978	0.71237
1727.80287	0.72510
1725.74597	0.73917
1723.68906	0.75481
1721.63215	0.77046
1719.57524	0.78589
1717.51833	0.80405
1715.46142	0.82258
1713.40452	0.83764
1711.34761	0.85087
1709.29070	0.86293
1707.23379	0.87383
1705.17688	0.88368
1703.11998	0.89150
1701.06307	0.89832
1699.00616	0.90485
1696.94925	0.90988
1694.89234	0.91461
1692.83543	0.91892
1690.77853	0.92245
1688.72162	0.92560
1686.66471	0.92858
1684.60780	0.93182
1682.55089	0.93428
1680.49399	0.93581
1678.43708	0.93720
1676.38017	0.93850
1674.32326	0.93971
1672.26635	0.94068
1670.20944	0.94133
1668.15254	0.94196
1666.09563	0.94283
1664.03872	0.94340
1661.98181	0.94367
1659.92490	0.94413
1657.86800	0.94463
1655.81109	0.94495
1653.75418	0.94490
1651.69727	0.94505
1649.64036	0.94595
1647.58345	0.94643
1645.52655	0.94596
1643.46964	0.94568
1641.41273	0.94584
1639.35582	0.94606
1637.29891	0.94625
1635.24201	0.94658
1633.18510	0.94727
1631.12819	0.94821
1629.07128	0.94914
1627.01437	0.94998
1624.95746	0.95101
1622.90056	0.95220
1620.84365	0.95305
1618.78674	0.95366
1616.72983	0.95427
1614.67292	0.95493
1612.61602	0.95583
1610.55911	0.95669
1608.50220	0.95738
1606.44529	0.95818
1604.38838	0.95895
1602.33147	0.95928
1600.27457	0.95944
1598.21766	0.95981
1596.16075	0.96021
1594.10384	0.96055
1592.04693	0.96094
1589.99003	0.96135
1587.93312	0.96179
1585.87621	0.96224
1583.81930	0.96240
1581.76239	0.96260
1579.70548	0.96311
1577.64858	0.96335
1575.59167	0.96301
1573.53476	0.96304
1571.47785	0.96356
1569.42094	0.96376
1567.36404	0.96355
1565.30713	0.96357
1563.25022	0.96397
1561.19331	0.96448
1559.13640	0.96471
1557.07949	0.96445
1555.02259	0.96427
1552.96568	0.96438
1550.90877	0.96469
1548.85186	0.96481
1546.79495	0.96479
1544.73805	0.96494
1542.68114	0.96504
1540.62423	0.96495
1538.56732	0.96473
1536.51041	0.96487
1534.45350	0.96541
1532.39660	0.96583
1530.33969	0.96596
1528.28278	0.96619
1526.22587	0.96648
1524.16896	0.96666
1522.11206	0.96681
1520.05515	0.96689
1517.99824	0.96688
1515.94133	0.96690
1513.88442	0.96722
1511.82751	0.96772
1509.77061	0.96813
1507.71370	0.96802
1505.65679	0.96740
1503.59988	0.96752
1501.54297	0.96778
1499.48607	0.96764
1497.42916	0.96765
1495.37225	0.96792
1493.31534	0.96780
1491.25843	0.96741
1489.20152	0.96727
1487.14462	0.96743
1485.08771	0.96731
1483.03080	0.96689
1480.97389	0.96638
1478.91698	0.96601
1476.86008	0.96553
1474.80317	0.96432
1472.74626	0.96240
1470.68935	0.96066
1468.63244	0.95923
1466.57553	0.95735
1464.51863	0.95466
1462.46172	0.95223
1460.40481	0.95050
1458.34790	0.94827
1456.29099	0.94502
1454.23409	0.94264
1452.17718	0.94105
1450.12027	0.93965
1448.06336	0.93787
1446.00645	0.93554
1443.94954	0.93337
1441.89264	0.93137
1439.83573	0.92943
1437.77882	0.92712
1435.72191	0.92434
1433.66500	0.92287
1431.60810	0.92265
1429.55119	0.92309
1427.49428	0.92447
1425.43737	0.92661
1423.38046	0.92867
1421.32355	0.93036
1419.26665	0.93240
1417.20974	0.93445
1415.15283	0.93618
1413.09592	0.93783
1411.03901	0.93892
1408.98211	0.93948
1406.92520	0.94020
1404.86829	0.94104
1402.81138	0.94135
1400.75447	0.94073
1398.69756	0.93907
1396.64066	0.93646
1394.58375	0.93214
1392.52684	0.92622
1390.46993	0.91952
1388.41302	0.91093
1386.35612	0.89974
1384.29921	0.88800
1382.24230	0.87652
1380.18539	0.86487
1378.12848	0.85324
1376.07157	0.84182
1374.01467	0.83035
1371.95776	0.82056
1369.90085	0.81401
1367.84394	0.81133
1365.78703	0.81420
1363.73013	0.82374
1361.67322	0.83996
1359.61631	0.85934
1357.55940	0.87852
1355.50249	0.89589
1353.44558	0.90975
1351.38868	0.91968
1349.33177	0.92648
1347.27486	0.93099
1345.21795	0.93408
1343.16104	0.93634
1341.10414	0.93818
1339.04723	0.93988
1336.99032	0.94114
1334.93341	0.94145
1332.87650	0.94111
1330.81959	0.94082
1328.76269	0.94057
1326.70578	0.93999
1324.64887	0.93931
1322.59196	0.93889
1320.53505	0.93890
1318.47815	0.93937
1316.42124	0.93988
1314.36433	0.94032
1312.30742	0.94084
1310.25051	0.94135
1308.19360	0.94178
1306.13670	0.94200
1304.07979	0.94179
1302.02288	0.94127
1299.96597	0.94054
1297.90906	0.93939
1295.85216	0.93769
1293.79525	0.93563
1291.73834	0.93343
1289.68143	0.93083
1287.62452	0.92767
1285.56761	0.92426
1283.51071	0.92065
1281.45380	0.91619
1279.39689	0.91058
1277.33998	0.90421
1275.28307	0.89736
1273.22617	0.88973
1271.16926	0.88140
1269.11235	0.87287
1267.05544	0.86390
1264.99853	0.85378
1262.94162	0.84239
1260.88472	0.82998
1258.82781	0.81682
1256.77090	0.80323
1254.71399	0.78919
1252.65708	0.77452
1250.60018	0.75919
1248.54327	0.74326
1246.48636	0.72682
1244.42945	0.71010
1242.37254	0.69342
1240.31563	0.67689
1238.25873	0.66053
1236.20182	0.64460
1234.14491	0.62932
1232.08800	0.61518
1230.03109	0.60294
1227.97419	0.59303
1225.91728	0.58527
1223.86037	0.57967
1221.80346	0.57635
1219.74655	0.57525
1217.68964	0.57666
1215.63274	0.58111
1213.57583	0.58920
1211.51892	0.60153
1209.46201	0.61847
1207.40510	0.64009
1205.34820	0.66596
1203.29129	0.69477
1201.23438	0.72438
1199.17747	0.75267
1197.12056	0.77819
1195.06365	0.80023
1193.00675	0.81839
1190.94984	0.83240
1188.89293	0.84244
1186.83602	0.84909
1184.77911	0.85273
1182.72221	0.85364
1180.66530	0.85281
1178.60839	0.85122
1176.55148	0.84902
1174.49457	0.84608
1172.43766	0.84297
1170.38076	0.84017
1168.32385	0.83765
1166.26694	0.83603
1164.21003	0.83591
1162.15312	0.83683
1160.09622	0.83851
1158.03931	0.84123
1155.98240	0.84476
1153.92549	0.84848
1151.86858	0.85233
1149.81167	0.85627
1147.75477	0.85963
1145.69786	0.86195
1143.64095	0.86287
1141.58404	0.86225
1139.52713	0.86049
1137.47023	0.85779
1135.41332	0.85419
1133.35641	0.85005
1131.29950	0.84577
1129.24259	0.84194
1127.18568	0.83890
1125.12878	0.83629
1123.07187	0.83410
1121.01496	0.83310
1118.95805	0.83314
1116.90114	0.83324
1114.84424	0.83308
1112.78733	0.83283
1110.73042	0.83231
1108.67351	0.83119
1106.61660	0.82945
1104.55969	0.82704
1102.50279	0.82383
1100.44588	0.81982
1098.38897	0.81513
1096.33206	0.80964
1094.27515	0.80326
1092.21825	0.79594
1090.16134	0.78758
1088.10443	0.77865
1086.04752	0.77002
1083.99061	0.76156
1081.93370	0.75249
1079.87680	0.74296
1077.81989	0.73340
1075.76298	0.72414
1073.70607	0.71548
1071.64916	0.70732
1069.59226	0.69938
1067.53535	0.69156
1065.47844	0.68392
1063.42153	0.67614
1061.36462	0.66782
1059.30771	0.65893
1057.25081	0.64951
1055.19390	0.63966
1053.13699	0.62954
1051.08008	0.61968
1049.02317	0.61048
1046.96627	0.60181
1044.90936	0.59367
1042.85245	0.58622
1040.79554	0.57918
1038.73863	0.57234
1036.68172	0.56618
1034.62482	0.56120
1032.56791	0.55820
1030.51100	0.55841
1028.45409	0.56229
1026.39718	0.56944
1024.34028	0.57926
1022.28337	0.59112
1020.22646	0.60461
1018.16955	0.61915
1016.11264	0.63367
1014.05573	0.64777
1011.99883	0.66186
1009.94192	0.67578
1007.88501	0.68912
1005.82810	0.70183
1003.77119	0.71389
1001.71429	0.72485
999.65738	0.73460
997.60047	0.74359
995.54356	0.75172
993.48665	0.75863
991.42974	0.76473
989.37284	0.77051
987.31593	0.77588
985.25902	0.78077
983.20211	0.78550
981.14520	0.79042
979.08830	0.79570
977.03139	0.80132
974.97448	0.80752
972.91757	0.81452
970.86066	0.82189
968.80375	0.82884
966.74685	0.83493
964.68994	0.83999
962.63303	0.84389
960.57612	0.84670
958.51921	0.84886
956.46231	0.85081
954.40540	0.85251
952.34849	0.85412
950.29158	0.85628
948.23467	0.85921
946.17776	0.86228
944.12086	0.86484
942.06395	0.86712
940.00704	0.86934
937.95013	0.87106
935.89322	0.87204
933.83632	0.87238
931.77941	0.87196
929.72250	0.87087
927.66559	0.86954
925.60868	0.86790
923.55177	0.86569
921.49487	0.86316
919.43796	0.86081
917.38105	0.85893
915.32414	0.85743
913.26723	0.85590
911.21033	0.85375
909.15342	0.85088
907.09651	0.84800
905.03960	0.84574
902.98269	0.84416
900.92578	0.84363
898.86888	0.84465
896.81197	0.84707
894.75506	0.85043
892.69815	0.85433
890.64124	0.85821
888.58434	0.86175
886.52743	0.86526
884.47052	0.86874
882.41361	0.87183
880.35670	0.87466
878.29979	0.87774
876.24289	0.88129
874.18598	0.88511
872.12907	0.88921
870.07216	0.89327
868.01525	0.89744
865.95835	0.90214
863.90144	0.90607
861.84453	0.90825
859.78762	0.90988
857.73071	0.91149
855.67380	0.91278
853.61690	0.91384
851.55999	0.91436
849.50308	0.91408
847.44617	0.91340
845.38926	0.91219
843.33236	0.91063
841.27545	0.90958
839.21854	0.90902
837.16163	0.90910
835.10472	0.91037
833.04781	0.91264
830.99091	0.91524
828.93400	0.91775
826.87709	0.92010
824.82018	0.92244
822.76327	0.92500
820.70637	0.92734
818.64946	0.92916
816.59255	0.93066
814.53564	0.93183
812.47873	0.93245
810.42182	0.93251
808.36492	0.93250
806.30801	0.93279
804.25110	0.93338
802.19419	0.93393
800.13728	0.93450
798.08038	0.93548
796.02347	0.93615
793.96656	0.93626
791.90965	0.93659
789.85274	0.93747
787.79583	0.93865
785.73893	0.93908
783.68202	0.93836
781.62511	0.93810
779.56820	0.93888
777.51129	0.93931
775.45439	0.93922
773.39748	0.93929
771.34057	0.93924
769.28366	0.93922
767.22675	0.93933
765.16984	0.93955
763.11294	0.93999
761.05603	0.94056
758.99912	0.94134
756.94221	0.94194
754.88530	0.94172
752.82839	0.94134
750.77149	0.94148
748.71458	0.94198
746.65767	0.94288
744.60076	0.94348
742.54385	0.94284
740.48695	0.94196
738.43004	0.94167
736.37313	0.94133
734.31622	0.94093
732.25931	0.94075
730.20240	0.94012
728.14550	0.93900
726.08859	0.93781
724.03168	0.93663
721.97477	0.93583
719.91786	0.93522
717.86096	0.93471
715.80405	0.93458
713.74714	0.93417
711.69023	0.93328
709.63332	0.93269
707.57641	0.93213
705.51951	0.93125
703.46260	0.93057
701.40569	0.93002
699.34878	0.92937
697.29187	0.92823
695.23497	0.92618
693.17806	0.92407
691.12115	0.92234
689.06424	0.92075
687.00733	0.92025
684.95042	0.92100
682.89352	0.92162
680.83661	0.92184
678.77970	0.92233
676.72279	0.92300
674.66588	0.92338
672.60898	0.92352
670.55207	0.92344
668.49516	0.92310
666.43825	0.92301
664.38134	0.92270
662.32443	0.92160
660.26753	0.91968
658.21062	0.91757
656.15371	0.91628
654.09680	0.91561
652.03989	0.91428
649.98299	0.91197
647.92608	0.90950
645.86917	0.90759
643.81226	0.90605
641.75535	0.90464
639.69844	0.90357
637.64154	0.90268
635.58463	0.90136
633.52772	0.89956
631.47081	0.89729
629.41390	0.89456
627.35700	0.89231
625.30009	0.89067
623.24318	0.88915
621.18627	0.88733
619.12936	0.88396
617.07245	0.87968
615.01555	0.87561
612.95864	0.87027
610.90173	0.86253
608.84482	0.85299
606.78791	0.84314
604.73101	0.83545
602.67410	0.83154
600.61719	0.83208
598.56028	0.83775
596.50337	0.84679
594.44646	0.85594
592.38956	0.86407
590.33265	0.87160
588.27574	0.87832
586.21883	0.88314
584.16192	0.88603
582.10502	0.88951
580.04811	0.89348
577.99120	0.89488
575.93429	0.89412
573.87738	0.89356
571.82047	0.89370
569.76357	0.89287
567.70666	0.89017
565.64975	0.88640
563.59284	0.88325
561.53593	0.88205
559.47903	0.88142
557.42212	0.88114
555.36521	0.88269
553.30830	0.88544
551.25139	0.88798
549.19448	0.88969
547.13758	0.89038
545.08067	0.89084
543.02376	0.89180
540.96685	0.89298
538.90994	0.89415
536.85304	0.89545
534.79613	0.89703
532.73922	0.89782
530.68231	0.89688
528.62540	0.89515
526.56849	0.89313
524.51159	0.89156
522.45468	0.89103
520.39777	0.89044
518.34086	0.88961
516.28395	0.88884
514.22705	0.88811
512.17014	0.88772
510.11323	0.88763
508.05632	0.88737
505.99941	0.88620
503.94250	0.88431
501.88560	0.88237
499.82869	0.88008
497.77178	0.87769
495.71487	0.87689
493.65796	0.87702
491.60106	0.87560
489.54415	0.87415
487.48724	0.87489
485.43033	0.87654
483.37342	0.87702
481.31651	0.87523
479.25961	0.87258
477.20270	0.87176
475.14579	0.87276
473.08888	0.87207
471.03197	0.86755
468.97507	0.86287
466.91816	0.86105
464.86125	0.86125
462.80434	0.86165
460.74743	0.86115
458.69052	0.85974
456.63362	0.85819
454.57671	0.85662
452.51980	0.85587
450.46289	0.85722
448.40598	0.85893
446.34908	0.85854
444.29217	0.85678
442.23526	0.85707
440.17835	0.86023
438.12144	0.86462
436.06453	0.86840
434.00763	0.86879
431.95072	0.86724
429.89381	0.86790
427.83690	0.87175
425.77999	0.87684
423.72309	0.88065
421.66618	0.88137
419.60927	0.87949
417.55236	0.87474
415.49545	0.86880
413.43854	0.86595
411.38164	0.86786
409.32473	0.87199
407.26782	0.87457
405.21091	0.87407
403.15400	0.87085
401.09710	0.86717
399.04019	0.86550
