3996.57260	0.97317
3994.51569	0.97358
3992.45878	0.97375
3990.40188	0.97376
3988.34497	0.97343
3986.28806	0.97270
3984.23115	0.97243
3982.17424	0.97305
3980.11733	0.97360
3978.06043	0.97357
3976.00352	0.97353
3973.94661	0.97329
3971.88970	0.97308
3969.83279	0.97340
3967.77589	0.97378
3965.71898	0.97404
3963.66207	0.97428
3961.60516	0.97450
3959.54825	0.97451
3957.49134	0.97391
3955.43444	0.97324
3953.37753	0.97307
3951.32062	0.97325
3949.26371	0.97357
3947.20680	0.97381
3945.14990	0.97378
3943.09299	0.97352
3941.03608	0.97327
3938.97917	0.97339
3936.92226	0.97383
3934.86535	0.97399
3932.80845	0.97384
3930.75154	0.97354
3928.69463	0.97276
3926.63772	0.97190
3924.58081	0.97215
3922.52391	0.97334
3920.46700	0.97390
3918.41009	0.97334
3916.35318	0.97256
3914.29627	0.97243
3912.23936	0.97274
3910.18246	0.97295
3908.12555	0.97313
3906.06864	0.97344
3904.01173	0.97354
3901.95482	0.97351
3899.89792	0.97367
3897.84101	0.97337
3895.78410	0.97257
3893.72719	0.97206
3891.67028	0.97234
3889.61337	0.97297
3887.55647	0.97325
3885.49956	0.97304
3883.44265	0.97290
3881.38574	0.97279
3879.32883	0.97233
3877.27193	0.97217
3875.21502	0.97259
3873.15811	0.97329
3871.10120	0.97410
3869.04429	0.97456
3866.98738	0.97465
3864.93048	0.97471
3862.87357	0.97418
3860.81666	0.97314
3858.75975	0.97263
3856.70284	0.97307
3854.64594	0.97445
3852.58903	0.97506
3850.53212	0.97416
3848.47521	0.97361
3846.41830	0.97358
3844.36139	0.97386
3842.30449	0.97439
3840.24758	0.97494
3838.19067	0.97504
3836.13376	0.97449
3834.07685	0.97358
3832.01995	0.97262
3829.96304	0.97242
3827.90613	0.97308
3825.84922	0.97371
3823.79231	0.97370
3821.73540	0.97329
3819.67850	0.97306
3817.62159	0.97318
3815.56468	0.97373
3813.50777	0.97459
3811.45086	0.97473
3809.39396	0.97395
3807.33705	0.97362
3805.28014	0.97442
3803.22323	0.97503
3801.16632	0.97472
3799.10941	0.97372
3797.05251	0.97304
3794.99560	0.97323
3792.93869	0.97366
3790.88178	0.97384
3788.82487	0.97435
3786.76796	0.97511
3784.71106	0.97544
3782.65415	0.97517
3780.59724	0.97453
3778.54033	0.97408
3776.48342	0.97388
3774.42652	0.97333
3772.36961	0.97255
3770.31270	0.97237
3768.25579	0.97279
3766.19888	0.97302
3764.14197	0.97318
3762.08507	0.97341
3760.02816	0.97362
3757.97125	0.97383
3755.91434	0.97412
3753.85743	0.97441
3751.80053	0.97429
3749.74362	0.97437
3747.68671	0.97535
3745.62980	0.97579
3743.57289	0.97503
3741.51598	0.97467
3739.45908	0.97465
3737.40217	0.97428
3735.34526	0.97406
3733.28835	0.97445
3731.23144	0.97467
3729.17454	0.97446
3727.11763	0.97407
3725.06072	0.97361
3723.00381	0.97332
3720.94690	0.97340
3718.88999	0.97347
3716.83309	0.97335
3714.77618	0.97390
3712.71927	0.97461
3710.66236	0.97370
3708.60545	0.97281
3706.54855	0.97325
3704.49164	0.97392
3702.43473	0.97415
3700.37782	0.97348
3698.32091	0.97272
3696.26400	0.97286
3694.20710	0.97347
3692.15019	0.97401
3690.09328	0.97374
3688.03637	0.97277
3685.97946	0.97284
3683.92256	0.97351
3681.86565	0.97408
3679.80874	0.97455
3677.75183	0.97464
3675.69492	0.97428
3673.63801	0.97393
3671.58111	0.97354
3669.52420	0.97322
3667.46729	0.97357
3665.41038	0.97400
3663.35347	0.97400
3661.29657	0.97384
3659.23966	0.97396
3657.18275	0.97428
3655.12584	0.97386
3653.06893	0.97316
3651.01202	0.97330
3648.95512	0.97353
3646.89821	0.97318
3644.84130	0.97294
3642.78439	0.97276
3640.72748	0.97254
3638.67058	0.97273
3636.61367	0.97326
3634.55676	0.97316
3632.49985	0.97281
3630.44294	0.97304
3628.38603	0.97318
3626.32913	0.97270
3624.27222	0.97188
3622.21531	0.97096
3620.15840	0.97091
3618.10149	0.97191
3616.04459	0.97230
3613.98768	0.97172
3611.93077	0.97066
3609.87386	0.97030
3607.81695	0.97095
3605.76004	0.97108
3603.70314	0.97075
3601.64623	0.97057
3599.58932	0.97042
3597.53241	0.97045
3595.47550	0.97051
3593.41860	0.97042
3591.36169	0.97096
3589.30478	0.97189
3587.24787	0.97149
3585.19096	0.97009
3583.13405	0.96945
3581.07715	0.96924
3579.02024	0.96874
3576.96333	0.96849
3574.90642	0.96904
3572.84951	0.96960
3570.79261	0.96966
3568.73570	0.96951
3566.67879	0.96940
3564.62188	0.96941
3562.56497	0.96920
3560.50806	0.96874
3558.45116	0.96818
3556.39425	0.96766
3554.33734	0.96717
3552.28043	0.96655
3550.22352	0.96608
3548.16662	0.96569
3546.10971	0.96515
3544.05280	0.96490
3541.99589	0.96507
3539.93898	0.96569
3537.88207	0.96619
3535.82517	0.96600
3533.76826	0.96564
3531.71135	0.96528
3529.65444	0.96474
3527.59753	0.96425
3525.54063	0.96401
3523.48372	0.96353
3521.42681	0.96274
3519.36990	0.96223
3517.31299	0.96231
3515.25608	0.96253
3513.19918	0.96237
3511.14227	0.96207
3509.08536	0.96180
3507.02845	0.96149
3504.97154	0.96087
3502.91464	0.95960
3500.85773	0.95866
3498.80082	0.95888
3496.74391	0.95944
3494.68700	0.95992
3492.63009	0.96035
3490.57319	0.96025
3488.51628	0.96021
3486.45937	0.96064
3484.40246	0.96065
3482.34555	0.95982
3480.28865	0.95884
3478.23174	0.95894
3476.17483	0.95984
3474.11792	0.95986
3472.06101	0.95911
3470.00410	0.95919
3467.94720	0.96012
3465.89029	0.96073
3463.83338	0.96051
3461.77647	0.96014
3459.71956	0.95996
3457.66266	0.95989
3455.60575	0.96027
3453.54884	0.96083
3451.49193	0.96122
3449.43502	0.96145
3447.37811	0.96172
3445.32121	0.96208
3443.26430	0.96222
3441.20739	0.96222
3439.15048	0.96220
3437.09357	0.96228
3435.03667	0.96271
3432.97976	0.96319
3430.92285	0.96304
3428.86594	0.96240
3426.80903	0.96209
3424.75212	0.96230
3422.69522	0.96264
3420.63831	0.96287
3418.58140	0.96292
3416.52449	0.96283
3414.46758	0.96305
3412.41068	0.96367
3410.35377	0.96417
3408.29686	0.96449
3406.23995	0.96463
3404.18304	0.96456
3402.12613	0.96487
3400.06923	0.96556
3398.01232	0.96602
3395.95541	0.96612
3393.89850	0.96596
3391.84159	0.96551
3389.78469	0.96514
3387.72778	0.96544
3385.67087	0.96599
3383.61396	0.96568
3381.55705	0.96481
3379.50014	0.96473
3377.44324	0.96561
3375.38633	0.96648
3373.32942	0.96670
3371.27251	0.96646
3369.21560	0.96621
3367.15870	0.96609
3365.10179	0.96596
3363.04488	0.96574
3360.98797	0.96565
3358.93106	0.96596
3356.87415	0.96650
3354.81725	0.96674
3352.76034	0.96683
3350.70343	0.96719
3348.64652	0.96743
3346.58961	0.96726
3344.53271	0.96715
3342.47580	0.96726
3340.41889	0.96747
3338.36198	0.96761
3336.30507	0.96748
3334.24816	0.96748
3332.19126	0.96785
3330.13435	0.96816
3328.07744	0.96826
3326.02053	0.96843
3323.96362	0.96874
3321.90672	0.96885
3319.84981	0.96858
3317.79290	0.96815
3315.73599	0.96814
3313.67908	0.96852
3311.62217	0.96866
3309.56527	0.96852
3307.50836	0.96839
3305.45145	0.96843
3303.39454	0.96866
3301.33763	0.96883
3299.28073	0.96910
3297.22382	0.96932
3295.16691	0.96925
3293.11000	0.96908
3291.05309	0.96873
3288.99618	0.96855
3286.93928	0.96859
3284.88237	0.96868
3282.82546	0.96915
3280.76855	0.96972
3278.71164	0.96977
3276.65474	0.96954
3274.59783	0.96958
3272.54092	0.96971
3270.48401	0.96943
3268.42710	0.96883
3266.37019	0.96853
3264.31329	0.96870
3262.25638	0.96894
3260.19947	0.96901
3258.14256	0.96906
3256.08565	0.96937
3254.02875	0.96996
3251.97184	0.97039
3249.91493	0.97052
3247.85802	0.97078
3245.80111	0.97093
3243.74420	0.97044
3241.68730	0.97000
3239.63039	0.97010
3237.57348	0.97029
3235.51657	0.97035
3233.45966	0.97019
3231.40276	0.97002
3229.34585	0.96999
3227.28894	0.96994
3225.23203	0.97001
3223.17512	0.97025
3221.11821	0.97030
3219.06131	0.97016
3217.00440	0.97001
3214.94749	0.96993
3212.89058	0.97002
3210.83367	0.97024
3208.77677	0.97006
3206.71986	0.96952
3204.66295	0.96968
3202.60604	0.97069
3200.54913	0.97121
3198.49222	0.97098
3196.43532	0.97089
3194.37841	0.97097
3192.32150	0.97101
3190.26459	0.97090
3188.20768	0.97057
3186.15078	0.97051
3184.09387	0.97079
3182.03696	0.97076
3179.98005	0.97054
3177.92314	0.97069
3175.86623	0.97104
3173.80933	0.97123
3171.75242	0.97138
3169.69551	0.97178
3167.63860	0.97202
3165.58169	0.97157
3163.52479	0.97110
3161.46788	0.97091
3159.41097	0.97065
3157.35406	0.97061
3155.29715	0.97062
3153.24024	0.97030
3151.18334	0.97008
3149.12643	0.97038
3147.06952	0.97090
3145.01261	0.97150
3142.95570	0.97225
3140.89880	0.97242
3138.84189	0.97169
3136.78498	0.97114
3134.72807	0.97131
3132.67116	0.97163
3130.61425	0.97185
3128.55735	0.97211
3126.50044	0.97245
3124.44353	0.97264
3122.38662	0.97240
3120.32971	0.97197
3118.27281	0.97150
3116.21590	0.97109
3114.15899	0.97135
3112.10208	0.97211
3110.04517	0.97236
3107.98826	0.97186
3105.93136	0.97125
3103.87445	0.97128
3101.81754	0.97176
3099.76063	0.97199
3097.70372	0.97192
3095.64682	0.97178
3093.58991	0.97168
3091.53300	0.97170
3089.47609	0.97190
3087.41918	0.97199
3085.36227	0.97141
3083.30537	0.97088
3081.24846	0.97105
3079.19155	0.97117
3077.13464	0.97124
3075.07773	0.97163
3073.02083	0.97164
3070.96392	0.97110
3068.90701	0.97088
3066.85010	0.97125
3064.79319	0.97166
3062.73628	0.97184
3060.67938	0.97173
3058.62247	0.97156
3056.56556	0.97144
3054.50865	0.97130
3052.45174	0.97129
3050.39484	0.97105
3048.33793	0.97056
3046.28102	0.97042
3044.22411	0.97046
3042.16720	0.97044
3040.11029	0.97062
3038.05339	0.97082
3035.99648	0.97065
3033.93957	0.97042
3031.88266	0.97057
3029.82575	0.97076
3027.76885	0.97056
3025.71194	0.97019
3023.65503	0.97005
3021.59812	0.97016
3019.54121	0.96999
3017.48430	0.96939
3015.42740	0.96891
3013.37049	0.96880
3011.31358	0.96891
3009.25667	0.96912
3007.19976	0.96924
3005.14286	0.96919
3003.08595	0.96928
3001.02904	0.96939
2998.97213	0.96896
2996.91522	0.96813
2994.85831	0.96773
2992.80141	0.96815
2990.74450	0.96879
2988.68759	0.96890
2986.63068	0.96835
2984.57377	0.96797
2982.51687	0.96805
2980.45996	0.96802
2978.40305	0.96788
2976.34614	0.96773
2974.28923	0.96741
2972.23232	0.96682
2970.17542	0.96617
2968.11851	0.96595
2966.06160	0.96602
2964.00469	0.96579
2961.94778	0.96519
2959.89088	0.96463
2957.83397	0.96435
2955.77706	0.96414
2953.72015	0.96396
2951.66324	0.96393
2949.60633	0.96391
2947.54943	0.96389
2945.49252	0.96361
2943.43561	0.96318
2941.37870	0.96317
2939.32179	0.96334
2937.26489	0.96336
2935.20798	0.96350
2933.15107	0.96410
2931.09416	0.96470
2929.03725	0.96479
2926.98034	0.96483
2924.92344	0.96520
2922.86653	0.96531
2920.80962	0.96500
2918.75271	0.96484
2916.69580	0.96477
2914.63890	0.96482
2912.58199	0.96514
2910.52508	0.96502
2908.46817	0.96440
2906.41126	0.96434
2904.35435	0.96454
2902.29745	0.96417
2900.24054	0.96382
2898.18363	0.96398
2896.12672	0.96415
2894.06981	0.96421
2892.01291	0.96427
2889.95600	0.96413
2887.89909	0.96397
2885.84218	0.96411
2883.78527	0.96430
2881.72836	0.96437
2879.67146	0.96449
2877.61455	0.96488
2875.55764	0.96538
2873.50073	0.96547
2871.44382	0.96512
2869.38692	0.96494
2867.33001	0.96528
2865.27310	0.96581
2863.21619	0.96611
2861.15928	0.96596
2859.10237	0.96571
2857.04547	0.96592
2854.98856	0.96627
2852.93165	0.96678
2850.87474	0.96747
2848.81783	0.96778
2846.76093	0.96795
2844.70402	0.96826
2842.64711	0.96838
2840.59020	0.96839
2838.53329	0.96877
2836.47638	0.96917
2834.41948	0.96903
2832.36257	0.96893
2830.30566	0.96936
2828.24875	0.96981
2826.19184	0.96978
2824.13494	0.96948
2822.07803	0.96952
2820.02112	0.96999
2817.96421	0.97027
2815.90730	0.97017
2813.85039	0.96990
2811.79349	0.96961
2809.73658	0.96956
2807.67967	0.96976
2805.62276	0.97015
2803.56585	0.97073
2801.50895	0.97111
2799.45204	0.97093
2797.39513	0.97067
2795.33822	0.97072
2793.28131	0.97077
2791.22440	0.97061
2789.16750	0.97061
2787.11059	0.97085
2785.05368	0.97095
2782.99677	0.97104
2780.93986	0.97118
2778.88296	0.97100
2776.82605	0.97073
2774.76914	0.97071
2772.71223	0.97074
2770.65532	0.97077
2768.59841	0.97096
2766.54151	0.97116
2764.48460	0.97104
2762.42769	0.97069
2760.37078	0.97054
2758.31387	0.97062
2756.25697	0.97066
2754.20006	0.97063
2752.14315	0.97075
2750.08624	0.97113
2748.02933	0.97168
2745.97242	0.97189
2743.91552	0.97158
2741.85861	0.97108
2739.80170	0.97078
2737.74479	0.97098
2735.68788	0.97152
2733.63098	0.97170
2731.57407	0.97123
2729.51716	0.97071
2727.46025	0.97048
2725.40334	0.97044
2723.34643	0.97051
2721.28953	0.97066
2719.23262	0.97084
2717.17571	0.97091
2715.11880	0.97080
2713.06189	0.97075
2711.00499	0.97091
2708.94808	0.97108
2706.89117	0.97111
2704.83426	0.97110
2702.77735	0.97111
2700.72044	0.97090
2698.66354	0.97066
2696.60663	0.97079
2694.54972	0.97107
2692.49281	0.97124
2690.43590	0.97127
2688.37900	0.97123
2686.32209	0.97132
2684.26518	0.97160
2682.20827	0.97181
2680.15136	0.97197
2678.09445	0.97216
2676.03755	0.97200
2673.98064	0.97152
2671.92373	0.97101
2669.86682	0.97057
2667.80991	0.97043
2665.75301	0.97073
2663.69610	0.97116
2661.63919	0.97138
2659.58228	0.97145
2657.52537	0.97153
2655.46846	0.97137
2653.41156	0.97087
2651.35465	0.97047
2649.29774	0.97043
2647.24083	0.97071
2645.18392	0.97117
2643.12702	0.97163
2641.07011	0.97203
2639.01320	0.97191
2636.95629	0.97148
2634.89938	0.97150
2632.84247	0.97150
2630.78557	0.97105
2628.72866	0.97101
2626.67175	0.97173
2624.61484	0.97240
2622.55793	0.97284
2620.50103	0.97317
2618.44412	0.97312
2616.38721	0.97278
2614.33030	0.97243
2612.27339	0.97221
2610.21648	0.97215
2608.15958	0.97207
2606.10267	0.97192
2604.04576	0.97204
2601.98885	0.97236
2599.93194	0.97223
2597.87504	0.97191
2595.81813	0.97221
2593.76122	0.97285
2591.70431	0.97302
2589.64740	0.97269
2587.59049	0.97241
2585.53359	0.97249
2583.47668	0.97277
2581.41977	0.97273
2579.36286	0.97225
2577.30595	0.97204
2575.24905	0.97260
2573.19214	0.97315
2571.13523	0.97303
2569.07832	0.97278
2567.02141	0.97296
2564.96450	0.97376
2562.90760	0.97455
2560.85069	0.97469
2558.79378	0.97438
2556.73687	0.97384
2554.67996	0.97347
2552.62306	0.97351
2550.56615	0.97344
2548.50924	0.97319
2546.45233	0.97291
2544.39542	0.97266
2542.33851	0.97288
2540.28161	0.97321
2538.22470	0.97336
2536.16779	0.97366
2534.11088	0.97371
2532.05397	0.97314
2529.99707	0.97263
2527.94016	0.97297
2525.88325	0.97385
2523.82634	0.97424
2521.76943	0.97367
2519.71252	0.97293
2517.65562	0.97310
2515.59871	0.97364
2513.54180	0.97377
2511.48489	0.97375
2509.42798	0.97404
2507.37108	0.97455
2505.31417	0.97462
2503.25726	0.97443
2501.20035	0.97493
2499.14344	0.97544
2497.08653	0.97509
2495.02963	0.97476
2492.97272	0.97471
2490.91581	0.97437
2488.85890	0.97433
2486.80199	0.97474
2484.74509	0.97472
2482.68818	0.97439
2480.63127	0.97432
2478.57436	0.97425
2476.51745	0.97418
2474.46054	0.97447
2472.40364	0.97480
2470.34673	0.97519
2468.28982	0.97547
2466.23291	0.97528
2464.17600	0.97485
2462.11910	0.97430
2460.06219	0.97384
2458.00528	0.97340
2455.94837	0.97316
2453.89146	0.97379
2451.83455	0.97458
2449.77765	0.97457
2447.72074	0.97427
2445.66383	0.97404
2443.60692	0.97384
2441.55001	0.97398
2439.49311	0.97405
2437.43620	0.97378
2435.37929	0.97402
2433.32238	0.97438
2431.26547	0.97430
2429.20856	0.97423
2427.15166	0.97426
2425.09475	0.97431
2423.03784	0.97430
2420.98093	0.97391
2418.92402	0.97319
2416.86712	0.97298
2414.81021	0.97348
2412.75330	0.97411
2410.69639	0.97426
2408.63948	0.97397
2406.58257	0.97431
2404.52567	0.97497
2402.46876	0.97471
2400.41185	0.97359
2398.35494	0.97289
2396.29803	0.97328
2394.24113	0.97384
2392.18422	0.97419
2390.12731	0.97449
2388.07040	0.97475
2386.01349	0.97474
2383.95658	0.97441
2381.89968	0.97423
2379.84277	0.97442
2377.78586	0.97486
2375.72895	0.97507
2373.67204	0.97456
2371.61514	0.97362
2369.55823	0.97317
2367.50132	0.97402
2365.44441	0.97525
2363.38750	0.97565
2361.33059	0.97542
2359.27369	0.97467
2357.21678	0.97402
2355.15987	0.97445
2353.10296	0.97494
2351.04605	0.97458
2348.98915	0.97428
2346.93224	0.97423
2344.87533	0.97415
2342.81842	0.97398
2340.76151	0.97370
2338.70460	0.97365
2336.64770	0.97384
2334.59079	0.97427
2332.53388	0.97466
2330.47697	0.97428
2328.42006	0.97308
2326.36316	0.97227
2324.30625	0.97260
2322.24934	0.97358
2320.19243	0.97430
2318.13552	0.97392
2316.07861	0.97327
2314.02171	0.97348
2311.96480	0.97432
2309.90789	0.97477
2307.85098	0.97400
2305.79407	0.97292
2303.73717	0.97265
2301.68026	0.97326
2299.62335	0.97452
2297.56644	0.97537
2295.50953	0.97509
2293.45262	0.97459
2291.39572	0.97470
2289.33881	0.97468
2287.28190	0.97410
2285.22499	0.97405
2283.16808	0.97444
2281.11117	0.97462
2279.05427	0.97493
2276.99736	0.97497
2274.94045	0.97458
2272.88354	0.97451
2270.82663	0.97491
2268.76973	0.97574
2266.71282	0.97642
2264.65591	0.97605
2262.59900	0.97544
2260.54209	0.97549
2258.48518	0.97518
2256.42828	0.97478
2254.37137	0.97551
2252.31446	0.97590
2250.25755	0.97526
2248.20064	0.97460
2246.14374	0.97397
2244.08683	0.97410
2242.02992	0.97537
2239.97301	0.97612
2237.91610	0.97582
2235.85919	0.97605
2233.80229	0.97657
2231.74538	0.97606
2229.68847	0.97514
2227.63156	0.97531
2225.57465	0.97675
2223.51775	0.97819
2221.46084	0.97828
2219.40393	0.97719
2217.34702	0.97635
2215.29011	0.97615
2213.23320	0.97620
2211.17630	0.97673
2209.11939	0.97764
2207.06248	0.97793
2205.00557	0.97686
2202.94866	0.97491
2200.89176	0.97413
2198.83485	0.97538
2196.77794	0.97711
2194.72103	0.97853
2192.66412	0.97907
2190.60721	0.97857
2188.55031	0.97699
2186.49340	0.97451
2184.43649	0.97301
2182.37958	0.97288
2180.32267	0.97369
2178.26577	0.97536
2176.20886	0.97704
2174.15195	0.97748
2172.09504	0.97600
2170.03813	0.97471
2167.98122	0.97547
2165.92432	0.97667
2163.86741	0.97702
2161.81050	0.97708
2159.75359	0.97708
2157.69668	0.97724
2155.63978	0.97883
2153.58287	0.98060
2151.52596	0.97981
2149.46905	0.97813
2147.41214	0.97674
2145.35523	0.97471
2143.29833	0.97454
2141.24142	0.97602
2139.18451	0.97590
2137.12760	0.97543
2135.07069	0.97644
2133.01379	0.97806
2130.95688	0.97859
2128.89997	0.97716
2126.84306	0.97562
2124.78615	0.97544
2122.72924	0.97555
2120.67234	0.97546
2118.61543	0.97516
2116.55852	0.97464
2114.50161	0.97485
2112.44470	0.97551
2110.38780	0.97538
2108.33089	0.97501
2106.27398	0.97545
2104.21707	0.97606
2102.16016	0.97653
2100.10325	0.97722
2098.04635	0.97729
2095.98944	0.97651
2093.93253	0.97636
2091.87562	0.97751
2089.81871	0.97891
2087.76181	0.97935
2085.70490	0.97860
2083.64799	0.97703
2081.59108	0.97519
2079.53417	0.97435
2077.47726	0.97511
2075.42036	0.97647
2073.36345	0.97763
2071.30654	0.97862
2069.24963	0.97931
2067.19272	0.97913
2065.13582	0.97821
2063.07891	0.97763
2061.02200	0.97771
2058.96509	0.97851
2056.90818	0.98017
2054.85127	0.98058
2052.79437	0.97911
2050.73746	0.97853
2048.68055	0.97876
2046.62364	0.97824
2044.56673	0.97762
2042.50983	0.97695
2040.45292	0.97648
2038.39601	0.97707
2036.33910	0.97781
2034.28219	0.97806
2032.22528	0.97882
2030.16838	0.97943
2028.11147	0.97888
2026.05456	0.97901
2023.99765	0.98097
2021.94074	0.98204
2019.88384	0.98058
2017.82693	0.97918
2015.77002	0.97938
2013.71311	0.98057
2011.65620	0.98150
2009.59929	0.98165
2007.54239	0.98222
2005.48548	0.98220
2003.42857	0.98056
2001.37166	0.97836
1999.31475	0.97664
1997.25785	0.97735
1995.20094	0.98006
1993.14403	0.98127
1991.08712	0.98031
1989.03021	0.97978
1986.97330	0.97993
1984.91640	0.98038
1982.85949	0.98186
1980.80258	0.98280
1978.74567	0.98242
1976.68876	0.98203
1974.63186	0.98222
1972.57495	0.98200
1970.51804	0.98088
1968.46113	0.97976
1966.40422	0.97890
1964.34731	0.97888
1962.29041	0.97904
1960.23350	0.97830
1958.17659	0.97751
1956.11968	0.97789
1954.06277	0.97987
1952.00587	0.98164
1949.94896	0.98165
1947.89205	0.98134
1945.83514	0.98134
1943.77823	0.98109
1941.72132	0.98092
1939.66442	0.98057
1937.60751	0.97964
1935.55060	0.97909
1933.49369	0.97945
1931.43678	0.98012
1929.37988	0.98043
1927.32297	0.97993
1925.26606	0.97964
1923.20915	0.97988
1921.15224	0.98007
1919.09533	0.98055
1917.03843	0.98083
1914.98152	0.98091
1912.92461	0.98047
1910.86770	0.97934
1908.81079	0.97895
1906.75389	0.97929
1904.69698	0.97937
1902.64007	0.97950
1900.58316	0.97990
1898.52625	0.98005
1896.46934	0.98003
1894.41244	0.98071
1892.35553	0.98186
1890.29862	0.98205
1888.24171	0.98118
1886.18480	0.98018
1884.12790	0.97959
1882.07099	0.97971
1880.01408	0.98053
1877.95717	0.98153
1875.90026	0.98185
1873.84335	0.98134
1871.78645	0.98093
1869.72954	0.98076
1867.67263	0.98056
1865.61572	0.98084
1863.55881	0.98121
1861.50191	0.98128
1859.44500	0.98106
1857.38809	0.98110
1855.33118	0.98182
1853.27427	0.98224
1851.21736	0.98180
1849.16046	0.98135
1847.10355	0.98133
1845.04664	0.98178
1842.98973	0.98239
1840.93282	0.98206
1838.87592	0.98139
1836.81901	0.98156
1834.76210	0.98251
1832.70519	0.98331
1830.64828	0.98306
1828.59137	0.98190
1826.53447	0.98153
1824.47756	0.98192
1822.42065	0.98207
1820.36374	0.98221
1818.30683	0.98241
1816.24993	0.98230
1814.19302	0.98192
1812.13611	0.98154
1810.07920	0.98120
1808.02229	0.98112
1805.96538	0.98106
1803.90848	0.98061
1801.85157	0.98004
1799.79466	0.97960
1797.73775	0.97907
1795.68084	0.97842
1793.62394	0.97810
1791.56703	0.97805
1789.51012	0.97731
1787.45321	0.97610
1785.39630	0.97530
1783.33939	0.97435
1781.28249	0.97256
1779.22558	0.97026
1777.16867	0.96760
1775.11176	0.96400
1773.05485	0.95852
1770.99795	0.95088
1768.94104	0.94163
1766.88413	0.93032
1764.82722	0.91745
1762.77031	0.90179
1760.71340	0.88351
1758.65650	0.86719
1756.59959	0.85197
1754.54268	0.83886
1752.48577	0.82808
1750.42886	0.81606
1748.37196	0.80372
1746.31505	0.79385
1744.25814	0.78611
1742.20123	0.78010
1740.14432	0.77580
1738.08741	0.77439
1736.03051	0.77647
1733.97360	0.78133
1731.91669	0.78807
1729.85978	0.79622
1727.80287	0.80594
1725.74597	0.81663
1723.68906	0.82831
1721.63215	0.83944
1719.57524	0.85022
1717.51833	0.86323
1715.46142	0.87624
1713.40452	0.88608
1711.34761	0.89438
1709.29070	0.90215
1707.23379	0.90952
1705.17688	0.91608
1703.11998	0.92086
1701.06307	0.92517
1699.00616	0.93000
1696.94925	0.93395
1694.89234	0.93749
1692.83543	0.94049
1690.77853	0.94277
1688.72162	0.94465
1686.66471	0.94624
1684.60780	0.94812
1682.55089	0.94998
1680.49399	0.95115
1678.43708	0.95214
1676.38017	0.95315
1674.32326	0.95405
1672.26635	0.95468
1670.20944	0.95511
1668.15254	0.95574
1666.09563	0.95659
1664.03872	0.95698
1661.98181	0.95698
1659.92490	0.95716
1657.86800	0.95728
1655.81109	0.95716
1653.75418	0.95704
1651.69727	0.95756
1649.64036	0.95837
1647.58345	0.95866
1645.52655	0.95832
1643.46964	0.95828
1641.41273	0.95861
1639.35582	0.95899
1637.29891	0.95941
1635.24201	0.95955
1633.18510	0.95948
1631.12819	0.95994
1629.07128	0.96061
1627.01437	0.96118
1624.95746	0.96193
1622.90056	0.96281
1620.84365	0.96326
1618.78674	0.96342
1616.72983	0.96383
1614.67292	0.96456
1612.61602	0.96522
1610.55911	0.96572
1608.50220	0.96608
1606.44529	0.96638
1604.38838	0.96679
1602.33147	0.96718
1600.27457	0.96740
1598.21766	0.96781
1596.16075	0.96844
1594.10384	0.96869
1592.04693	0.96860
1589.99003	0.96876
1587.93312	0.96920
1585.87621	0.96967
1583.81930	0.96994
1581.76239	0.97022
1579.70548	0.97062
1577.64858	0.97060
1575.59167	0.97002
1573.53476	0.96983
1571.47785	0.97017
1569.42094	0.97060
1567.36404	0.97078
1565.30713	0.97087
1563.25022	0.97126
1561.19331	0.97164
1559.13640	0.97138
1557.07949	0.97122
1555.02259	0.97154
1552.96568	0.97166
1550.90877	0.97161
1548.85186	0.97148
1546.79495	0.97137
1544.73805	0.97137
1542.68114	0.97124
1540.62423	0.97125
1538.56732	0.97171
1536.51041	0.97191
1534.45350	0.97197
1532.39660	0.97225
1530.33969	0.97266
1528.28278	0.97299
1526.22587	0.97316
1524.16896	0.97309
1522.11206	0.97309
1520.05515	0.97320
1517.99824	0.97319
1515.94133	0.97320
1513.88442	0.97342
1511.82751	0.97384
1509.77061	0.97431
1507.71370	0.97441
1505.65679	0.97406
1503.59988	0.97394
1501.54297	0.97383
1499.48607	0.97363
1497.42916	0.97375
1495.37225	0.97412
1493.31534	0.97424
1491.25843	0.97423
1489.20152	0.97438
1487.14462	0.97446
1485.08771	0.97420
1483.03080	0.97383
1480.97389	0.97352
1478.91698	0.97317
1476.86008	0.97262
1474.80317	0.97192
1472.74626	0.97102
1470.68935	0.96987
1468.63244	0.96877
1466.57553	0.96739
1464.51863	0.96547
1462.46172	0.96374
1460.40481	0.96243
1458.34790	0.96095
1456.29099	0.95917
1454.23409	0.95762
1452.17718	0.95642
1450.12027	0.95558
1448.06336	0.95442
1446.00645	0.95251
1443.94954	0.95068
1441.89264	0.94922
1439.83573	0.94793
1437.77882	0.94645
1435.72191	0.94469
1433.66500	0.94353
1431.60810	0.94315
1429.55119	0.94353
1427.49428	0.94465
1425.43737	0.94613
1423.38046	0.94750
1421.32355	0.94857
1419.26665	0.94969
1417.20974	0.95106
1415.15283	0.95250
1413.09592	0.95379
1411.03901	0.95457
1408.98211	0.95499
1406.92520	0.95554
1404.86829	0.95612
1402.81138	0.95637
1400.75447	0.95603
1398.69756	0.95492
1396.64066	0.95299
1394.58375	0.94982
1392.52684	0.94561
1390.46993	0.94103
1388.41302	0.93514
1386.35612	0.92726
1384.29921	0.91883
1382.24230	0.91047
1380.18539	0.90178
1378.12848	0.89310
1376.07157	0.88486
1374.01467	0.87670
1371.95776	0.86961
1369.90085	0.86495
1367.84394	0.86316
1365.78703	0.86527
1363.73013	0.87225
1361.67322	0.88421
1359.61631	0.89813
1357.55940	0.91154
1355.50249	0.92357
1353.44558	0.93331
1351.38868	0.94036
1349.33177	0.94504
1347.27486	0.94807
1345.21795	0.95031
1343.16104	0.95216
1341.10414	0.95371
1339.04723	0.95497
1336.99032	0.95569
1334.93341	0.95581
1332.87650	0.95572
1330.81959	0.95572
1328.76269	0.95552
1326.70578	0.95503
1324.64887	0.95475
1322.59196	0.95467
1320.53505	0.95464
1318.47815	0.95492
1316.42124	0.95534
1314.36433	0.95582
1312.30742	0.95641
1310.25051	0.95685
1308.19360	0.95711
1306.13670	0.95730
1304.07979	0.95728
1302.02288	0.95696
1299.96597	0.95638
1297.90906	0.95563
1295.85216	0.95453
1293.79525	0.95296
1291.73834	0.95133
1289.68143	0.94964
1287.62452	0.94742
1285.56761	0.94495
1283.51071	0.94242
1281.45380	0.93911
1279.39689	0.93490
1277.33998	0.93023
1275.28307	0.92515
1273.22617	0.91942
1271.16926	0.91305
1269.11235	0.90640
1267.05544	0.89951
1264.99853	0.89194
1262.94162	0.88337
1260.88472	0.87385
1258.82781	0.86374
1256.77090	0.85329
1254.71399	0.84225
1252.65708	0.83048
1250.60018	0.81819
1248.54327	0.80561
1246.48636	0.79283
1244.42945	0.77968
1242.37254	0.76639
1240.31563	0.75342
1238.25873	0.74078
1236.20182	0.72845
1234.14491	0.71657
1232.08800	0.70578
1230.03109	0.69687
1227.97419	0.68979
1225.91728	0.68430
1223.86037	0.68061
1221.80346	0.67900
1219.74655	0.67948
1217.68964	0.68200
1215.63274	0.68676
1213.57583	0.69447
1211.51892	0.70583
1209.46201	0.72084
1207.40510	0.73879
1205.34820	0.75894
1203.29129	0.78052
1201.23438	0.80223
1199.17747	0.82248
1197.12056	0.84044
1195.06365	0.85594
1193.00675	0.86870
1190.94984	0.87834
1188.89293	0.88514
1186.83602	0.88962
1184.77911	0.89211
1182.72221	0.89308
1180.66530	0.89287
1178.60839	0.89167
1176.55148	0.88976
1174.49457	0.88734
1172.43766	0.88503
1170.38076	0.88307
1168.32385	0.88117
1166.26694	0.88000
1164.21003	0.88024
1162.15312	0.88118
1160.09622	0.88218
1158.03931	0.88369
1155.98240	0.88611
1153.92549	0.88905
1151.86858	0.89213
1149.81167	0.89511
1147.75477	0.89757
1145.69786	0.89918
1143.64095	0.89982
1141.58404	0.89959
1139.52713	0.89841
1137.47023	0.89616
1135.41332	0.89332
1133.35641	0.89021
1131.29950	0.88696
1129.24259	0.88398
1127.18568	0.88148
1125.12878	0.87943
1123.07187	0.87799
1121.01496	0.87757
1118.95805	0.87777
1116.90114	0.87771
1114.84424	0.87748
1112.78733	0.87727
1110.73042	0.87680
1108.67351	0.87601
1106.61660	0.87491
1104.55969	0.87324
1102.50279	0.87059
1100.44588	0.86725
1098.38897	0.86379
1096.33206	0.85995
1094.27515	0.85504
1092.21825	0.84916
1090.16134	0.84276
1088.10443	0.83600
1086.04752	0.82912
1083.99061	0.82229
1081.93370	0.81543
1079.87680	0.80844
1077.81989	0.80128
1075.76298	0.79413
1073.70607	0.78719
1071.64916	0.78054
1069.59226	0.77407
1067.53535	0.76793
1065.47844	0.76210
1063.42153	0.75619
1061.36462	0.74994
1059.30771	0.74312
1057.25081	0.73558
1055.19390	0.72752
1053.13699	0.71942
1051.08008	0.71196
1049.02317	0.70496
1046.96627	0.69816
1044.90936	0.69212
1042.85245	0.68674
1040.79554	0.68130
1038.73863	0.67599
1036.68172	0.67164
1034.62482	0.66870
1032.56791	0.66744
1030.51100	0.66878
1028.45409	0.67327
1026.39718	0.68044
1024.34028	0.68974
1022.28337	0.70054
1020.22646	0.71213
1018.16955	0.72396
1016.11264	0.73547
1014.05573	0.74660
1011.99883	0.75753
1009.94192	0.76793
1007.88501	0.77769
1005.82810	0.78697
1003.77119	0.79567
1001.71429	0.80382
999.65738	0.81109
997.60047	0.81734
995.54356	0.82284
993.48665	0.82784
991.42974	0.83239
989.37284	0.83648
987.31593	0.84012
985.25902	0.84350
983.20211	0.84677
981.14520	0.84991
979.08830	0.85320
977.03139	0.85704
974.97448	0.86157
972.91757	0.86650
970.86066	0.87125
968.80375	0.87577
966.74685	0.87992
964.68994	0.88319
962.63303	0.88568
960.57612	0.88781
958.51921	0.88947
956.46231	0.89069
954.40540	0.89171
952.34849	0.89260
950.29158	0.89389
948.23467	0.89581
946.17776	0.89794
944.12086	0.90000
942.06395	0.90181
940.00704	0.90318
937.95013	0.90408
935.89322	0.90483
933.83632	0.90531
931.77941	0.90523
929.72250	0.90477
927.66559	0.90391
925.60868	0.90264
923.55177	0.90120
921.49487	0.89955
919.43796	0.89794
917.38105	0.89675
915.32414	0.89593
913.26723	0.89502
911.21033	0.89323
909.15342	0.89062
907.09651	0.88821
905.03960	0.88639
902.98269	0.88501
900.92578	0.88437
898.86888	0.88493
896.81197	0.88667
894.75506	0.88919
892.69815	0.89238
890.64124	0.89577
888.58434	0.89814
886.52743	0.89973
884.47052	0.90175
882.41361	0.90403
880.35670	0.90580
878.29979	0.90745
876.24289	0.90965
874.18598	0.91235
872.12907	0.91542
870.07216	0.91846
868.01525	0.92108
865.95835	0.92372
863.90144	0.92633
861.84453	0.92835
859.78762	0.92999
857.73071	0.93128
855.67380	0.93205
853.61690	0.93264
851.55999	0.93318
849.50308	0.93335
847.44617	0.93298
845.38926	0.93176
843.33236	0.93025
841.27545	0.92956
839.21854	0.92962
837.16163	0.93015
835.10472	0.93111
833.04781	0.93247
830.99091	0.93405
828.93400	0.93567
826.87709	0.93731
824.82018	0.93887
822.76327	0.94020
820.70637	0.94134
818.64946	0.94248
816.59255	0.94369
814.53564	0.94478
812.47873	0.94540
810.42182	0.94581
808.36492	0.94627
806.30801	0.94628
804.25110	0.94611
802.19419	0.94639
800.13728	0.94693
798.08038	0.94740
796.02347	0.94769
793.96656	0.94810
791.90965	0.94862
789.85274	0.94902
787.79583	0.94969
785.73893	0.95015
783.68202	0.94975
781.62511	0.94956
779.56820	0.95021
777.51129	0.95071
775.45439	0.95070
773.39748	0.95076
771.34057	0.95103
769.28366	0.95112
767.22675	0.95106
765.16984	0.95148
763.11294	0.95188
761.05603	0.95192
758.99912	0.95216
756.94221	0.95222
754.88530	0.95209
752.82839	0.95248
750.77149	0.95328
748.71458	0.95364
746.65767	0.95369
744.60076	0.95378
742.54385	0.95344
740.48695	0.95313
738.43004	0.95341
736.37313	0.95352
734.31622	0.95299
732.25931	0.95229
730.20240	0.95150
728.14550	0.95078
726.08859	0.95054
724.03168	0.94999
721.97477	0.94898
719.91786	0.94884
717.86096	0.94920
715.80405	0.94866
713.74714	0.94774
711.69023	0.94713
709.63332	0.94642
707.57641	0.94572
705.51951	0.94542
703.46260	0.94519
701.40569	0.94492
699.34878	0.94461
697.29187	0.94392
695.23497	0.94287
693.17806	0.94177
691.12115	0.94078
689.06424	0.93969
687.00733	0.93873
684.95042	0.93895
682.89352	0.93972
680.83661	0.93955
678.77970	0.93929
676.72279	0.93996
674.66588	0.94089
672.60898	0.94119
670.55207	0.94118
668.49516	0.94143
666.43825	0.94145
664.38134	0.94072
662.32443	0.93952
660.26753	0.93821
658.21062	0.93726
656.15371	0.93649
654.09680	0.93527
652.03989	0.93376
649.98299	0.93196
647.92608	0.93026
645.86917	0.92956
643.81226	0.92945
641.75535	0.92887
639.69844	0.92737
637.64154	0.92554
635.58463	0.92448
633.52772	0.92402
631.47081	0.92252
629.41390	0.92017
627.35700	0.91878
625.30009	0.91803
623.24318	0.91697
621.18627	0.91577
619.12936	0.91378
617.07245	0.91081
615.01555	0.90785
612.95864	0.90460
610.90173	0.89934
608.84482	0.89122
606.78791	0.88273
604.73101	0.87703
602.67410	0.87517
600.61719	0.87667
598.56028	0.88085
596.50337	0.88732
594.44646	0.89416
592.38956	0.89916
590.33265	0.90297
588.27574	0.90715
586.21883	0.91098
584.16192	0.91367
582.10502	0.91666
580.04811	0.91939
577.99120	0.91976
575.93429	0.91922
573.87738	0.91956
571.82047	0.92007
569.76357	0.91948
567.70666	0.91745
565.64975	0.91517
563.59284	0.91407
561.53593	0.91374
559.47903	0.91287
557.42212	0.91186
555.36521	0.91247
553.30830	0.91508
551.25139	0.91724
549.19448	0.91783
547.13758	0.91780
545.08067	0.91790
543.02376	0.91902
540.96685	0.91930
538.90994	0.91760
536.85304	0.91678
534.79613	0.91801
532.73922	0.91962
530.68231	0.92006
528.62540	0.91979
526.56849	0.91975
524.51159	0.91933
522.45468	0.91815
520.39777	0.91702
518.34086	0.91647
516.28395	0.91652
514.22705	0.91673
512.17014	0.91648
510.11323	0.91597
508.05632	0.91515
505.99941	0.91363
503.94250	0.91288
501.88560	0.91330
499.82869	0.91152
497.77178	0.90739
495.71487	0.90547
493.65796	0.90660
491.60106	0.90774
489.54415	0.90893
487.48724	0.91029
485.43033	0.90993
483.37342	0.90887
481.31651	0.90809
479.25961	0.90591
477.20270	0.90276
475.14579	0.90101
473.08888	0.90060
471.03197	0.89981
468.97507	0.89875
466.91816	0.89899
464.86125	0.90028
462.80434	0.89960
460.74743	0.89632
458.69052	0.89305
456.63362	0.89198
454.57671	0.89248
452.51980	0.89248
450.46289	0.89262
448.40598	0.89447
446.34908	0.89599
444.29217	0.89399
442.23526	0.89023
440.17835	0.88879
438.12144	0.89072
436.06453	0.89430
434.00763	0.89644
431.95072	0.89692
429.89381	0.89881
427.83690	0.90223
425.77999	0.90385
423.72309	0.90337
421.66618	0.90288
419.60927	0.90483
417.55236	0.90558
415.49545	0.90141
413.43854	0.89845
411.38164	0.90007
409.32473	0.90412
407.26782	0.90446
405.21091	0.90092
403.15400	0.90063
401.09710	0.90470
399.04019	0.90668
