3996.57260	0.99148
3994.51569	0.99108
3992.45878	0.99099
3990.40188	0.99093
3988.34497	0.99122
3986.28806	0.99184
3984.23115	0.99193
3982.17424	0.99131
3980.11733	0.99070
3978.06043	0.99040
3976.00352	0.99070
3973.94661	0.99148
3971.88970	0.99151
3969.83279	0.99059
3967.77589	0.98995
3965.71898	0.99064
3963.66207	0.99199
3961.60516	0.99219
3959.54825	0.99146
3957.49134	0.99123
3955.43444	0.99145
3953.37753	0.99149
3951.32062	0.99125
3949.26371	0.99097
3947.20680	0.99077
3945.14990	0.99045
3943.09299	0.99039
3941.03608	0.99083
3938.97917	0.99100
3936.92226	0.99054
3934.86535	0.99004
3932.80845	0.98985
3930.75154	0.99019
3928.69463	0.99121
3926.63772	0.99174
3924.58081	0.99108
3922.52391	0.99044
3920.46700	0.99035
3918.41009	0.99008
3916.35318	0.98982
3914.29627	0.98983
3912.23936	0.98973
3910.18246	0.98965
3908.12555	0.99010
3906.06864	0.99086
3904.01173	0.99137
3901.95482	0.99165
3899.89792	0.99169
3897.84101	0.99138
3895.78410	0.99134
3893.72719	0.99155
3891.67028	0.99135
3889.61337	0.99087
3887.55647	0.99067
3885.49956	0.99115
3883.44265	0.99189
3881.38574	0.99145
3879.32883	0.99036
3877.27193	0.99022
3875.21502	0.99080
3873.15811	0.99110
3871.10120	0.99068
3869.04429	0.99023
3866.98738	0.99028
3864.93048	0.99055
3862.87357	0.99055
3860.81666	0.99026
3858.75975	0.99017
3856.70284	0.99057
3854.64594	0.99087
3852.58903	0.99067
3850.53212	0.99089
3848.47521	0.99107
3846.41830	0.99087
3844.36139	0.99088
3842.30449	0.99103
3840.24758	0.99075
3838.19067	0.99079
3836.13376	0.99129
3834.07685	0.99149
3832.01995	0.99138
3829.96304	0.99082
3827.90613	0.99039
3825.84922	0.99064
3823.79231	0.99101
3821.73540	0.99128
3819.67850	0.99152
3817.62159	0.99170
3815.56468	0.99193
3813.50777	0.99175
3811.45086	0.99110
3809.39396	0.99030
3807.33705	0.98975
3805.28014	0.99002
3803.22323	0.99105
3801.16632	0.99207
3799.10941	0.99196
3797.05251	0.99121
3794.99560	0.99095
3792.93869	0.99134
3790.88178	0.99156
3788.82487	0.99127
3786.76796	0.99117
3784.71106	0.99153
3782.65415	0.99180
3780.59724	0.99183
3778.54033	0.99177
3776.48342	0.99183
3774.42652	0.99185
3772.36961	0.99192
3770.31270	0.99228
3768.25579	0.99195
3766.19888	0.99108
3764.14197	0.99086
3762.08507	0.99102
3760.02816	0.99136
3757.97125	0.99178
3755.91434	0.99171
3753.85743	0.99134
3751.80053	0.99077
3749.74362	0.99024
3747.68671	0.99047
3745.62980	0.99114
3743.57289	0.99140
3741.51598	0.99140
3739.45908	0.99150
3737.40217	0.99098
3735.34526	0.99076
3733.28835	0.99175
3731.23144	0.99185
3729.17454	0.99125
3727.11763	0.99112
3725.06072	0.99135
3723.00381	0.99139
3720.94690	0.99085
3718.88999	0.99042
3716.83309	0.99105
3714.77618	0.99164
3712.71927	0.99093
3710.66236	0.99018
3708.60545	0.99092
3706.54855	0.99176
3704.49164	0.99154
3702.43473	0.99087
3700.37782	0.99090
3698.32091	0.99153
3696.26400	0.99204
3694.20710	0.99219
3692.15019	0.99182
3690.09328	0.99121
3688.03637	0.99118
3685.97946	0.99163
3683.92256	0.99217
3681.86565	0.99234
3679.80874	0.99192
3677.75183	0.99188
3675.69492	0.99226
3673.63801	0.99161
3671.58111	0.99074
3669.52420	0.99105
3667.46729	0.99203
3665.41038	0.99206
3663.35347	0.99129
3661.29657	0.99062
3659.23966	0.99043
3657.18275	0.99118
3655.12584	0.99242
3653.06893	0.99263
3651.01202	0.99185
3648.95512	0.99136
3646.89821	0.99112
3644.84130	0.99028
3642.78439	0.98976
3640.72748	0.99008
3638.67058	0.99083
3636.61367	0.99161
3634.55676	0.99230
3632.49985	0.99291
3630.44294	0.99327
3628.38603	0.99244
3626.32913	0.99123
3624.27222	0.99084
3622.21531	0.99028
3620.15840	0.98921
3618.10149	0.98889
3616.04459	0.99000
3613.98768	0.99145
3611.93077	0.99195
3609.87386	0.99115
3607.81695	0.99013
3605.76004	0.99005
3603.70314	0.99033
3601.64623	0.98988
3599.58932	0.98926
3597.53241	0.98924
3595.47550	0.98887
3593.41860	0.98780
3591.36169	0.98725
3589.30478	0.98731
3587.24787	0.98738
3585.19096	0.98740
3583.13405	0.98739
3581.07715	0.98741
3579.02024	0.98755
3576.96333	0.98744
3574.90642	0.98695
3572.84951	0.98666
3570.79261	0.98634
3568.73570	0.98560
3566.67879	0.98532
3564.62188	0.98564
3562.56497	0.98551
3560.50806	0.98495
3558.45116	0.98444
3556.39425	0.98389
3554.33734	0.98366
3552.28043	0.98390
3550.22352	0.98362
3548.16662	0.98263
3546.10971	0.98172
3544.05280	0.98144
3541.99589	0.98122
3539.93898	0.98057
3537.88207	0.98011
3535.82517	0.97999
3533.76826	0.97990
3531.71135	0.98019
3529.65444	0.98078
3527.59753	0.98093
3525.54063	0.98033
3523.48372	0.97938
3521.42681	0.97856
3519.36990	0.97796
3517.31299	0.97774
3515.25608	0.97770
3513.19918	0.97732
3511.14227	0.97692
3509.08536	0.97692
3507.02845	0.97679
3504.97154	0.97559
3502.91464	0.97400
3500.85773	0.97357
3498.80082	0.97388
3496.74391	0.97375
3494.68700	0.97303
3492.63009	0.97251
3490.57319	0.97244
3488.51628	0.97226
3486.45937	0.97180
3484.40246	0.97158
3482.34555	0.97167
3480.28865	0.97157
3478.23174	0.97130
3476.17483	0.97063
3474.11792	0.96945
3472.06101	0.96863
3470.00410	0.96883
3467.94720	0.96965
3465.89029	0.97027
3463.83338	0.97008
3461.77647	0.96929
3459.71956	0.96856
3457.66266	0.96789
3455.60575	0.96730
3453.54884	0.96722
3451.49193	0.96728
3449.43502	0.96697
3447.37811	0.96692
3445.32121	0.96721
3443.26430	0.96690
3441.20739	0.96619
3439.15048	0.96603
3437.09357	0.96629
3435.03667	0.96608
3432.97976	0.96559
3430.92285	0.96533
3428.86594	0.96497
3426.80903	0.96473
3424.75212	0.96501
3422.69522	0.96547
3420.63831	0.96544
3418.58140	0.96498
3416.52449	0.96465
3414.46758	0.96443
3412.41068	0.96434
3410.35377	0.96458
3408.29686	0.96472
3406.23995	0.96445
3404.18304	0.96404
3402.12613	0.96377
3400.06923	0.96355
3398.01232	0.96340
3395.95541	0.96325
3393.89850	0.96268
3391.84159	0.96209
3389.78469	0.96221
3387.72778	0.96274
3385.67087	0.96317
3383.61396	0.96331
3381.55705	0.96331
3379.50014	0.96336
3377.44324	0.96344
3375.38633	0.96375
3373.32942	0.96435
3371.27251	0.96444
3369.21560	0.96353
3367.15870	0.96281
3365.10179	0.96310
3363.04488	0.96376
3360.98797	0.96431
3358.93106	0.96462
3356.87415	0.96433
3354.81725	0.96371
3352.76034	0.96347
3350.70343	0.96341
3348.64652	0.96354
3346.58961	0.96429
3344.53271	0.96497
3342.47580	0.96507
3340.41889	0.96485
3338.36198	0.96453
3336.30507	0.96429
3334.24816	0.96422
3332.19126	0.96434
3330.13435	0.96485
3328.07744	0.96534
3326.02053	0.96510
3323.96362	0.96453
3321.90672	0.96440
3319.84981	0.96456
3317.79290	0.96465
3315.73599	0.96489
3313.67908	0.96513
3311.62217	0.96479
3309.56527	0.96449
3307.50836	0.96499
3305.45145	0.96570
3303.39454	0.96611
3301.33763	0.96638
3299.28073	0.96626
3297.22382	0.96531
3295.16691	0.96445
3293.11000	0.96494
3291.05309	0.96607
3288.99618	0.96654
3286.93928	0.96648
3284.88237	0.96663
3282.82546	0.96710
3280.76855	0.96752
3278.71164	0.96758
3276.65474	0.96737
3274.59783	0.96715
3272.54092	0.96714
3270.48401	0.96725
3268.42710	0.96746
3266.37019	0.96763
3264.31329	0.96759
3262.25638	0.96772
3260.19947	0.96812
3258.14256	0.96858
3256.08565	0.96903
3254.02875	0.96929
3251.97184	0.96944
3249.91493	0.96943
3247.85802	0.96920
3245.80111	0.96912
3243.74420	0.96940
3241.68730	0.96963
3239.63039	0.96966
3237.57348	0.96988
3235.51657	0.97038
3233.45966	0.97056
3231.40276	0.97048
3229.34585	0.97085
3227.28894	0.97155
3225.23203	0.97215
3223.17512	0.97237
3221.11821	0.97203
3219.06131	0.97153
3217.00440	0.97168
3214.94749	0.97221
3212.89058	0.97257
3210.83367	0.97294
3208.77677	0.97321
3206.71986	0.97335
3204.66295	0.97343
3202.60604	0.97351
3200.54913	0.97367
3198.49222	0.97385
3196.43532	0.97395
3194.37841	0.97374
3192.32150	0.97358
3190.26459	0.97391
3188.20768	0.97429
3186.15078	0.97456
3184.09387	0.97484
3182.03696	0.97491
3179.98005	0.97510
3177.92314	0.97569
3175.86623	0.97630
3173.80933	0.97656
3171.75242	0.97622
3169.69551	0.97570
3167.63860	0.97563
3165.58169	0.97582
3163.52479	0.97605
3161.46788	0.97650
3159.41097	0.97716
3157.35406	0.97755
3155.29715	0.97746
3153.24024	0.97718
3151.18334	0.97716
3149.12643	0.97738
3147.06952	0.97752
3145.01261	0.97766
3142.95570	0.97800
3140.89880	0.97852
3138.84189	0.97895
3136.78498	0.97908
3134.72807	0.97880
3132.67116	0.97836
3130.61425	0.97846
3128.55735	0.97892
3126.50044	0.97913
3124.44353	0.97922
3122.38662	0.97901
3120.32971	0.97861
3118.27281	0.97874
3116.21590	0.97906
3114.15899	0.97887
3112.10208	0.97874
3110.04517	0.97904
3107.98826	0.97954
3105.93136	0.98029
3103.87445	0.98110
3101.81754	0.98150
3099.76063	0.98130
3097.70372	0.98104
3095.64682	0.98120
3093.58991	0.98156
3091.53300	0.98167
3089.47609	0.98138
3087.41918	0.98083
3085.36227	0.98050
3083.30537	0.98092
3081.24846	0.98184
3079.19155	0.98247
3077.13464	0.98255
3075.07773	0.98234
3073.02083	0.98210
3070.96392	0.98207
3068.90701	0.98188
3066.85010	0.98157
3064.79319	0.98202
3062.73628	0.98264
3060.67938	0.98268
3058.62247	0.98270
3056.56556	0.98297
3054.50865	0.98299
3052.45174	0.98258
3050.39484	0.98233
3048.33793	0.98259
3046.28102	0.98302
3044.22411	0.98341
3042.16720	0.98354
3040.11029	0.98337
3038.05339	0.98340
3035.99648	0.98378
3033.93957	0.98405
3031.88266	0.98376
3029.82575	0.98337
3027.76885	0.98358
3025.71194	0.98396
3023.65503	0.98427
3021.59812	0.98444
3019.54121	0.98405
3017.48430	0.98361
3015.42740	0.98396
3013.37049	0.98477
3011.31358	0.98504
3009.25667	0.98455
3007.19976	0.98410
3005.14286	0.98418
3003.08595	0.98432
3001.02904	0.98413
2998.97213	0.98402
2996.91522	0.98409
2994.85831	0.98385
2992.80141	0.98351
2990.74450	0.98367
2988.68759	0.98391
2986.63068	0.98373
2984.57377	0.98333
2982.51687	0.98296
2980.45996	0.98286
2978.40305	0.98301
2976.34614	0.98307
2974.28923	0.98305
2972.23232	0.98316
2970.17542	0.98310
2968.11851	0.98269
2966.06160	0.98242
2964.00469	0.98235
2961.94778	0.98200
2959.89088	0.98162
2957.83397	0.98161
2955.77706	0.98137
2953.72015	0.98066
2951.66324	0.98006
2949.60633	0.97976
2947.54943	0.97969
2945.49252	0.97976
2943.43561	0.97939
2941.37870	0.97850
2939.32179	0.97790
2937.26489	0.97768
2935.20798	0.97731
2933.15107	0.97704
2931.09416	0.97706
2929.03725	0.97687
2926.98034	0.97642
2924.92344	0.97587
2922.86653	0.97561
2920.80962	0.97611
2918.75271	0.97670
2916.69580	0.97662
2914.63890	0.97611
2912.58199	0.97575
2910.52508	0.97579
2908.46817	0.97598
2906.41126	0.97616
2904.35435	0.97594
2902.29745	0.97515
2900.24054	0.97466
2898.18363	0.97484
2896.12672	0.97490
2894.06981	0.97451
2892.01291	0.97416
2889.95600	0.97403
2887.89909	0.97384
2885.84218	0.97367
2883.78527	0.97361
2881.72836	0.97384
2879.67146	0.97438
2877.61455	0.97467
2875.55764	0.97479
2873.50073	0.97511
2871.44382	0.97508
2869.38692	0.97489
2867.33001	0.97507
2865.27310	0.97530
2863.21619	0.97563
2861.15928	0.97627
2859.10237	0.97687
2857.04547	0.97710
2854.98856	0.97733
2852.93165	0.97785
2850.87474	0.97844
2848.81783	0.97892
2846.76093	0.97909
2844.70402	0.97902
2842.64711	0.97900
2840.59020	0.97927
2838.53329	0.97988
2836.47638	0.98039
2834.41948	0.98061
2832.36257	0.98082
2830.30566	0.98112
2828.24875	0.98144
2826.19184	0.98146
2824.13494	0.98120
2822.07803	0.98123
2820.02112	0.98164
2817.96421	0.98207
2815.90730	0.98224
2813.85039	0.98212
2811.79349	0.98201
2809.73658	0.98203
2807.67967	0.98218
2805.62276	0.98235
2803.56585	0.98229
2801.50895	0.98215
2799.45204	0.98223
2797.39513	0.98238
2795.33822	0.98257
2793.28131	0.98291
2791.22440	0.98281
2789.16750	0.98230
2787.11059	0.98235
2785.05368	0.98300
2782.99677	0.98333
2780.93986	0.98322
2778.88296	0.98309
2776.82605	0.98299
2774.76914	0.98311
2772.71223	0.98332
2770.65532	0.98335
2768.59841	0.98333
2766.54151	0.98308
2764.48460	0.98277
2762.42769	0.98285
2760.37078	0.98309
2758.31387	0.98324
2756.25697	0.98339
2754.20006	0.98341
2752.14315	0.98337
2750.08624	0.98350
2748.02933	0.98374
2745.97242	0.98377
2743.91552	0.98350
2741.85861	0.98342
2739.80170	0.98368
2737.74479	0.98405
2735.68788	0.98428
2733.63098	0.98409
2731.57407	0.98359
2729.51716	0.98329
2727.46025	0.98343
2725.40334	0.98379
2723.34643	0.98390
2721.28953	0.98367
2719.23262	0.98360
2717.17571	0.98393
2715.11880	0.98425
2713.06189	0.98422
2711.00499	0.98401
2708.94808	0.98373
2706.89117	0.98351
2704.83426	0.98361
2702.77735	0.98370
2700.72044	0.98346
2698.66354	0.98337
2696.60663	0.98370
2694.54972	0.98413
2692.49281	0.98450
2690.43590	0.98465
2688.37900	0.98438
2686.32209	0.98407
2684.26518	0.98418
2682.20827	0.98439
2680.15136	0.98439
2678.09445	0.98434
2676.03755	0.98441
2673.98064	0.98446
2671.92373	0.98417
2669.86682	0.98384
2667.80991	0.98398
2665.75301	0.98444
2663.69610	0.98463
2661.63919	0.98439
2659.58228	0.98414
2657.52537	0.98420
2655.46846	0.98428
2653.41156	0.98414
2651.35465	0.98403
2649.29774	0.98413
2647.24083	0.98421
2645.18392	0.98420
2643.12702	0.98422
2641.07011	0.98422
2639.01320	0.98411
2636.95629	0.98399
2634.89938	0.98404
2632.84247	0.98431
2630.78557	0.98426
2628.72866	0.98381
2626.67175	0.98351
2624.61484	0.98364
2622.55793	0.98407
2620.50103	0.98440
2618.44412	0.98452
2616.38721	0.98453
2614.33030	0.98443
2612.27339	0.98468
2610.21648	0.98548
2608.15958	0.98591
2606.10267	0.98540
2604.04576	0.98492
2601.98885	0.98519
2599.93194	0.98574
2597.87504	0.98602
2595.81813	0.98598
2593.76122	0.98601
2591.70431	0.98591
2589.64740	0.98547
2587.59049	0.98527
2585.53359	0.98529
2583.47668	0.98510
2581.41977	0.98481
2579.36286	0.98459
2577.30595	0.98446
2575.24905	0.98462
2573.19214	0.98488
2571.13523	0.98484
2569.07832	0.98503
2567.02141	0.98554
2564.96450	0.98572
2562.90760	0.98570
2560.85069	0.98547
2558.79378	0.98485
2556.73687	0.98468
2554.67996	0.98537
2552.62306	0.98604
2550.56615	0.98595
2548.50924	0.98555
2546.45233	0.98550
2544.39542	0.98566
2542.33851	0.98566
2540.28161	0.98552
2538.22470	0.98549
2536.16779	0.98558
2534.11088	0.98590
2532.05397	0.98604
2529.99707	0.98578
2527.94016	0.98559
2525.88325	0.98523
2523.82634	0.98481
2521.76943	0.98518
2519.71252	0.98631
2517.65562	0.98718
2515.59871	0.98699
2513.54180	0.98630
2511.48489	0.98592
2509.42798	0.98593
2507.37108	0.98634
2505.31417	0.98674
2503.25726	0.98639
2501.20035	0.98574
2499.14344	0.98558
2497.08653	0.98585
2495.02963	0.98629
2492.97272	0.98650
2490.91581	0.98630
2488.85890	0.98631
2486.80199	0.98684
2484.74509	0.98686
2482.68818	0.98608
2480.63127	0.98545
2478.57436	0.98566
2476.51745	0.98639
2474.46054	0.98677
2472.40364	0.98673
2470.34673	0.98668
2468.28982	0.98685
2466.23291	0.98715
2464.17600	0.98709
2462.11910	0.98667
2460.06219	0.98619
2458.00528	0.98553
2455.94837	0.98500
2453.89146	0.98546
2451.83455	0.98655
2449.77765	0.98723
2447.72074	0.98727
2445.66383	0.98670
2443.60692	0.98631
2441.55001	0.98639
2439.49311	0.98624
2437.43620	0.98646
2435.37929	0.98691
2433.32238	0.98641
2431.26547	0.98554
2429.20856	0.98554
2427.15166	0.98626
2425.09475	0.98689
2423.03784	0.98719
2420.98093	0.98723
2418.92402	0.98730
2416.86712	0.98726
2414.81021	0.98673
2412.75330	0.98630
2410.69639	0.98661
2408.63948	0.98708
2406.58257	0.98707
2404.52567	0.98695
2402.46876	0.98720
2400.41185	0.98751
2398.35494	0.98734
2396.29803	0.98670
2394.24113	0.98632
2392.18422	0.98670
2390.12731	0.98712
2388.07040	0.98697
2386.01349	0.98682
2383.95658	0.98697
2381.89968	0.98701
2379.84277	0.98696
2377.78586	0.98685
2375.72895	0.98671
2373.67204	0.98664
2371.61514	0.98648
2369.55823	0.98658
2367.50132	0.98689
2365.44441	0.98693
2363.38750	0.98735
2361.33059	0.98811
2359.27369	0.98757
2357.21678	0.98601
2355.15987	0.98551
2353.10296	0.98623
2351.04605	0.98685
2348.98915	0.98644
2346.93224	0.98542
2344.87533	0.98532
2342.81842	0.98645
2340.76151	0.98729
2338.70460	0.98738
2336.64770	0.98682
2334.59079	0.98610
2332.53388	0.98617
2330.47697	0.98661
2328.42006	0.98614
2326.36316	0.98484
2324.30625	0.98432
2322.24934	0.98486
2320.19243	0.98493
2318.13552	0.98463
2316.07861	0.98507
2314.02171	0.98577
2311.96480	0.98568
2309.90789	0.98495
2307.85098	0.98471
2305.79407	0.98539
2303.73717	0.98586
2301.68026	0.98594
2299.62335	0.98636
2297.56644	0.98656
2295.50953	0.98622
2293.45262	0.98594
2291.39572	0.98570
2289.33881	0.98540
2287.28190	0.98605
2285.22499	0.98734
2283.16808	0.98714
2281.11117	0.98585
2279.05427	0.98561
2276.99736	0.98576
2274.94045	0.98538
2272.88354	0.98557
2270.82663	0.98604
2268.76973	0.98617
2266.71282	0.98670
2264.65591	0.98729
2262.59900	0.98751
2260.54209	0.98763
2258.48518	0.98780
2256.42828	0.98811
2254.37137	0.98777
2252.31446	0.98703
2250.25755	0.98705
2248.20064	0.98758
2246.14374	0.98833
2244.08683	0.98916
2242.02992	0.98902
2239.97301	0.98808
2237.91610	0.98757
2235.85919	0.98764
2233.80229	0.98769
2231.74538	0.98743
2229.68847	0.98735
2227.63156	0.98788
2225.57465	0.98827
2223.51775	0.98824
2221.46084	0.98808
2219.40393	0.98699
2217.34702	0.98575
2215.29011	0.98691
2213.23320	0.98933
2211.17630	0.98969
2209.11939	0.98855
2207.06248	0.98771
2205.00557	0.98800
2202.94866	0.98951
2200.89176	0.98969
2198.83485	0.98783
2196.77794	0.98662
2194.72103	0.98615
2192.66412	0.98578
2190.60721	0.98622
2188.55031	0.98622
2186.49340	0.98579
2184.43649	0.98657
2182.37958	0.98758
2180.32267	0.98668
2178.26577	0.98445
2176.20886	0.98412
2174.15195	0.98577
2172.09504	0.98662
2170.03813	0.98721
2167.98122	0.98840
2165.92432	0.98819
2163.86741	0.98733
2161.81050	0.98825
2159.75359	0.98999
2157.69668	0.99013
2155.63978	0.98862
2153.58287	0.98804
2151.52596	0.98977
2149.46905	0.99123
2147.41214	0.99058
2145.35523	0.99051
2143.29833	0.99093
2141.24142	0.98983
2139.18451	0.98850
2137.12760	0.98754
2135.07069	0.98708
2133.01379	0.98749
2130.95688	0.98781
2128.89997	0.98762
2126.84306	0.98752
2124.78615	0.98768
2122.72924	0.98801
2120.67234	0.98881
2118.61543	0.98975
2116.55852	0.98968
2114.50161	0.98852
2112.44470	0.98726
2110.38780	0.98695
2108.33089	0.98788
2106.27398	0.98880
2104.21707	0.98830
2102.16016	0.98725
2100.10325	0.98723
2098.04635	0.98798
2095.98944	0.98874
2093.93253	0.98876
2091.87562	0.98829
2089.81871	0.98853
2087.76181	0.98897
2085.70490	0.98895
2083.64799	0.98881
2081.59108	0.98836
2079.53417	0.98820
2077.47726	0.98894
2075.42036	0.98961
2073.36345	0.98996
2071.30654	0.98967
2069.24963	0.98819
2067.19272	0.98714
2065.13582	0.98764
2063.07891	0.98828
2061.02200	0.98802
2058.96509	0.98737
2056.90818	0.98681
2054.85127	0.98671
2052.79437	0.98736
2050.73746	0.98835
2048.68055	0.98856
2046.62364	0.98722
2044.56673	0.98544
2042.50983	0.98431
2040.45292	0.98493
2038.39601	0.98711
2036.33910	0.98845
2034.28219	0.98919
2032.22528	0.99083
2030.16838	0.99193
2028.11147	0.99087
2026.05456	0.98912
2023.99765	0.98887
2021.94074	0.98886
2019.88384	0.98836
2017.82693	0.98928
2015.77002	0.98972
2013.71311	0.98753
2011.65620	0.98618
2009.59929	0.98755
2007.54239	0.98886
2005.48548	0.98964
2003.42857	0.99128
2001.37166	0.99188
1999.31475	0.98994
1997.25785	0.98775
1995.20094	0.98747
1993.14403	0.98801
1991.08712	0.98803
1989.03021	0.98811
1986.97330	0.98826
1984.91640	0.98777
1982.85949	0.98660
1980.80258	0.98545
1978.74567	0.98597
1976.68876	0.98860
1974.63186	0.99034
1972.57495	0.98981
1970.51804	0.98901
1968.46113	0.98950
1966.40422	0.99070
1964.34731	0.99130
1962.29041	0.99117
1960.23350	0.99081
1958.17659	0.99113
1956.11968	0.99197
1954.06277	0.99207
1952.00587	0.99125
1949.94896	0.98995
1947.89205	0.98940
1945.83514	0.99074
1943.77823	0.99194
1941.72132	0.99144
1939.66442	0.99066
1937.60751	0.98959
1935.55060	0.98846
1933.49369	0.98862
1931.43678	0.98942
1929.37988	0.98966
1927.32297	0.98946
1925.26606	0.98913
1923.20915	0.98879
1921.15224	0.98915
1919.09533	0.98991
1917.03843	0.98932
1914.98152	0.98760
1912.92461	0.98695
1910.86770	0.98749
1908.81079	0.98800
1906.75389	0.98818
1904.69698	0.98793
1902.64007	0.98753
1900.58316	0.98741
1898.52625	0.98775
1896.46934	0.98850
1894.41244	0.98893
1892.35553	0.98876
1890.29862	0.98899
1888.24171	0.98966
1886.18480	0.98929
1884.12790	0.98859
1882.07099	0.98885
1880.01408	0.98929
1877.95717	0.98901
1875.90026	0.98842
1873.84335	0.98814
1871.78645	0.98795
1869.72954	0.98804
1867.67263	0.98835
1865.61572	0.98791
1863.55881	0.98726
1861.50191	0.98719
1859.44500	0.98756
1857.38809	0.98832
1855.33118	0.98912
1853.27427	0.98959
1851.21736	0.98975
1849.16046	0.98943
1847.10355	0.98881
1845.04664	0.98831
1842.98973	0.98811
1840.93282	0.98819
1838.87592	0.98836
1836.81901	0.98857
1834.76210	0.98887
1832.70519	0.98913
1830.64828	0.98892
1828.59137	0.98847
1826.53447	0.98833
1824.47756	0.98837
1822.42065	0.98863
1820.36374	0.98904
1818.30683	0.98918
1816.24993	0.98919
1814.19302	0.98927
1812.13611	0.98909
1810.07920	0.98859
1808.02229	0.98803
1805.96538	0.98784
1803.90848	0.98820
1801.85157	0.98858
1799.79466	0.98869
1797.73775	0.98865
1795.68084	0.98846
1793.62394	0.98845
1791.56703	0.98867
1789.51012	0.98880
1787.45321	0.98884
1785.39630	0.98889
1783.33939	0.98875
1781.28249	0.98824
1779.22558	0.98797
1777.16867	0.98826
1775.11176	0.98851
1773.05485	0.98835
1770.99795	0.98768
1768.94104	0.98667
1766.88413	0.98589
1764.82722	0.98554
1762.77031	0.98499
1760.71340	0.98367
1758.65650	0.98196
1756.59959	0.98007
1754.54268	0.97810
1752.48577	0.97577
1750.42886	0.97298
1748.37196	0.97060
1746.31505	0.96875
1744.25814	0.96711
1742.20123	0.96567
1740.14432	0.96413
1738.08741	0.96240
1736.03051	0.96095
1733.97360	0.95952
1731.91669	0.95847
1729.85978	0.95824
1727.80287	0.95818
1725.74597	0.95815
1723.68906	0.95841
1721.63215	0.95894
1719.57524	0.95944
1717.51833	0.96009
1715.46142	0.96158
1713.40452	0.96315
1711.34761	0.96434
1709.29070	0.96574
1707.23379	0.96738
1705.17688	0.96902
1703.11998	0.97052
1701.06307	0.97205
1699.00616	0.97345
1696.94925	0.97469
1694.89234	0.97621
1692.83543	0.97720
1690.77853	0.97755
1688.72162	0.97790
1686.66471	0.97860
1684.60780	0.97964
1682.55089	0.98035
1680.49399	0.98067
1678.43708	0.98111
1676.38017	0.98141
1674.32326	0.98119
1672.26635	0.98088
1670.20944	0.98065
1668.15254	0.98058
1666.09563	0.98087
1664.03872	0.98122
1661.98181	0.98134
1659.92490	0.98119
1657.86800	0.98104
1655.81109	0.98107
1653.75418	0.98118
1651.69727	0.98083
1649.64036	0.98046
1647.58345	0.98041
1645.52655	0.98052
1643.46964	0.98067
1641.41273	0.98092
1639.35582	0.98124
1637.29891	0.98152
1635.24201	0.98136
1633.18510	0.98101
1631.12819	0.98079
1629.07128	0.98066
1627.01437	0.98092
1624.95746	0.98124
1622.90056	0.98116
1620.84365	0.98110
1618.78674	0.98125
1616.72983	0.98161
1614.67292	0.98199
1612.61602	0.98226
1610.55911	0.98246
1608.50220	0.98247
1606.44529	0.98262
1604.38838	0.98295
1602.33147	0.98296
1600.27457	0.98280
1598.21766	0.98277
1596.16075	0.98277
1594.10384	0.98281
1592.04693	0.98283
1589.99003	0.98292
1587.93312	0.98319
1585.87621	0.98338
1583.81930	0.98334
1581.76239	0.98334
1579.70548	0.98352
1577.64858	0.98373
1575.59167	0.98359
1573.53476	0.98320
1571.47785	0.98304
1569.42094	0.98312
1567.36404	0.98328
1565.30713	0.98368
1563.25022	0.98424
1561.19331	0.98463
1559.13640	0.98462
1557.07949	0.98424
1555.02259	0.98404
1552.96568	0.98410
1550.90877	0.98434
1548.85186	0.98452
1546.79495	0.98431
1544.73805	0.98384
1542.68114	0.98358
1540.62423	0.98388
1538.56732	0.98461
1536.51041	0.98484
1534.45350	0.98477
1532.39660	0.98485
1530.33969	0.98474
1528.28278	0.98444
1526.22587	0.98454
1524.16896	0.98483
1522.11206	0.98464
1520.05515	0.98426
1517.99824	0.98457
1515.94133	0.98531
1513.88442	0.98547
1511.82751	0.98497
1509.77061	0.98444
1507.71370	0.98418
1505.65679	0.98426
1503.59988	0.98452
1501.54297	0.98491
1499.48607	0.98530
1497.42916	0.98517
1495.37225	0.98472
1493.31534	0.98457
1491.25843	0.98437
1489.20152	0.98390
1487.14462	0.98354
1485.08771	0.98325
1483.03080	0.98296
1480.97389	0.98291
1478.91698	0.98280
1476.86008	0.98226
1474.80317	0.98140
1472.74626	0.98036
1470.68935	0.97950
1468.63244	0.97898
1466.57553	0.97831
1464.51863	0.97729
1462.46172	0.97652
1460.40481	0.97619
1458.34790	0.97590
1456.29099	0.97519
1454.23409	0.97465
1452.17718	0.97441
1450.12027	0.97387
1448.06336	0.97313
1446.00645	0.97246
1443.94954	0.97172
1441.89264	0.97114
1439.83573	0.97083
1437.77882	0.97038
1435.72191	0.96961
1433.66500	0.96897
1431.60810	0.96844
1429.55119	0.96802
1427.49428	0.96803
1425.43737	0.96811
1423.38046	0.96783
1421.32355	0.96764
1419.26665	0.96784
1417.20974	0.96794
1415.15283	0.96774
1413.09592	0.96773
1411.03901	0.96802
1408.98211	0.96821
1406.92520	0.96805
1404.86829	0.96778
1402.81138	0.96778
1400.75447	0.96772
1398.69756	0.96744
1396.64066	0.96726
1394.58375	0.96714
1392.52684	0.96674
1390.46993	0.96583
1388.41302	0.96471
1386.35612	0.96384
1384.29921	0.96301
1382.24230	0.96163
1380.18539	0.95989
1378.12848	0.95825
1376.07157	0.95682
1374.01467	0.95548
1371.95776	0.95437
1369.90085	0.95389
1367.84394	0.95403
1365.78703	0.95451
1363.73013	0.95533
1361.67322	0.95649
1359.61631	0.95789
1357.55940	0.95933
1355.50249	0.96046
1353.44558	0.96133
1351.38868	0.96230
1349.33177	0.96321
1347.27486	0.96366
1345.21795	0.96383
1343.16104	0.96395
1341.10414	0.96396
1339.04723	0.96382
1336.99032	0.96387
1334.93341	0.96415
1332.87650	0.96422
1330.81959	0.96411
1328.76269	0.96432
1326.70578	0.96483
1324.64887	0.96509
1322.59196	0.96510
1320.53505	0.96491
1318.47815	0.96448
1316.42124	0.96434
1314.36433	0.96468
1312.30742	0.96515
1310.25051	0.96549
1308.19360	0.96560
1306.13670	0.96555
1304.07979	0.96554
1302.02288	0.96576
1299.96597	0.96602
1297.90906	0.96612
1295.85216	0.96617
1293.79525	0.96619
1291.73834	0.96608
1289.68143	0.96604
1287.62452	0.96599
1285.56761	0.96542
1283.51071	0.96447
1281.45380	0.96385
1279.39689	0.96362
1277.33998	0.96300
1275.28307	0.96183
1273.22617	0.96072
1271.16926	0.95979
1269.11235	0.95852
1267.05544	0.95685
1264.99853	0.95524
1262.94162	0.95382
1260.88472	0.95228
1258.82781	0.95043
1256.77090	0.94854
1254.71399	0.94679
1252.65708	0.94522
1250.60018	0.94384
1248.54327	0.94242
1246.48636	0.94099
1244.42945	0.93975
1242.37254	0.93887
1240.31563	0.93831
1238.25873	0.93770
1236.20182	0.93709
1234.14491	0.93689
1232.08800	0.93708
1230.03109	0.93740
1227.97419	0.93792
1225.91728	0.93908
1223.86037	0.94102
1221.80346	0.94324
1219.74655	0.94538
1217.68964	0.94773
1215.63274	0.95046
1213.57583	0.95299
1211.51892	0.95490
1209.46201	0.95648
1207.40510	0.95787
1205.34820	0.95877
1203.29129	0.95921
1201.23438	0.95951
1199.17747	0.95999
1197.12056	0.96111
1195.06365	0.96268
1193.00675	0.96389
1190.94984	0.96470
1188.89293	0.96546
1186.83602	0.96599
1184.77911	0.96623
1182.72221	0.96620
1180.66530	0.96572
1178.60839	0.96455
1176.55148	0.96288
1174.49457	0.96089
1172.43766	0.95873
1170.38076	0.95638
1168.32385	0.95385
1166.26694	0.95152
1164.21003	0.94927
1162.15312	0.94696
1160.09622	0.94507
1158.03931	0.94398
1155.98240	0.94366
1153.92549	0.94392
1151.86858	0.94460
1149.81167	0.94551
1147.75477	0.94645
1145.69786	0.94723
1143.64095	0.94764
1141.58404	0.94758
1139.52713	0.94722
1137.47023	0.94634
1135.41332	0.94470
1133.35641	0.94279
1131.29950	0.94112
1129.24259	0.93945
1127.18568	0.93751
1125.12878	0.93542
1123.07187	0.93319
1121.01496	0.93103
1118.95805	0.92927
1116.90114	0.92774
1114.84424	0.92625
1112.78733	0.92481
1110.73042	0.92357
1108.67351	0.92229
1106.61660	0.92098
1104.55969	0.91992
1102.50279	0.91877
1100.44588	0.91710
1098.38897	0.91494
1096.33206	0.91285
1094.27515	0.91128
1092.21825	0.90992
1090.16134	0.90840
1088.10443	0.90682
1086.04752	0.90503
1083.99061	0.90283
1081.93370	0.90042
1079.87680	0.89796
1077.81989	0.89558
1075.76298	0.89317
1073.70607	0.89049
1071.64916	0.88785
1069.59226	0.88562
1067.53535	0.88372
1065.47844	0.88187
1063.42153	0.88007
1061.36462	0.87863
1059.30771	0.87738
1057.25081	0.87599
1055.19390	0.87464
1053.13699	0.87359
1051.08008	0.87252
1049.02317	0.87114
1046.96627	0.86972
1044.90936	0.86834
1042.85245	0.86687
1040.79554	0.86557
1038.73863	0.86466
1036.68172	0.86358
1034.62482	0.86210
1032.56791	0.86064
1030.51100	0.85908
1028.45409	0.85737
1026.39718	0.85585
1024.34028	0.85468
1022.28337	0.85401
1020.22646	0.85368
1018.16955	0.85370
1016.11264	0.85429
1014.05573	0.85515
1011.99883	0.85623
1009.94192	0.85769
1007.88501	0.85909
1005.82810	0.86024
1003.77119	0.86157
1001.71429	0.86311
999.65738	0.86422
997.60047	0.86480
995.54356	0.86517
993.48665	0.86555
991.42974	0.86633
989.37284	0.86784
987.31593	0.86998
985.25902	0.87221
983.20211	0.87435
981.14520	0.87690
979.08830	0.88006
977.03139	0.88338
974.97448	0.88625
972.91757	0.88870
970.86066	0.89099
968.80375	0.89304
966.74685	0.89520
964.68994	0.89747
962.63303	0.89938
960.57612	0.90129
958.51921	0.90351
956.46231	0.90553
954.40540	0.90737
952.34849	0.90946
950.29158	0.91160
948.23467	0.91349
946.17776	0.91518
944.12086	0.91668
942.06395	0.91797
940.00704	0.91905
937.95013	0.92016
935.89322	0.92139
933.83632	0.92246
931.77941	0.92329
929.72250	0.92406
927.66559	0.92478
925.60868	0.92533
923.55177	0.92604
921.49487	0.92717
919.43796	0.92801
917.38105	0.92805
915.32414	0.92782
913.26723	0.92776
911.21033	0.92760
909.15342	0.92694
907.09651	0.92592
905.03960	0.92483
902.98269	0.92409
900.92578	0.92387
898.86888	0.92360
896.81197	0.92335
894.75506	0.92351
892.69815	0.92382
890.64124	0.92424
888.58434	0.92492
886.52743	0.92589
884.47052	0.92748
882.41361	0.92953
880.35670	0.93128
878.29979	0.93280
876.24289	0.93476
874.18598	0.93694
872.12907	0.93838
870.07216	0.93889
868.01525	0.93929
865.95835	0.94028
863.90144	0.94182
861.84453	0.94324
859.78762	0.94396
857.73071	0.94433
855.67380	0.94487
853.61690	0.94534
851.55999	0.94549
849.50308	0.94541
847.44617	0.94527
845.38926	0.94540
843.33236	0.94588
841.27545	0.94624
839.21854	0.94637
837.16163	0.94689
835.10472	0.94786
833.04781	0.94833
830.99091	0.94836
828.93400	0.94866
826.87709	0.94879
824.82018	0.94827
822.76327	0.94766
820.70637	0.94770
818.64946	0.94832
816.59255	0.94880
814.53564	0.94918
812.47873	0.94971
810.42182	0.94994
808.36492	0.94983
806.30801	0.94974
804.25110	0.94967
802.19419	0.94954
800.13728	0.94967
798.08038	0.94993
796.02347	0.94997
793.96656	0.95015
791.90965	0.95021
789.85274	0.94969
787.79583	0.94929
785.73893	0.94932
783.68202	0.94941
781.62511	0.94972
779.56820	0.95040
777.51129	0.95092
775.45439	0.95091
773.39748	0.95094
771.34057	0.95120
769.28366	0.95141
767.22675	0.95160
765.16984	0.95152
763.11294	0.95103
761.05603	0.95051
758.99912	0.95043
756.94221	0.95102
754.88530	0.95141
752.82839	0.95102
750.77149	0.95068
748.71458	0.95064
746.65767	0.95049
744.60076	0.95042
742.54385	0.95035
740.48695	0.95010
738.43004	0.95029
736.37313	0.95062
734.31622	0.95023
732.25931	0.94973
730.20240	0.94948
728.14550	0.94914
726.08859	0.94881
724.03168	0.94864
721.97477	0.94861
719.91786	0.94861
717.86096	0.94853
715.80405	0.94821
713.74714	0.94746
711.69023	0.94662
709.63332	0.94629
707.57641	0.94593
705.51951	0.94506
703.46260	0.94431
701.40569	0.94405
699.34878	0.94391
697.29187	0.94393
695.23497	0.94453
693.17806	0.94512
691.12115	0.94505
689.06424	0.94445
687.00733	0.94364
684.95042	0.94298
682.89352	0.94211
680.83661	0.94059
678.77970	0.93859
676.72279	0.93676
674.66588	0.93563
672.60898	0.93462
670.55207	0.93335
668.49516	0.93182
666.43825	0.93069
664.38134	0.93021
662.32443	0.92967
660.26753	0.92946
658.21062	0.92974
656.15371	0.92979
654.09680	0.92962
652.03989	0.92979
649.98299	0.92921
647.92608	0.92772
645.86917	0.92699
643.81226	0.92677
641.75535	0.92650
639.69844	0.92609
637.64154	0.92495
635.58463	0.92389
633.52772	0.92389
631.47081	0.92367
629.41390	0.92298
627.35700	0.92293
625.30009	0.92266
623.24318	0.92131
621.18627	0.91957
619.12936	0.91856
617.07245	0.91794
615.01555	0.91673
612.95864	0.91518
610.90173	0.91358
608.84482	0.91226
606.78791	0.91185
604.73101	0.91195
602.67410	0.91137
600.61719	0.91020
598.56028	0.90963
596.50337	0.91020
594.44646	0.91139
592.38956	0.91194
590.33265	0.91111
588.27574	0.90992
586.21883	0.90989
584.16192	0.91013
582.10502	0.90996
580.04811	0.91024
577.99120	0.90998
575.93429	0.90900
573.87738	0.90789
571.82047	0.90658
569.76357	0.90635
567.70666	0.90651
565.64975	0.90558
563.59284	0.90424
561.53593	0.90310
559.47903	0.90295
557.42212	0.90363
555.36521	0.90364
553.30830	0.90375
551.25139	0.90540
549.19448	0.90752
547.13758	0.90861
545.08067	0.90833
543.02376	0.90657
540.96685	0.90456
538.90994	0.90407
536.85304	0.90420
534.79613	0.90275
532.73922	0.90063
530.68231	0.89944
528.62540	0.89839
526.56849	0.89813
524.51159	0.89968
522.45468	0.90074
520.39777	0.90044
518.34086	0.90001
516.28395	0.89976
514.22705	0.90031
512.17014	0.90102
510.11323	0.89982
508.05632	0.89723
505.99941	0.89534
503.94250	0.89512
501.88560	0.89538
499.82869	0.89533
497.77178	0.89585
495.71487	0.89555
493.65796	0.89371
491.60106	0.89185
489.54415	0.89109
487.48724	0.89183
485.43033	0.89188
483.37342	0.89033
481.31651	0.88923
479.25961	0.88854
477.20270	0.88826
475.14579	0.88917
473.08888	0.88897
471.03197	0.88525
468.97507	0.88064
466.91816	0.87920
464.86125	0.88130
462.80434	0.88436
460.74743	0.88559
458.69052	0.88354
456.63362	0.88166
454.57671	0.88218
452.51980	0.88174
450.46289	0.88020
448.40598	0.87986
446.34908	0.87950
444.29217	0.87710
442.23526	0.87495
440.17835	0.87645
438.12144	0.87914
436.06453	0.87900
434.00763	0.87673
431.95072	0.87436
429.89381	0.87416
427.83690	0.87784
425.77999	0.88043
423.72309	0.87861
421.66618	0.87743
419.60927	0.87745
417.55236	0.87564
415.49545	0.87484
413.43854	0.87481
411.38164	0.87314
409.32473	0.86972
407.26782	0.86848
405.21091	0.87098
403.15400	0.87325
401.09710	0.87334
399.04019	0.87172
