3996.57260	0.98813
3994.51569	0.98830
3992.45878	0.98852
3990.40188	0.98846
3988.34497	0.98818
3986.28806	0.98788
3984.23115	0.98783
3982.17424	0.98807
3980.11733	0.98810
3978.06043	0.98774
3976.00352	0.98748
3973.94661	0.98773
3971.88970	0.98805
3969.83279	0.98807
3967.77589	0.98800
3965.71898	0.98797
3963.66207	0.98801
3961.60516	0.98798
3959.54825	0.98780
3957.49134	0.98795
3955.43444	0.98850
3953.37753	0.98901
3951.32062	0.98969
3949.26371	0.99003
3947.20680	0.98892
3945.14990	0.98752
3943.09299	0.98754
3941.03608	0.98881
3938.97917	0.98965
3936.92226	0.98913
3934.86535	0.98797
3932.80845	0.98714
3930.75154	0.98705
3928.69463	0.98768
3926.63772	0.98847
3924.58081	0.98905
3922.52391	0.98920
3920.46700	0.98911
3918.41009	0.98907
3916.35318	0.98911
3914.29627	0.98886
3912.23936	0.98834
3910.18246	0.98842
3908.12555	0.98884
3906.06864	0.98860
3904.01173	0.98804
3901.95482	0.98785
3899.89792	0.98813
3897.84101	0.98865
3895.78410	0.98882
3893.72719	0.98855
3891.67028	0.98812
3889.61337	0.98771
3887.55647	0.98756
3885.49956	0.98799
3883.44265	0.98868
3881.38574	0.98843
3879.32883	0.98743
3877.27193	0.98744
3875.21502	0.98849
3873.15811	0.98935
3871.10120	0.98920
3869.04429	0.98831
3866.98738	0.98742
3864.93048	0.98727
3862.87357	0.98784
3860.81666	0.98799
3858.75975	0.98765
3856.70284	0.98737
3854.64594	0.98718
3852.58903	0.98720
3850.53212	0.98789
3848.47521	0.98897
3846.41830	0.98986
3844.36139	0.99004
3842.30449	0.98888
3840.24758	0.98719
3838.19067	0.98700
3836.13376	0.98797
3834.07685	0.98846
3832.01995	0.98829
3829.96304	0.98794
3827.90613	0.98790
3825.84922	0.98810
3823.79231	0.98833
3821.73540	0.98837
3819.67850	0.98797
3817.62159	0.98807
3815.56468	0.98909
3813.50777	0.98959
3811.45086	0.98927
3809.39396	0.98942
3807.33705	0.99036
3805.28014	0.99060
3803.22323	0.98988
3801.16632	0.98958
3799.10941	0.98932
3797.05251	0.98818
3794.99560	0.98743
3792.93869	0.98805
3790.88178	0.98907
3788.82487	0.98918
3786.76796	0.98837
3784.71106	0.98793
3782.65415	0.98826
3780.59724	0.98880
3778.54033	0.98900
3776.48342	0.98887
3774.42652	0.98874
3772.36961	0.98862
3770.31270	0.98911
3768.25579	0.99013
3766.19888	0.99031
3764.14197	0.98998
3762.08507	0.99044
3760.02816	0.99109
3757.97125	0.99050
3755.91434	0.98953
3753.85743	0.98963
3751.80053	0.99060
3749.74362	0.99052
3747.68671	0.98941
3745.62980	0.98879
3743.57289	0.98813
3741.51598	0.98800
3739.45908	0.98876
3737.40217	0.98950
3735.34526	0.98961
3733.28835	0.98904
3731.23144	0.98886
3729.17454	0.98918
3727.11763	0.98924
3725.06072	0.98884
3723.00381	0.98809
3720.94690	0.98772
3718.88999	0.98829
3716.83309	0.98903
3714.77618	0.98926
3712.71927	0.98921
3710.66236	0.98918
3708.60545	0.98936
3706.54855	0.98975
3704.49164	0.98982
3702.43473	0.98926
3700.37782	0.98877
3698.32091	0.98881
3696.26400	0.98898
3694.20710	0.98934
3692.15019	0.98991
3690.09328	0.98993
3688.03637	0.98900
3685.97946	0.98819
3683.92256	0.98812
3681.86565	0.98877
3679.80874	0.98965
3677.75183	0.98985
3675.69492	0.98921
3673.63801	0.98872
3671.58111	0.98834
3669.52420	0.98820
3667.46729	0.98884
3665.41038	0.98931
3663.35347	0.98942
3661.29657	0.98961
3659.23966	0.98966
3657.18275	0.98936
3655.12584	0.98887
3653.06893	0.98821
3651.01202	0.98692
3648.95512	0.98581
3646.89821	0.98681
3644.84130	0.98808
3642.78439	0.98819
3640.72748	0.98780
3638.67058	0.98775
3636.61367	0.98798
3634.55676	0.98828
3632.49985	0.98883
3630.44294	0.98893
3628.38603	0.98797
3626.32913	0.98748
3624.27222	0.98773
3622.21531	0.98763
3620.15840	0.98691
3618.10149	0.98676
3616.04459	0.98726
3613.98768	0.98685
3611.93077	0.98586
3609.87386	0.98564
3607.81695	0.98612
3605.76004	0.98619
3603.70314	0.98553
3601.64623	0.98466
3599.58932	0.98443
3597.53241	0.98475
3595.47550	0.98485
3593.41860	0.98489
3591.36169	0.98489
3589.30478	0.98421
3587.24787	0.98268
3585.19096	0.98140
3583.13405	0.98120
3581.07715	0.98121
3579.02024	0.98090
3576.96333	0.98084
3574.90642	0.98116
3572.84951	0.98137
3570.79261	0.98106
3568.73570	0.98030
3566.67879	0.97931
3564.62188	0.97866
3562.56497	0.97847
3560.50806	0.97820
3558.45116	0.97825
3556.39425	0.97869
3554.33734	0.97845
3552.28043	0.97708
3550.22352	0.97578
3548.16662	0.97517
3546.10971	0.97478
3544.05280	0.97433
3541.99589	0.97372
3539.93898	0.97331
3537.88207	0.97304
3535.82517	0.97214
3533.76826	0.97096
3531.71135	0.97047
3529.65444	0.97075
3527.59753	0.97142
3525.54063	0.97183
3523.48372	0.97138
3521.42681	0.97035
3519.36990	0.96916
3517.31299	0.96791
3515.25608	0.96709
3513.19918	0.96669
3511.14227	0.96638
3509.08536	0.96624
3507.02845	0.96620
3504.97154	0.96626
3502.91464	0.96604
3500.85773	0.96537
3498.80082	0.96444
3496.74391	0.96317
3494.68700	0.96219
3492.63009	0.96179
3490.57319	0.96167
3488.51628	0.96158
3486.45937	0.96134
3484.40246	0.96103
3482.34555	0.96076
3480.28865	0.96069
3478.23174	0.96068
3476.17483	0.96032
3474.11792	0.95930
3472.06101	0.95816
3470.00410	0.95747
3467.94720	0.95680
3465.89029	0.95637
3463.83338	0.95655
3461.77647	0.95678
3459.71956	0.95663
3457.66266	0.95633
3455.60575	0.95614
3453.54884	0.95615
3451.49193	0.95591
3449.43502	0.95524
3447.37811	0.95482
3445.32121	0.95504
3443.26430	0.95534
3441.20739	0.95491
3439.15048	0.95376
3437.09357	0.95321
3435.03667	0.95380
3432.97976	0.95448
3430.92285	0.95435
3428.86594	0.95370
3426.80903	0.95314
3424.75212	0.95277
3422.69522	0.95235
3420.63831	0.95208
3418.58140	0.95218
3416.52449	0.95223
3414.46758	0.95215
3412.41068	0.95243
3410.35377	0.95279
3408.29686	0.95298
3406.23995	0.95306
3404.18304	0.95286
3402.12613	0.95274
3400.06923	0.95286
3398.01232	0.95275
3395.95541	0.95242
3393.89850	0.95213
3391.84159	0.95207
3389.78469	0.95232
3387.72778	0.95266
3385.67087	0.95271
3383.61396	0.95223
3381.55705	0.95182
3379.50014	0.95180
3377.44324	0.95174
3375.38633	0.95166
3373.32942	0.95187
3371.27251	0.95219
3369.21560	0.95256
3367.15870	0.95303
3365.10179	0.95317
3363.04488	0.95300
3360.98797	0.95296
3358.93106	0.95305
3356.87415	0.95300
3354.81725	0.95268
3352.76034	0.95249
3350.70343	0.95244
3348.64652	0.95233
3346.58961	0.95245
3344.53271	0.95285
3342.47580	0.95306
3340.41889	0.95293
3338.36198	0.95319
3336.30507	0.95380
3334.24816	0.95375
3332.19126	0.95326
3330.13435	0.95326
3328.07744	0.95378
3326.02053	0.95436
3323.96362	0.95472
3321.90672	0.95472
3319.84981	0.95428
3317.79290	0.95401
3315.73599	0.95432
3313.67908	0.95474
3311.62217	0.95543
3309.56527	0.95630
3307.50836	0.95645
3305.45145	0.95641
3303.39454	0.95684
3301.33763	0.95696
3299.28073	0.95672
3297.22382	0.95680
3295.16691	0.95720
3293.11000	0.95750
3291.05309	0.95751
3288.99618	0.95780
3286.93928	0.95851
3284.88237	0.95875
3282.82546	0.95853
3280.76855	0.95871
3278.71164	0.95918
3276.65474	0.95935
3274.59783	0.95921
3272.54092	0.95895
3270.48401	0.95900
3268.42710	0.95912
3266.37019	0.95891
3264.31329	0.95936
3262.25638	0.96047
3260.19947	0.96072
3258.14256	0.95998
3256.08565	0.95934
3254.02875	0.95946
3251.97184	0.96038
3249.91493	0.96125
3247.85802	0.96150
3245.80111	0.96170
3243.74420	0.96210
3241.68730	0.96246
3239.63039	0.96265
3237.57348	0.96278
3235.51657	0.96330
3233.45966	0.96416
3231.40276	0.96428
3229.34585	0.96353
3227.28894	0.96341
3225.23203	0.96416
3223.17512	0.96467
3221.11821	0.96476
3219.06131	0.96480
3217.00440	0.96496
3214.94749	0.96546
3212.89058	0.96621
3210.83367	0.96649
3208.77677	0.96618
3206.71986	0.96609
3204.66295	0.96623
3202.60604	0.96607
3200.54913	0.96604
3198.49222	0.96638
3196.43532	0.96687
3194.37841	0.96747
3192.32150	0.96769
3190.26459	0.96760
3188.20768	0.96770
3186.15078	0.96808
3184.09387	0.96868
3182.03696	0.96917
3179.98005	0.96938
3177.92314	0.96954
3175.86623	0.96991
3173.80933	0.97037
3171.75242	0.97042
3169.69551	0.97026
3167.63860	0.97019
3165.58169	0.97023
3163.52479	0.97071
3161.46788	0.97125
3159.41097	0.97123
3157.35406	0.97103
3155.29715	0.97104
3153.24024	0.97146
3151.18334	0.97213
3149.12643	0.97249
3147.06952	0.97255
3145.01261	0.97264
3142.95570	0.97252
3140.89880	0.97239
3138.84189	0.97263
3136.78498	0.97293
3134.72807	0.97343
3132.67116	0.97404
3130.61425	0.97407
3128.55735	0.97391
3126.50044	0.97403
3124.44353	0.97416
3122.38662	0.97435
3120.32971	0.97467
3118.27281	0.97486
3116.21590	0.97450
3114.15899	0.97382
3112.10208	0.97411
3110.04517	0.97517
3107.98826	0.97554
3105.93136	0.97545
3103.87445	0.97593
3101.81754	0.97677
3099.76063	0.97715
3097.70372	0.97672
3095.64682	0.97611
3093.58991	0.97626
3091.53300	0.97690
3089.47609	0.97724
3087.41918	0.97733
3085.36227	0.97763
3083.30537	0.97776
3081.24846	0.97747
3079.19155	0.97728
3077.13464	0.97725
3075.07773	0.97711
3073.02083	0.97701
3070.96392	0.97719
3068.90701	0.97748
3066.85010	0.97780
3064.79319	0.97811
3062.73628	0.97814
3060.67938	0.97800
3058.62247	0.97807
3056.56556	0.97824
3054.50865	0.97854
3052.45174	0.97889
3050.39484	0.97888
3048.33793	0.97857
3046.28102	0.97837
3044.22411	0.97854
3042.16720	0.97897
3040.11029	0.97915
3038.05339	0.97897
3035.99648	0.97896
3033.93957	0.97924
3031.88266	0.97937
3029.82575	0.97938
3027.76885	0.97938
3025.71194	0.97892
3023.65503	0.97821
3021.59812	0.97848
3019.54121	0.97935
3017.48430	0.97960
3015.42740	0.97938
3013.37049	0.97940
3011.31358	0.97977
3009.25667	0.98008
3007.19976	0.98002
3005.14286	0.97976
3003.08595	0.97939
3001.02904	0.97911
2998.97213	0.97917
2996.91522	0.97929
2994.85831	0.97939
2992.80141	0.97939
2990.74450	0.97918
2988.68759	0.97896
2986.63068	0.97894
2984.57377	0.97915
2982.51687	0.97923
2980.45996	0.97889
2978.40305	0.97839
2976.34614	0.97812
2974.28923	0.97799
2972.23232	0.97771
2970.17542	0.97713
2968.11851	0.97630
2966.06160	0.97563
2964.00469	0.97543
2961.94778	0.97529
2959.89088	0.97462
2957.83397	0.97373
2955.77706	0.97324
2953.72015	0.97310
2951.66324	0.97301
2949.60633	0.97282
2947.54943	0.97231
2945.49252	0.97158
2943.43561	0.97068
2941.37870	0.96958
2939.32179	0.96863
2937.26489	0.96796
2935.20798	0.96735
2933.15107	0.96673
2931.09416	0.96616
2929.03725	0.96552
2926.98034	0.96467
2924.92344	0.96380
2922.86653	0.96361
2920.80962	0.96415
2918.75271	0.96424
2916.69580	0.96381
2914.63890	0.96388
2912.58199	0.96447
2910.52508	0.96506
2908.46817	0.96542
2906.41126	0.96549
2904.35435	0.96533
2902.29745	0.96516
2900.24054	0.96509
2898.18363	0.96497
2896.12672	0.96480
2894.06981	0.96466
2892.01291	0.96449
2889.95600	0.96444
2887.89909	0.96457
2885.84218	0.96464
2883.78527	0.96494
2881.72836	0.96567
2879.67146	0.96600
2877.61455	0.96573
2875.55764	0.96556
2873.50073	0.96583
2871.44382	0.96631
2869.38692	0.96655
2867.33001	0.96657
2865.27310	0.96672
2863.21619	0.96694
2861.15928	0.96696
2859.10237	0.96715
2857.04547	0.96776
2854.98856	0.96835
2852.93165	0.96842
2850.87474	0.96835
2848.81783	0.96892
2846.76093	0.96995
2844.70402	0.97108
2842.64711	0.97218
2840.59020	0.97291
2838.53329	0.97339
2836.47638	0.97381
2834.41948	0.97415
2832.36257	0.97458
2830.30566	0.97517
2828.24875	0.97584
2826.19184	0.97604
2824.13494	0.97551
2822.07803	0.97505
2820.02112	0.97525
2817.96421	0.97569
2815.90730	0.97607
2813.85039	0.97637
2811.79349	0.97650
2809.73658	0.97673
2807.67967	0.97703
2805.62276	0.97698
2803.56585	0.97675
2801.50895	0.97679
2799.45204	0.97725
2797.39513	0.97792
2795.33822	0.97830
2793.28131	0.97821
2791.22440	0.97809
2789.16750	0.97818
2787.11059	0.97829
2785.05368	0.97839
2782.99677	0.97852
2780.93986	0.97836
2778.88296	0.97792
2776.82605	0.97767
2774.76914	0.97783
2772.71223	0.97821
2770.65532	0.97844
2768.59841	0.97838
2766.54151	0.97824
2764.48460	0.97818
2762.42769	0.97819
2760.37078	0.97840
2758.31387	0.97874
2756.25697	0.97877
2754.20006	0.97845
2752.14315	0.97828
2750.08624	0.97865
2748.02933	0.97919
2745.97242	0.97945
2743.91552	0.97951
2741.85861	0.97932
2739.80170	0.97885
2737.74479	0.97859
2735.68788	0.97883
2733.63098	0.97912
2731.57407	0.97905
2729.51716	0.97904
2727.46025	0.97929
2725.40334	0.97939
2723.34643	0.97927
2721.28953	0.97923
2719.23262	0.97927
2717.17571	0.97918
2715.11880	0.97893
2713.06189	0.97876
2711.00499	0.97904
2708.94808	0.97946
2706.89117	0.97976
2704.83426	0.98008
2702.77735	0.98019
2700.72044	0.97987
2698.66354	0.97939
2696.60663	0.97920
2694.54972	0.97931
2692.49281	0.97952
2690.43590	0.97984
2688.37900	0.98015
2686.32209	0.98028
2684.26518	0.98017
2682.20827	0.98010
2680.15136	0.98039
2678.09445	0.98066
2676.03755	0.98038
2673.98064	0.97968
2671.92373	0.97925
2669.86682	0.97951
2667.80991	0.98013
2665.75301	0.98056
2663.69610	0.98042
2661.63919	0.97997
2659.58228	0.97974
2657.52537	0.97985
2655.46846	0.97996
2653.41156	0.97985
2651.35465	0.97984
2649.29774	0.98035
2647.24083	0.98084
2645.18392	0.98059
2643.12702	0.98025
2641.07011	0.98029
2639.01320	0.98028
2636.95629	0.98024
2634.89938	0.98034
2632.84247	0.98040
2630.78557	0.98039
2628.72866	0.98044
2626.67175	0.98043
2624.61484	0.98024
2622.55793	0.98022
2620.50103	0.98039
2618.44412	0.98026
2616.38721	0.97984
2614.33030	0.97960
2612.27339	0.97972
2610.21648	0.98005
2608.15958	0.98021
2606.10267	0.98004
2604.04576	0.98000
2601.98885	0.98036
2599.93194	0.98091
2597.87504	0.98163
2595.81813	0.98205
2593.76122	0.98170
2591.70431	0.98142
2589.64740	0.98159
2587.59049	0.98165
2585.53359	0.98173
2583.47668	0.98215
2581.41977	0.98290
2579.36286	0.98352
2577.30595	0.98326
2575.24905	0.98239
2573.19214	0.98161
2571.13523	0.98094
2569.07832	0.98066
2567.02141	0.98114
2564.96450	0.98191
2562.90760	0.98255
2560.85069	0.98301
2558.79378	0.98308
2556.73687	0.98278
2554.67996	0.98263
2552.62306	0.98313
2550.56615	0.98346
2548.50924	0.98252
2546.45233	0.98135
2544.39542	0.98134
2542.33851	0.98215
2540.28161	0.98306
2538.22470	0.98377
2536.16779	0.98362
2534.11088	0.98271
2532.05397	0.98223
2529.99707	0.98232
2527.94016	0.98249
2525.88325	0.98274
2523.82634	0.98280
2521.76943	0.98255
2519.71252	0.98212
2517.65562	0.98195
2515.59871	0.98215
2513.54180	0.98250
2511.48489	0.98301
2509.42798	0.98324
2507.37108	0.98299
2505.31417	0.98301
2503.25726	0.98365
2501.20035	0.98410
2499.14344	0.98379
2497.08653	0.98334
2495.02963	0.98354
2492.97272	0.98400
2490.91581	0.98367
2488.85890	0.98293
2486.80199	0.98267
2484.74509	0.98260
2482.68818	0.98225
2480.63127	0.98194
2478.57436	0.98206
2476.51745	0.98256
2474.46054	0.98286
2472.40364	0.98296
2470.34673	0.98365
2468.28982	0.98424
2466.23291	0.98397
2464.17600	0.98346
2462.11910	0.98310
2460.06219	0.98288
2458.00528	0.98285
2455.94837	0.98313
2453.89146	0.98341
2451.83455	0.98331
2449.77765	0.98285
2447.72074	0.98256
2445.66383	0.98288
2443.60692	0.98346
2441.55001	0.98410
2439.49311	0.98455
2437.43620	0.98431
2435.37929	0.98383
2433.32238	0.98365
2431.26547	0.98355
2429.20856	0.98332
2427.15166	0.98291
2425.09475	0.98257
2423.03784	0.98244
2420.98093	0.98269
2418.92402	0.98328
2416.86712	0.98357
2414.81021	0.98371
2412.75330	0.98400
2410.69639	0.98399
2408.63948	0.98357
2406.58257	0.98321
2404.52567	0.98304
2402.46876	0.98301
2400.41185	0.98314
2398.35494	0.98325
2396.29803	0.98328
2394.24113	0.98346
2392.18422	0.98380
2390.12731	0.98414
2388.07040	0.98439
2386.01349	0.98466
2383.95658	0.98469
2381.89968	0.98449
2379.84277	0.98445
2377.78586	0.98435
2375.72895	0.98360
2373.67204	0.98220
2371.61514	0.98173
2369.55823	0.98343
2367.50132	0.98515
2365.44441	0.98580
2363.38750	0.98626
2361.33059	0.98564
2359.27369	0.98468
2357.21678	0.98463
2355.15987	0.98391
2353.10296	0.98294
2351.04605	0.98294
2348.98915	0.98320
2346.93224	0.98321
2344.87533	0.98301
2342.81842	0.98295
2340.76151	0.98287
2338.70460	0.98259
2336.64770	0.98307
2334.59079	0.98400
2332.53388	0.98414
2330.47697	0.98394
2328.42006	0.98376
2326.36316	0.98293
2324.30625	0.98185
2322.24934	0.98160
2320.19243	0.98210
2318.13552	0.98288
2316.07861	0.98327
2314.02171	0.98324
2311.96480	0.98366
2309.90789	0.98423
2307.85098	0.98436
2305.79407	0.98436
2303.73717	0.98478
2301.68026	0.98515
2299.62335	0.98472
2297.56644	0.98413
2295.50953	0.98400
2293.45262	0.98401
2291.39572	0.98369
2289.33881	0.98329
2287.28190	0.98353
2285.22499	0.98402
2283.16808	0.98384
2281.11117	0.98291
2279.05427	0.98221
2276.99736	0.98255
2274.94045	0.98320
2272.88354	0.98332
2270.82663	0.98311
2268.76973	0.98343
2266.71282	0.98442
2264.65591	0.98497
2262.59900	0.98488
2260.54209	0.98444
2258.48518	0.98389
2256.42828	0.98381
2254.37137	0.98429
2252.31446	0.98485
2250.25755	0.98470
2248.20064	0.98447
2246.14374	0.98470
2244.08683	0.98423
2242.02992	0.98354
2239.97301	0.98403
2237.91610	0.98440
2235.85919	0.98384
2233.80229	0.98389
2231.74538	0.98484
2229.68847	0.98548
2227.63156	0.98468
2225.57465	0.98347
2223.51775	0.98394
2221.46084	0.98484
2219.40393	0.98515
2217.34702	0.98592
2215.29011	0.98636
2213.23320	0.98599
2211.17630	0.98518
2209.11939	0.98452
2207.06248	0.98549
2205.00557	0.98663
2202.94866	0.98598
2200.89176	0.98489
2198.83485	0.98435
2196.77794	0.98407
2194.72103	0.98378
2192.66412	0.98370
2190.60721	0.98484
2188.55031	0.98783
2186.49340	0.99026
2184.43649	0.98889
2182.37958	0.98535
2180.32267	0.98397
2178.26577	0.98611
2176.20886	0.98795
2174.15195	0.98556
2172.09504	0.98102
2170.03813	0.97852
2167.98122	0.97931
2165.92432	0.98231
2163.86741	0.98403
2161.81050	0.98335
2159.75359	0.98486
2157.69668	0.98882
2155.63978	0.99160
2153.58287	0.99196
2151.52596	0.99043
2149.46905	0.98934
2147.41214	0.98931
2145.35523	0.98949
2143.29833	0.98919
2141.24142	0.98764
2139.18451	0.98642
2137.12760	0.98730
2135.07069	0.98833
2133.01379	0.98774
2130.95688	0.98628
2128.89997	0.98520
2126.84306	0.98517
2124.78615	0.98567
2122.72924	0.98594
2120.67234	0.98584
2118.61543	0.98553
2116.55852	0.98493
2114.50161	0.98440
2112.44470	0.98465
2110.38780	0.98563
2108.33089	0.98608
2106.27398	0.98522
2104.21707	0.98401
2102.16016	0.98375
2100.10325	0.98432
2098.04635	0.98522
2095.98944	0.98604
2093.93253	0.98623
2091.87562	0.98590
2089.81871	0.98514
2087.76181	0.98409
2085.70490	0.98279
2083.64799	0.98216
2081.59108	0.98321
2079.53417	0.98477
2077.47726	0.98537
2075.42036	0.98502
2073.36345	0.98484
2071.30654	0.98520
2069.24963	0.98508
2067.19272	0.98437
2065.13582	0.98456
2063.07891	0.98584
2061.02200	0.98649
2058.96509	0.98636
2056.90818	0.98657
2054.85127	0.98681
2052.79437	0.98604
2050.73746	0.98490
2048.68055	0.98513
2046.62364	0.98669
2044.56673	0.98712
2042.50983	0.98562
2040.45292	0.98426
2038.39601	0.98403
2036.33910	0.98378
2034.28219	0.98323
2032.22528	0.98364
2030.16838	0.98480
2028.11147	0.98545
2026.05456	0.98602
2023.99765	0.98656
2021.94074	0.98575
2019.88384	0.98454
2017.82693	0.98557
2015.77002	0.98893
2013.71311	0.99118
2011.65620	0.99016
2009.59929	0.98781
2007.54239	0.98662
2005.48548	0.98717
2003.42857	0.98790
2001.37166	0.98653
1999.31475	0.98461
1997.25785	0.98398
1995.20094	0.98340
1993.14403	0.98381
1991.08712	0.98534
1989.03021	0.98577
1986.97330	0.98621
1984.91640	0.98728
1982.85949	0.98695
1980.80258	0.98582
1978.74567	0.98591
1976.68876	0.98634
1974.63186	0.98689
1972.57495	0.98882
1970.51804	0.99075
1968.46113	0.99121
1966.40422	0.99011
1964.34731	0.98786
1962.29041	0.98642
1960.23350	0.98607
1958.17659	0.98576
1956.11968	0.98670
1954.06277	0.98836
1952.00587	0.98878
1949.94896	0.98859
1947.89205	0.98811
1945.83514	0.98695
1943.77823	0.98640
1941.72132	0.98699
1939.66442	0.98758
1937.60751	0.98766
1935.55060	0.98777
1933.49369	0.98786
1931.43678	0.98724
1929.37988	0.98639
1927.32297	0.98560
1925.26606	0.98527
1923.20915	0.98647
1921.15224	0.98793
1919.09533	0.98846
1917.03843	0.98869
1914.98152	0.98801
1912.92461	0.98661
1910.86770	0.98559
1908.81079	0.98508
1906.75389	0.98541
1904.69698	0.98634
1902.64007	0.98710
1900.58316	0.98729
1898.52625	0.98663
1896.46934	0.98559
1894.41244	0.98541
1892.35553	0.98614
1890.29862	0.98616
1888.24171	0.98558
1886.18480	0.98581
1884.12790	0.98608
1882.07099	0.98599
1880.01408	0.98611
1877.95717	0.98640
1875.90026	0.98673
1873.84335	0.98670
1871.78645	0.98635
1869.72954	0.98632
1867.67263	0.98643
1865.61572	0.98631
1863.55881	0.98618
1861.50191	0.98625
1859.44500	0.98648
1857.38809	0.98657
1855.33118	0.98645
1853.27427	0.98650
1851.21736	0.98674
1849.16046	0.98693
1847.10355	0.98724
1845.04664	0.98735
1842.98973	0.98673
1840.93282	0.98589
1838.87592	0.98553
1836.81901	0.98596
1834.76210	0.98667
1832.70519	0.98686
1830.64828	0.98674
1828.59137	0.98688
1826.53447	0.98704
1824.47756	0.98662
1822.42065	0.98606
1820.36374	0.98606
1818.30683	0.98638
1816.24993	0.98665
1814.19302	0.98666
1812.13611	0.98654
1810.07920	0.98639
1808.02229	0.98611
1805.96538	0.98567
1803.90848	0.98548
1801.85157	0.98583
1799.79466	0.98611
1797.73775	0.98612
1795.68084	0.98634
1793.62394	0.98641
1791.56703	0.98602
1789.51012	0.98598
1787.45321	0.98621
1785.39630	0.98605
1783.33939	0.98572
1781.28249	0.98581
1779.22558	0.98582
1777.16867	0.98544
1775.11176	0.98525
1773.05485	0.98497
1770.99795	0.98403
1768.94104	0.98263
1766.88413	0.98092
1764.82722	0.97916
1762.77031	0.97717
1760.71340	0.97480
1758.65650	0.97215
1756.59959	0.96871
1754.54268	0.96500
1752.48577	0.96142
1750.42886	0.95748
1748.37196	0.95344
1746.31505	0.94985
1744.25814	0.94668
1742.20123	0.94368
1740.14432	0.94070
1738.08741	0.93830
1736.03051	0.93653
1733.97360	0.93437
1731.91669	0.93302
1729.85978	0.93273
1727.80287	0.93244
1725.74597	0.93228
1723.68906	0.93253
1721.63215	0.93342
1719.57524	0.93507
1717.51833	0.93705
1715.46142	0.93874
1713.40452	0.94067
1711.34761	0.94305
1709.29070	0.94550
1707.23379	0.94802
1705.17688	0.95100
1703.11998	0.95391
1701.06307	0.95661
1699.00616	0.95943
1696.94925	0.96181
1694.89234	0.96405
1692.83543	0.96576
1690.77853	0.96702
1688.72162	0.96816
1686.66471	0.96906
1684.60780	0.96999
1682.55089	0.97090
1680.49399	0.97147
1678.43708	0.97216
1676.38017	0.97269
1674.32326	0.97266
1672.26635	0.97268
1670.20944	0.97300
1668.15254	0.97319
1666.09563	0.97307
1664.03872	0.97289
1661.98181	0.97285
1659.92490	0.97284
1657.86800	0.97284
1655.81109	0.97279
1653.75418	0.97256
1651.69727	0.97246
1649.64036	0.97245
1647.58345	0.97230
1645.52655	0.97214
1643.46964	0.97221
1641.41273	0.97236
1639.35582	0.97234
1637.29891	0.97220
1635.24201	0.97203
1633.18510	0.97217
1631.12819	0.97255
1629.07128	0.97258
1627.01437	0.97235
1624.95746	0.97234
1622.90056	0.97259
1620.84365	0.97289
1618.78674	0.97295
1616.72983	0.97262
1614.67292	0.97222
1612.61602	0.97210
1610.55911	0.97223
1608.50220	0.97226
1606.44529	0.97194
1604.38838	0.97158
1602.33147	0.97144
1600.27457	0.97144
1598.21766	0.97151
1596.16075	0.97163
1594.10384	0.97157
1592.04693	0.97128
1589.99003	0.97116
1587.93312	0.97130
1585.87621	0.97155
1583.81930	0.97174
1581.76239	0.97165
1579.70548	0.97144
1577.64858	0.97125
1575.59167	0.97112
1573.53476	0.97121
1571.47785	0.97142
1569.42094	0.97183
1567.36404	0.97222
1565.30713	0.97214
1563.25022	0.97195
1561.19331	0.97228
1559.13640	0.97318
1557.07949	0.97374
1555.02259	0.97399
1552.96568	0.97432
1550.90877	0.97460
1548.85186	0.97477
1546.79495	0.97498
1544.73805	0.97510
1542.68114	0.97509
1540.62423	0.97514
1538.56732	0.97516
1536.51041	0.97524
1534.45350	0.97545
1532.39660	0.97574
1530.33969	0.97585
1528.28278	0.97572
1526.22587	0.97560
1524.16896	0.97568
1522.11206	0.97573
1520.05515	0.97584
1517.99824	0.97609
1515.94133	0.97625
1513.88442	0.97655
1511.82751	0.97704
1509.77061	0.97720
1507.71370	0.97684
1505.65679	0.97653
1503.59988	0.97662
1501.54297	0.97676
1499.48607	0.97678
1497.42916	0.97659
1495.37225	0.97641
1493.31534	0.97635
1491.25843	0.97624
1489.20152	0.97601
1487.14462	0.97564
1485.08771	0.97512
1483.03080	0.97477
1480.97389	0.97443
1478.91698	0.97378
1476.86008	0.97297
1474.80317	0.97216
1472.74626	0.97089
1470.68935	0.96926
1468.63244	0.96816
1466.57553	0.96719
1464.51863	0.96582
1462.46172	0.96458
1460.40481	0.96375
1458.34790	0.96263
1456.29099	0.96112
1454.23409	0.96023
1452.17718	0.95973
1450.12027	0.95938
1448.06336	0.95894
1446.00645	0.95800
1443.94954	0.95687
1441.89264	0.95598
1439.83573	0.95525
1437.77882	0.95443
1435.72191	0.95354
1433.66500	0.95295
1431.60810	0.95258
1429.55119	0.95230
1427.49428	0.95202
1425.43737	0.95155
1423.38046	0.95110
1421.32355	0.95115
1419.26665	0.95146
1417.20974	0.95153
1415.15283	0.95128
1413.09592	0.95093
1411.03901	0.95078
1408.98211	0.95084
1406.92520	0.95097
1404.86829	0.95117
1402.81138	0.95129
1400.75447	0.95131
1398.69756	0.95127
1396.64066	0.95102
1394.58375	0.95047
1392.52684	0.94983
1390.46993	0.94921
1388.41302	0.94813
1386.35612	0.94613
1384.29921	0.94388
1382.24230	0.94187
1380.18539	0.93978
1378.12848	0.93736
1376.07157	0.93486
1374.01467	0.93273
1371.95776	0.93133
1369.90085	0.93078
1367.84394	0.93120
1365.78703	0.93254
1363.73013	0.93449
1361.67322	0.93678
1359.61631	0.93893
1357.55940	0.94091
1355.50249	0.94293
1353.44558	0.94475
1351.38868	0.94602
1349.33177	0.94698
1347.27486	0.94780
1345.21795	0.94828
1343.16104	0.94859
1341.10414	0.94893
1339.04723	0.94913
1336.99032	0.94924
1334.93341	0.94958
1332.87650	0.95008
1330.81959	0.95037
1328.76269	0.95039
1326.70578	0.95023
1324.64887	0.95014
1322.59196	0.95028
1320.53505	0.95033
1318.47815	0.95030
1316.42124	0.95034
1314.36433	0.95042
1312.30742	0.95077
1310.25051	0.95141
1308.19360	0.95197
1306.13670	0.95224
1304.07979	0.95236
1302.02288	0.95248
1299.96597	0.95267
1297.90906	0.95273
1295.85216	0.95264
1293.79525	0.95250
1291.73834	0.95221
1289.68143	0.95188
1287.62452	0.95136
1285.56761	0.95027
1283.51071	0.94865
1281.45380	0.94700
1279.39689	0.94576
1277.33998	0.94474
1275.28307	0.94330
1273.22617	0.94127
1271.16926	0.93918
1269.11235	0.93725
1267.05544	0.93520
1264.99853	0.93288
1262.94162	0.93035
1260.88472	0.92767
1258.82781	0.92487
1256.77090	0.92211
1254.71399	0.91960
1252.65708	0.91710
1250.60018	0.91457
1248.54327	0.91222
1246.48636	0.90984
1244.42945	0.90734
1242.37254	0.90525
1240.31563	0.90376
1238.25873	0.90234
1236.20182	0.90083
1234.14491	0.89967
1232.08800	0.89908
1230.03109	0.89888
1227.97419	0.89937
1225.91728	0.90106
1223.86037	0.90360
1221.80346	0.90670
1219.74655	0.91054
1217.68964	0.91495
1215.63274	0.91939
1213.57583	0.92345
1211.51892	0.92692
1209.46201	0.92980
1207.40510	0.93212
1205.34820	0.93397
1203.29129	0.93555
1201.23438	0.93704
1199.17747	0.93879
1197.12056	0.94089
1195.06365	0.94298
1193.00675	0.94478
1190.94984	0.94631
1188.89293	0.94755
1186.83602	0.94816
1184.77911	0.94828
1182.72221	0.94810
1180.66530	0.94729
1178.60839	0.94592
1176.55148	0.94429
1174.49457	0.94213
1172.43766	0.93923
1170.38076	0.93587
1168.32385	0.93236
1166.26694	0.92883
1164.21003	0.92548
1162.15312	0.92260
1160.09622	0.92038
1158.03931	0.91911
1155.98240	0.91878
1153.92549	0.91933
1151.86858	0.92058
1149.81167	0.92191
1147.75477	0.92292
1145.69786	0.92343
1143.64095	0.92339
1141.58404	0.92296
1139.52713	0.92198
1137.47023	0.92019
1135.41332	0.91790
1133.35641	0.91569
1131.29950	0.91342
1129.24259	0.91073
1127.18568	0.90797
1125.12878	0.90533
1123.07187	0.90277
1121.01496	0.90021
1118.95805	0.89761
1116.90114	0.89555
1114.84424	0.89405
1112.78733	0.89249
1110.73042	0.89092
1108.67351	0.88953
1106.61660	0.88809
1104.55969	0.88648
1102.50279	0.88499
1100.44588	0.88341
1098.38897	0.88159
1096.33206	0.87990
1094.27515	0.87841
1092.21825	0.87705
1090.16134	0.87577
1088.10443	0.87402
1086.04752	0.87153
1083.99061	0.86889
1081.93370	0.86636
1079.87680	0.86330
1077.81989	0.85970
1075.76298	0.85617
1073.70607	0.85274
1071.64916	0.84919
1069.59226	0.84574
1067.53535	0.84291
1065.47844	0.84088
1063.42153	0.83904
1061.36462	0.83686
1059.30771	0.83467
1057.25081	0.83286
1055.19390	0.83135
1053.13699	0.82997
1051.08008	0.82842
1049.02317	0.82667
1046.96627	0.82504
1044.90936	0.82329
1042.85245	0.82113
1040.79554	0.81899
1038.73863	0.81716
1036.68172	0.81536
1034.62482	0.81319
1032.56791	0.81095
1030.51100	0.80899
1028.45409	0.80719
1026.39718	0.80556
1024.34028	0.80421
1022.28337	0.80316
1020.22646	0.80247
1018.16955	0.80199
1016.11264	0.80189
1014.05573	0.80292
1011.99883	0.80494
1009.94192	0.80701
1007.88501	0.80884
1005.82810	0.81047
1003.77119	0.81179
1001.71429	0.81288
999.65738	0.81393
997.60047	0.81514
995.54356	0.81655
993.48665	0.81818
991.42974	0.82013
989.37284	0.82226
987.31593	0.82471
985.25902	0.82785
983.20211	0.83137
981.14520	0.83460
979.08830	0.83786
977.03139	0.84142
974.97448	0.84465
972.91757	0.84766
970.86066	0.85095
968.80375	0.85435
966.74685	0.85766
964.68994	0.86095
962.63303	0.86445
960.57612	0.86783
958.51921	0.87073
956.46231	0.87359
954.40540	0.87663
952.34849	0.87938
950.29158	0.88186
948.23467	0.88437
946.17776	0.88662
944.12086	0.88846
942.06395	0.89037
940.00704	0.89214
937.95013	0.89346
935.89322	0.89446
933.83632	0.89547
931.77941	0.89688
929.72250	0.89820
927.66559	0.89873
925.60868	0.89912
923.55177	0.90017
921.49487	0.90109
919.43796	0.90140
917.38105	0.90197
915.32414	0.90257
913.26723	0.90233
911.21033	0.90144
909.15342	0.90040
907.09651	0.89972
905.03960	0.89935
902.98269	0.89878
900.92578	0.89809
898.86888	0.89754
896.81197	0.89730
894.75506	0.89766
892.69815	0.89859
890.64124	0.89957
888.58434	0.90050
886.52743	0.90200
884.47052	0.90425
882.41361	0.90648
880.35670	0.90808
878.29979	0.90954
876.24289	0.91134
874.18598	0.91346
872.12907	0.91579
870.07216	0.91767
868.01525	0.91911
865.95835	0.92084
863.90144	0.92272
861.84453	0.92395
859.78762	0.92460
857.73071	0.92563
855.67380	0.92684
853.61690	0.92745
851.55999	0.92750
849.50308	0.92742
847.44617	0.92773
845.38926	0.92853
843.33236	0.92929
841.27545	0.92964
839.21854	0.92981
837.16163	0.93010
835.10472	0.93025
833.04781	0.92998
830.99091	0.92984
828.93400	0.93014
826.87709	0.93065
824.82018	0.93151
822.76327	0.93221
820.70637	0.93223
818.64946	0.93232
816.59255	0.93298
814.53564	0.93356
812.47873	0.93344
810.42182	0.93294
808.36492	0.93280
806.30801	0.93293
804.25110	0.93297
802.19419	0.93274
800.13728	0.93210
798.08038	0.93210
796.02347	0.93328
793.96656	0.93400
791.90965	0.93354
789.85274	0.93305
787.79583	0.93320
785.73893	0.93398
783.68202	0.93518
781.62511	0.93596
779.56820	0.93586
777.51129	0.93523
775.45439	0.93446
773.39748	0.93409
771.34057	0.93425
769.28366	0.93455
767.22675	0.93470
765.16984	0.93477
763.11294	0.93529
761.05603	0.93590
758.99912	0.93561
756.94221	0.93483
754.88530	0.93476
752.82839	0.93529
750.77149	0.93576
748.71458	0.93552
746.65767	0.93459
744.60076	0.93422
742.54385	0.93459
740.48695	0.93452
738.43004	0.93355
736.37313	0.93275
734.31622	0.93279
732.25931	0.93296
730.20240	0.93287
728.14550	0.93236
726.08859	0.93132
724.03168	0.93027
721.97477	0.92991
719.91786	0.93022
717.86096	0.93028
715.80405	0.92967
713.74714	0.92891
711.69023	0.92843
709.63332	0.92834
707.57641	0.92831
705.51951	0.92762
703.46260	0.92646
701.40569	0.92595
699.34878	0.92599
697.29187	0.92578
695.23497	0.92534
693.17806	0.92466
691.12115	0.92394
689.06424	0.92362
687.00733	0.92325
684.95042	0.92231
682.89352	0.92063
680.83661	0.91830
678.77970	0.91668
676.72279	0.91622
674.66588	0.91502
672.60898	0.91316
670.55207	0.91207
668.49516	0.91112
666.43825	0.90976
664.38134	0.90887
662.32443	0.90835
660.26753	0.90793
658.21062	0.90735
656.15371	0.90661
654.09680	0.90625
652.03989	0.90582
649.98299	0.90470
647.92608	0.90394
645.86917	0.90400
643.81226	0.90347
641.75535	0.90192
639.69844	0.90041
637.64154	0.89954
635.58463	0.89862
633.52772	0.89724
631.47081	0.89653
629.41390	0.89627
627.35700	0.89519
625.30009	0.89366
623.24318	0.89222
621.18627	0.89075
619.12936	0.88904
617.07245	0.88729
615.01555	0.88587
612.95864	0.88493
610.90173	0.88428
608.84482	0.88359
606.78791	0.88302
604.73101	0.88227
602.67410	0.88072
600.61719	0.87900
598.56028	0.87848
596.50337	0.87884
594.44646	0.87852
592.38956	0.87792
590.33265	0.87805
588.27574	0.87872
586.21883	0.87973
584.16192	0.88095
582.10502	0.88198
580.04811	0.88157
577.99120	0.87967
575.93429	0.87813
573.87738	0.87750
571.82047	0.87678
569.76357	0.87572
567.70666	0.87528
565.64975	0.87577
563.59284	0.87648
561.53593	0.87638
559.47903	0.87542
557.42212	0.87482
555.36521	0.87467
553.30830	0.87461
551.25139	0.87444
549.19448	0.87412
547.13758	0.87459
545.08067	0.87545
543.02376	0.87544
540.96685	0.87480
538.90994	0.87385
536.85304	0.87339
534.79613	0.87361
532.73922	0.87265
530.68231	0.87035
528.62540	0.86913
526.56849	0.86954
524.51159	0.86984
522.45468	0.86994
520.39777	0.87049
518.34086	0.87041
516.28395	0.86898
514.22705	0.86682
512.17014	0.86452
510.11323	0.86293
508.05632	0.86172
505.99941	0.86024
503.94250	0.85951
501.88560	0.85954
499.82869	0.85897
497.77178	0.85770
495.71487	0.85750
493.65796	0.85828
491.60106	0.85763
489.54415	0.85514
487.48724	0.85238
485.43033	0.85086
483.37342	0.85096
481.31651	0.85074
479.25961	0.84886
477.20270	0.84760
475.14579	0.84818
473.08888	0.84840
471.03197	0.84775
468.97507	0.84731
466.91816	0.84652
464.86125	0.84537
462.80434	0.84440
460.74743	0.84317
458.69052	0.84224
456.63362	0.84223
454.57671	0.84214
452.51980	0.84170
450.46289	0.84152
448.40598	0.84107
446.34908	0.83990
444.29217	0.83965
442.23526	0.83868
440.17835	0.83612
438.12144	0.83706
436.06453	0.84163
434.00763	0.84382
431.95072	0.84294
429.89381	0.84122
427.83690	0.83713
425.77999	0.83194
423.72309	0.83041
421.66618	0.83290
419.60927	0.83650
417.55236	0.83980
415.49545	0.84260
413.43854	0.84212
411.38164	0.83603
409.32473	0.83001
407.26782	0.83018
405.21091	0.83433
403.15400	0.83890
401.09710	0.84416
399.04019	0.84687
