3996.57260	0.99406
3994.51569	0.99451
3992.45878	0.99418
3990.40188	0.99401
3988.34497	0.99438
3986.28806	0.99454
3984.23115	0.99426
3982.17424	0.99400
3980.11733	0.99404
3978.06043	0.99395
3976.00352	0.99366
3973.94661	0.99349
3971.88970	0.99383
3969.83279	0.99468
3967.77589	0.99484
3965.71898	0.99432
3963.66207	0.99429
3961.60516	0.99414
3959.54825	0.99378
3957.49134	0.99413
3955.43444	0.99460
3953.37753	0.99452
3951.32062	0.99424
3949.26371	0.99395
3947.20680	0.99396
3945.14990	0.99413
3943.09299	0.99408
3941.03608	0.99451
3938.97917	0.99507
3936.92226	0.99504
3934.86535	0.99497
3932.80845	0.99489
3930.75154	0.99445
3928.69463	0.99456
3926.63772	0.99517
3924.58081	0.99521
3922.52391	0.99495
3920.46700	0.99482
3918.41009	0.99456
3916.35318	0.99418
3914.29627	0.99396
3912.23936	0.99399
3910.18246	0.99388
3908.12555	0.99361
3906.06864	0.99355
3904.01173	0.99403
3901.95482	0.99483
3899.89792	0.99517
3897.84101	0.99493
3895.78410	0.99439
3893.72719	0.99406
3891.67028	0.99428
3889.61337	0.99445
3887.55647	0.99414
3885.49956	0.99356
3883.44265	0.99354
3881.38574	0.99397
3879.32883	0.99406
3877.27193	0.99424
3875.21502	0.99457
3873.15811	0.99512
3871.10120	0.99603
3869.04429	0.99612
3866.98738	0.99564
3864.93048	0.99542
3862.87357	0.99451
3860.81666	0.99340
3858.75975	0.99304
3856.70284	0.99282
3854.64594	0.99267
3852.58903	0.99376
3850.53212	0.99479
3848.47521	0.99477
3846.41830	0.99466
3844.36139	0.99487
3842.30449	0.99483
3840.24758	0.99445
3838.19067	0.99493
3836.13376	0.99581
3834.07685	0.99538
3832.01995	0.99443
3829.96304	0.99457
3827.90613	0.99526
3825.84922	0.99573
3823.79231	0.99651
3821.73540	0.99674
3819.67850	0.99541
3817.62159	0.99436
3815.56468	0.99442
3813.50777	0.99503
3811.45086	0.99564
3809.39396	0.99624
3807.33705	0.99586
3805.28014	0.99469
3803.22323	0.99464
3801.16632	0.99466
3799.10941	0.99402
3797.05251	0.99407
3794.99560	0.99469
3792.93869	0.99534
3790.88178	0.99571
3788.82487	0.99585
3786.76796	0.99574
3784.71106	0.99505
3782.65415	0.99428
3780.59724	0.99352
3778.54033	0.99263
3776.48342	0.99293
3774.42652	0.99417
3772.36961	0.99478
3770.31270	0.99492
3768.25579	0.99526
3766.19888	0.99518
3764.14197	0.99496
3762.08507	0.99493
3760.02816	0.99503
3757.97125	0.99591
3755.91434	0.99680
3753.85743	0.99613
3751.80053	0.99419
3749.74362	0.99379
3747.68671	0.99548
3745.62980	0.99632
3743.57289	0.99533
3741.51598	0.99450
3739.45908	0.99427
3737.40217	0.99400
3735.34526	0.99424
3733.28835	0.99494
3731.23144	0.99439
3729.17454	0.99349
3727.11763	0.99362
3725.06072	0.99427
3723.00381	0.99455
3720.94690	0.99431
3718.88999	0.99390
3716.83309	0.99386
3714.77618	0.99386
3712.71927	0.99347
3710.66236	0.99328
3708.60545	0.99434
3706.54855	0.99549
3704.49164	0.99555
3702.43473	0.99494
3700.37782	0.99459
3698.32091	0.99485
3696.26400	0.99525
3694.20710	0.99521
3692.15019	0.99476
3690.09328	0.99413
3688.03637	0.99356
3685.97946	0.99351
3683.92256	0.99358
3681.86565	0.99348
3679.80874	0.99347
3677.75183	0.99350
3675.69492	0.99292
3673.63801	0.99224
3671.58111	0.99243
3669.52420	0.99254
3667.46729	0.99198
3665.41038	0.99146
3663.35347	0.99150
3661.29657	0.99229
3659.23966	0.99297
3657.18275	0.99273
3655.12584	0.99221
3653.06893	0.99238
3651.01202	0.99279
3648.95512	0.99221
3646.89821	0.99134
3644.84130	0.99096
3642.78439	0.99056
3640.72748	0.99033
3638.67058	0.98991
3636.61367	0.98944
3634.55676	0.98970
3632.49985	0.99030
3630.44294	0.99026
3628.38603	0.98926
3626.32913	0.98860
3624.27222	0.98860
3622.21531	0.98858
3620.15840	0.98843
3618.10149	0.98840
3616.04459	0.98814
3613.98768	0.98719
3611.93077	0.98591
3609.87386	0.98536
3607.81695	0.98561
3605.76004	0.98598
3603.70314	0.98616
3601.64623	0.98565
3599.58932	0.98463
3597.53241	0.98422
3595.47550	0.98407
3593.41860	0.98382
3591.36169	0.98441
3589.30478	0.98546
3587.24787	0.98478
3585.19096	0.98285
3583.13405	0.98212
3581.07715	0.98210
3579.02024	0.98178
3576.96333	0.98122
3574.90642	0.98130
3572.84951	0.98228
3570.79261	0.98295
3568.73570	0.98230
3566.67879	0.98098
3564.62188	0.98068
3562.56497	0.98091
3560.50806	0.98052
3558.45116	0.97948
3556.39425	0.97913
3554.33734	0.97954
3552.28043	0.97948
3550.22352	0.97921
3548.16662	0.97868
3546.10971	0.97788
3544.05280	0.97808
3541.99589	0.97862
3539.93898	0.97841
3537.88207	0.97749
3535.82517	0.97599
3533.76826	0.97512
3531.71135	0.97567
3529.65444	0.97658
3527.59753	0.97718
3525.54063	0.97707
3523.48372	0.97590
3521.42681	0.97487
3519.36990	0.97469
3517.31299	0.97494
3515.25608	0.97519
3513.19918	0.97486
3511.14227	0.97417
3509.08536	0.97370
3507.02845	0.97374
3504.97154	0.97411
3502.91464	0.97387
3500.85773	0.97286
3498.80082	0.97193
3496.74391	0.97142
3494.68700	0.97126
3492.63009	0.97129
3490.57319	0.97130
3488.51628	0.97098
3486.45937	0.97070
3484.40246	0.97094
3482.34555	0.97112
3480.28865	0.97093
3478.23174	0.97081
3476.17483	0.97078
3474.11792	0.97055
3472.06101	0.97001
3470.00410	0.96961
3467.94720	0.96990
3465.89029	0.97015
3463.83338	0.96947
3461.77647	0.96851
3459.71956	0.96783
3457.66266	0.96731
3455.60575	0.96738
3453.54884	0.96804
3451.49193	0.96858
3449.43502	0.96854
3447.37811	0.96805
3445.32121	0.96775
3443.26430	0.96798
3441.20739	0.96840
3439.15048	0.96838
3437.09357	0.96763
3435.03667	0.96666
3432.97976	0.96608
3430.92285	0.96621
3428.86594	0.96680
3426.80903	0.96701
3424.75212	0.96680
3422.69522	0.96659
3420.63831	0.96638
3418.58140	0.96611
3416.52449	0.96619
3414.46758	0.96672
3412.41068	0.96701
3410.35377	0.96687
3408.29686	0.96676
3406.23995	0.96685
3404.18304	0.96710
3402.12613	0.96716
3400.06923	0.96682
3398.01232	0.96614
3395.95541	0.96545
3393.89850	0.96516
3391.84159	0.96540
3389.78469	0.96610
3387.72778	0.96683
3385.67087	0.96713
3383.61396	0.96703
3381.55705	0.96694
3379.50014	0.96683
3377.44324	0.96658
3375.38633	0.96643
3373.32942	0.96667
3371.27251	0.96715
3369.21560	0.96709
3367.15870	0.96680
3365.10179	0.96722
3363.04488	0.96798
3360.98797	0.96840
3358.93106	0.96836
3356.87415	0.96787
3354.81725	0.96730
3352.76034	0.96720
3350.70343	0.96720
3348.64652	0.96734
3346.58961	0.96801
3344.53271	0.96855
3342.47580	0.96864
3340.41889	0.96877
3338.36198	0.96892
3336.30507	0.96889
3334.24816	0.96897
3332.19126	0.96929
3330.13435	0.96958
3328.07744	0.96957
3326.02053	0.96969
3323.96362	0.97014
3321.90672	0.97030
3319.84981	0.97022
3317.79290	0.97029
3315.73599	0.97019
3313.67908	0.96986
3311.62217	0.97002
3309.56527	0.97067
3307.50836	0.97091
3305.45145	0.97085
3303.39454	0.97109
3301.33763	0.97147
3299.28073	0.97181
3297.22382	0.97190
3295.16691	0.97141
3293.11000	0.97072
3291.05309	0.97092
3288.99618	0.97178
3286.93928	0.97193
3284.88237	0.97138
3282.82546	0.97089
3280.76855	0.97117
3278.71164	0.97231
3276.65474	0.97312
3274.59783	0.97299
3272.54092	0.97285
3270.48401	0.97307
3268.42710	0.97287
3266.37019	0.97224
3264.31329	0.97199
3262.25638	0.97257
3260.19947	0.97353
3258.14256	0.97389
3256.08565	0.97373
3254.02875	0.97386
3251.97184	0.97409
3249.91493	0.97396
3247.85802	0.97361
3245.80111	0.97323
3243.74420	0.97316
3241.68730	0.97361
3239.63039	0.97386
3237.57348	0.97357
3235.51657	0.97356
3233.45966	0.97424
3231.40276	0.97515
3229.34585	0.97552
3227.28894	0.97491
3225.23203	0.97431
3223.17512	0.97456
3221.11821	0.97476
3219.06131	0.97455
3217.00440	0.97469
3214.94749	0.97514
3212.89058	0.97557
3210.83367	0.97619
3208.77677	0.97692
3206.71986	0.97755
3204.66295	0.97802
3202.60604	0.97821
3200.54913	0.97808
3198.49222	0.97769
3196.43532	0.97753
3194.37841	0.97788
3192.32150	0.97825
3190.26459	0.97832
3188.20768	0.97825
3186.15078	0.97824
3184.09387	0.97861
3182.03696	0.97916
3179.98005	0.97922
3177.92314	0.97917
3175.86623	0.97970
3173.80933	0.98017
3171.75242	0.98010
3169.69551	0.97972
3167.63860	0.97958
3165.58169	0.98012
3163.52479	0.98075
3161.46788	0.98089
3159.41097	0.98096
3157.35406	0.98126
3155.29715	0.98150
3153.24024	0.98166
3151.18334	0.98185
3149.12643	0.98202
3147.06952	0.98227
3145.01261	0.98278
3142.95570	0.98323
3140.89880	0.98313
3138.84189	0.98269
3136.78498	0.98263
3134.72807	0.98298
3132.67116	0.98305
3130.61425	0.98310
3128.55735	0.98366
3126.50044	0.98428
3124.44353	0.98438
3122.38662	0.98415
3120.32971	0.98401
3118.27281	0.98373
3116.21590	0.98335
3114.15899	0.98368
3112.10208	0.98439
3110.04517	0.98453
3107.98826	0.98439
3105.93136	0.98453
3103.87445	0.98497
3101.81754	0.98547
3099.76063	0.98560
3097.70372	0.98532
3095.64682	0.98512
3093.58991	0.98535
3091.53300	0.98574
3089.47609	0.98578
3087.41918	0.98547
3085.36227	0.98527
3083.30537	0.98538
3081.24846	0.98556
3079.19155	0.98581
3077.13464	0.98606
3075.07773	0.98634
3073.02083	0.98680
3070.96392	0.98718
3068.90701	0.98720
3066.85010	0.98701
3064.79319	0.98685
3062.73628	0.98661
3060.67938	0.98659
3058.62247	0.98698
3056.56556	0.98728
3054.50865	0.98749
3052.45174	0.98775
3050.39484	0.98766
3048.33793	0.98747
3046.28102	0.98762
3044.22411	0.98777
3042.16720	0.98789
3040.11029	0.98824
3038.05339	0.98845
3035.99648	0.98829
3033.93957	0.98799
3031.88266	0.98759
3029.82575	0.98724
3027.76885	0.98730
3025.71194	0.98759
3023.65503	0.98785
3021.59812	0.98804
3019.54121	0.98798
3017.48430	0.98794
3015.42740	0.98820
3013.37049	0.98842
3011.31358	0.98819
3009.25667	0.98761
3007.19976	0.98731
3005.14286	0.98728
3003.08595	0.98745
3001.02904	0.98802
2998.97213	0.98839
2996.91522	0.98811
2994.85831	0.98762
2992.80141	0.98738
2990.74450	0.98760
2988.68759	0.98819
2986.63068	0.98828
2984.57377	0.98786
2982.51687	0.98798
2980.45996	0.98805
2978.40305	0.98742
2976.34614	0.98704
2974.28923	0.98697
2972.23232	0.98672
2970.17542	0.98636
2968.11851	0.98610
2966.06160	0.98616
2964.00469	0.98625
2961.94778	0.98620
2959.89088	0.98612
2957.83397	0.98571
2955.77706	0.98515
2953.72015	0.98488
2951.66324	0.98494
2949.60633	0.98519
2947.54943	0.98516
2945.49252	0.98494
2943.43561	0.98497
2941.37870	0.98482
2939.32179	0.98427
2937.26489	0.98356
2935.20798	0.98296
2933.15107	0.98286
2931.09416	0.98329
2929.03725	0.98359
2926.98034	0.98336
2924.92344	0.98322
2922.86653	0.98381
2920.80962	0.98426
2918.75271	0.98366
2916.69580	0.98288
2914.63890	0.98278
2912.58199	0.98308
2910.52508	0.98339
2908.46817	0.98342
2906.41126	0.98289
2904.35435	0.98222
2902.29745	0.98203
2900.24054	0.98196
2898.18363	0.98186
2896.12672	0.98201
2894.06981	0.98218
2892.01291	0.98232
2889.95600	0.98262
2887.89909	0.98277
2885.84218	0.98237
2883.78527	0.98188
2881.72836	0.98178
2879.67146	0.98193
2877.61455	0.98223
2875.55764	0.98248
2873.50073	0.98247
2871.44382	0.98253
2869.38692	0.98293
2867.33001	0.98350
2865.27310	0.98400
2863.21619	0.98439
2861.15928	0.98485
2859.10237	0.98532
2857.04547	0.98547
2854.98856	0.98538
2852.93165	0.98537
2850.87474	0.98536
2848.81783	0.98536
2846.76093	0.98576
2844.70402	0.98631
2842.64711	0.98661
2840.59020	0.98678
2838.53329	0.98677
2836.47638	0.98681
2834.41948	0.98732
2832.36257	0.98785
2830.30566	0.98806
2828.24875	0.98816
2826.19184	0.98827
2824.13494	0.98831
2822.07803	0.98827
2820.02112	0.98844
2817.96421	0.98883
2815.90730	0.98905
2813.85039	0.98868
2811.79349	0.98807
2809.73658	0.98786
2807.67967	0.98783
2805.62276	0.98775
2803.56585	0.98802
2801.50895	0.98865
2799.45204	0.98900
2797.39513	0.98891
2795.33822	0.98884
2793.28131	0.98896
2791.22440	0.98917
2789.16750	0.98930
2787.11059	0.98901
2785.05368	0.98864
2782.99677	0.98868
2780.93986	0.98893
2778.88296	0.98926
2776.82605	0.98956
2774.76914	0.98963
2772.71223	0.98949
2770.65532	0.98936
2768.59841	0.98922
2766.54151	0.98901
2764.48460	0.98901
2762.42769	0.98920
2760.37078	0.98918
2758.31387	0.98915
2756.25697	0.98948
2754.20006	0.98985
2752.14315	0.98993
2750.08624	0.98979
2748.02933	0.98963
2745.97242	0.98957
2743.91552	0.98956
2741.85861	0.98956
2739.80170	0.98952
2737.74479	0.98956
2735.68788	0.98982
2733.63098	0.99008
2731.57407	0.99013
2729.51716	0.99000
2727.46025	0.98962
2725.40334	0.98917
2723.34643	0.98894
2721.28953	0.98895
2719.23262	0.98926
2717.17571	0.98982
2715.11880	0.99020
2713.06189	0.98998
2711.00499	0.98960
2708.94808	0.98967
2706.89117	0.98983
2704.83426	0.98970
2702.77735	0.98948
2700.72044	0.98925
2698.66354	0.98907
2696.60663	0.98920
2694.54972	0.98971
2692.49281	0.99012
2690.43590	0.99016
2688.37900	0.99013
2686.32209	0.99008
2684.26518	0.98992
2682.20827	0.98991
2680.15136	0.99016
2678.09445	0.99034
2676.03755	0.99024
2673.98064	0.99013
2671.92373	0.99022
2669.86682	0.99046
2667.80991	0.99065
2665.75301	0.99042
2663.69610	0.98998
2661.63919	0.98992
2659.58228	0.99020
2657.52537	0.99031
2655.46846	0.99007
2653.41156	0.98994
2651.35465	0.99018
2649.29774	0.99054
2647.24083	0.99089
2645.18392	0.99084
2643.12702	0.99049
2641.07011	0.99040
2639.01320	0.99035
2636.95629	0.99018
2634.89938	0.99009
2632.84247	0.98993
2630.78557	0.98983
2628.72866	0.98985
2626.67175	0.98981
2624.61484	0.99019
2622.55793	0.99095
2620.50103	0.99134
2618.44412	0.99133
2616.38721	0.99132
2614.33030	0.99136
2612.27339	0.99130
2610.21648	0.99107
2608.15958	0.99052
2606.10267	0.99023
2604.04576	0.99062
2601.98885	0.99101
2599.93194	0.99114
2597.87504	0.99143
2595.81813	0.99173
2593.76122	0.99171
2591.70431	0.99162
2589.64740	0.99157
2587.59049	0.99155
2585.53359	0.99146
2583.47668	0.99104
2581.41977	0.99080
2579.36286	0.99103
2577.30595	0.99128
2575.24905	0.99144
2573.19214	0.99184
2571.13523	0.99205
2569.07832	0.99143
2567.02141	0.99079
2564.96450	0.99091
2562.90760	0.99127
2560.85069	0.99144
2558.79378	0.99139
2556.73687	0.99123
2554.67996	0.99121
2552.62306	0.99141
2550.56615	0.99131
2548.50924	0.99066
2546.45233	0.99032
2544.39542	0.99098
2542.33851	0.99174
2540.28161	0.99161
2538.22470	0.99132
2536.16779	0.99133
2534.11088	0.99129
2532.05397	0.99137
2529.99707	0.99122
2527.94016	0.99067
2525.88325	0.99065
2523.82634	0.99102
2521.76943	0.99082
2519.71252	0.99051
2517.65562	0.99098
2515.59871	0.99171
2513.54180	0.99185
2511.48489	0.99122
2509.42798	0.99040
2507.37108	0.99021
2505.31417	0.99044
2503.25726	0.99075
2501.20035	0.99131
2499.14344	0.99151
2497.08653	0.99082
2495.02963	0.99051
2492.97272	0.99088
2490.91581	0.99098
2488.85890	0.99133
2486.80199	0.99202
2484.74509	0.99242
2482.68818	0.99254
2480.63127	0.99225
2478.57436	0.99150
2476.51745	0.99066
2474.46054	0.99025
2472.40364	0.99025
2470.34673	0.99008
2468.28982	0.99014
2466.23291	0.99053
2464.17600	0.99050
2462.11910	0.99039
2460.06219	0.99070
2458.00528	0.99117
2455.94837	0.99138
2453.89146	0.99123
2451.83455	0.99098
2449.77765	0.99079
2447.72074	0.99076
2445.66383	0.99090
2443.60692	0.99106
2441.55001	0.99116
2439.49311	0.99159
2437.43620	0.99258
2435.37929	0.99338
2433.32238	0.99315
2431.26547	0.99230
2429.20856	0.99162
2427.15166	0.99110
2425.09475	0.99069
2423.03784	0.99074
2420.98093	0.99097
2418.92402	0.99086
2416.86712	0.99104
2414.81021	0.99171
2412.75330	0.99190
2410.69639	0.99150
2408.63948	0.99132
2406.58257	0.99163
2404.52567	0.99198
2402.46876	0.99170
2400.41185	0.99081
2398.35494	0.99032
2396.29803	0.99062
2394.24113	0.99121
2392.18422	0.99178
2390.12731	0.99206
2388.07040	0.99190
2386.01349	0.99166
2383.95658	0.99175
2381.89968	0.99234
2379.84277	0.99299
2377.78586	0.99289
2375.72895	0.99207
2373.67204	0.99183
2371.61514	0.99268
2369.55823	0.99286
2367.50132	0.99205
2365.44441	0.99182
2363.38750	0.99177
2361.33059	0.99127
2359.27369	0.99060
2357.21678	0.99078
2355.15987	0.99220
2353.10296	0.99236
2351.04605	0.99102
2348.98915	0.99070
2346.93224	0.99157
2344.87533	0.99206
2342.81842	0.99134
2340.76151	0.99033
2338.70460	0.99016
2336.64770	0.99088
2334.59079	0.99161
2332.53388	0.99174
2330.47697	0.99144
2328.42006	0.99120
2326.36316	0.99110
2324.30625	0.99091
2322.24934	0.99133
2320.19243	0.99243
2318.13552	0.99269
2316.07861	0.99177
2314.02171	0.99114
2311.96480	0.99170
2309.90789	0.99240
2307.85098	0.99224
2305.79407	0.99159
2303.73717	0.99105
2301.68026	0.99103
2299.62335	0.99127
2297.56644	0.99126
2295.50953	0.99119
2293.45262	0.99139
2291.39572	0.99168
2289.33881	0.99183
2287.28190	0.99142
2285.22499	0.99076
2283.16808	0.99093
2281.11117	0.99168
2279.05427	0.99232
2276.99736	0.99251
2274.94045	0.99212
2272.88354	0.99183
2270.82663	0.99163
2268.76973	0.99129
2266.71282	0.99100
2264.65591	0.99117
2262.59900	0.99189
2260.54209	0.99203
2258.48518	0.99138
2256.42828	0.99127
2254.37137	0.99143
2252.31446	0.99122
2250.25755	0.99083
2248.20064	0.98954
2246.14374	0.98816
2244.08683	0.98857
2242.02992	0.99027
2239.97301	0.99167
2237.91610	0.99210
2235.85919	0.99144
2233.80229	0.99102
2231.74538	0.99192
2229.68847	0.99222
2227.63156	0.99143
2225.57465	0.99080
2223.51775	0.98991
2221.46084	0.98992
2219.40393	0.99177
2217.34702	0.99282
2215.29011	0.99177
2213.23320	0.99042
2211.17630	0.99024
2209.11939	0.99138
2207.06248	0.99205
2205.00557	0.99072
2202.94866	0.98966
2200.89176	0.99014
2198.83485	0.99084
2196.77794	0.99143
2194.72103	0.99136
2192.66412	0.99051
2190.60721	0.98968
2188.55031	0.98974
2186.49340	0.99106
2184.43649	0.99276
2182.37958	0.99307
2180.32267	0.99149
2178.26577	0.99028
2176.20886	0.99094
2174.15195	0.99228
2172.09504	0.99231
2170.03813	0.99088
2167.98122	0.99059
2165.92432	0.99266
2163.86741	0.99367
2161.81050	0.99237
2159.75359	0.99175
2157.69668	0.99255
2155.63978	0.99245
2153.58287	0.99116
2151.52596	0.99074
2149.46905	0.99142
2147.41214	0.99153
2145.35523	0.99094
2143.29833	0.99167
2141.24142	0.99270
2139.18451	0.99211
2137.12760	0.99168
2135.07069	0.99198
2133.01379	0.99135
2130.95688	0.98974
2128.89997	0.98936
2126.84306	0.99112
2124.78615	0.99223
2122.72924	0.99119
2120.67234	0.99014
2118.61543	0.99053
2116.55852	0.99152
2114.50161	0.99171
2112.44470	0.99121
2110.38780	0.99125
2108.33089	0.99173
2106.27398	0.99162
2104.21707	0.99131
2102.16016	0.99099
2100.10325	0.99000
2098.04635	0.98998
2095.98944	0.99172
2093.93253	0.99277
2091.87562	0.99235
2089.81871	0.99177
2087.76181	0.99157
2085.70490	0.99194
2083.64799	0.99250
2081.59108	0.99236
2079.53417	0.99223
2077.47726	0.99236
2075.42036	0.99185
2073.36345	0.99157
2071.30654	0.99170
2069.24963	0.99121
2067.19272	0.99068
2065.13582	0.99065
2063.07891	0.99080
2061.02200	0.99140
2058.96509	0.99168
2056.90818	0.99097
2054.85127	0.99124
2052.79437	0.99258
2050.73746	0.99349
2048.68055	0.99369
2046.62364	0.99247
2044.56673	0.99143
2042.50983	0.99239
2040.45292	0.99323
2038.39601	0.99246
2036.33910	0.99140
2034.28219	0.99045
2032.22528	0.98908
2030.16838	0.98845
2028.11147	0.98906
2026.05456	0.99013
2023.99765	0.99128
2021.94074	0.99235
2019.88384	0.99355
2017.82693	0.99412
2015.77002	0.99312
2013.71311	0.99170
2011.65620	0.99159
2009.59929	0.99231
2007.54239	0.99160
2005.48548	0.98954
2003.42857	0.98854
2001.37166	0.98912
1999.31475	0.99021
1997.25785	0.99091
1995.20094	0.99092
1993.14403	0.99079
1991.08712	0.99049
1989.03021	0.99043
1986.97330	0.99082
1984.91640	0.99118
1982.85949	0.99244
1980.80258	0.99394
1978.74567	0.99377
1976.68876	0.99217
1974.63186	0.99118
1972.57495	0.99078
1970.51804	0.98970
1968.46113	0.98941
1966.40422	0.99093
1964.34731	0.99236
1962.29041	0.99233
1960.23350	0.99159
1958.17659	0.99100
1956.11968	0.99064
1954.06277	0.99025
1952.00587	0.99015
1949.94896	0.99087
1947.89205	0.99208
1945.83514	0.99265
1943.77823	0.99209
1941.72132	0.99190
1939.66442	0.99251
1937.60751	0.99325
1935.55060	0.99407
1933.49369	0.99404
1931.43678	0.99293
1929.37988	0.99244
1927.32297	0.99263
1925.26606	0.99214
1923.20915	0.99131
1921.15224	0.99088
1919.09533	0.99103
1917.03843	0.99158
1914.98152	0.99188
1912.92461	0.99179
1910.86770	0.99155
1908.81079	0.99146
1906.75389	0.99165
1904.69698	0.99171
1902.64007	0.99145
1900.58316	0.99148
1898.52625	0.99199
1896.46934	0.99196
1894.41244	0.99145
1892.35553	0.99165
1890.29862	0.99216
1888.24171	0.99217
1886.18480	0.99184
1884.12790	0.99140
1882.07099	0.99135
1880.01408	0.99215
1877.95717	0.99295
1875.90026	0.99300
1873.84335	0.99310
1871.78645	0.99344
1869.72954	0.99335
1867.67263	0.99271
1865.61572	0.99193
1863.55881	0.99167
1861.50191	0.99209
1859.44500	0.99258
1857.38809	0.99285
1855.33118	0.99278
1853.27427	0.99265
1851.21736	0.99300
1849.16046	0.99319
1847.10355	0.99252
1845.04664	0.99166
1842.98973	0.99125
1840.93282	0.99126
1838.87592	0.99168
1836.81901	0.99229
1834.76210	0.99260
1832.70519	0.99257
1830.64828	0.99230
1828.59137	0.99187
1826.53447	0.99168
1824.47756	0.99178
1822.42065	0.99154
1820.36374	0.99110
1818.30683	0.99118
1816.24993	0.99130
1814.19302	0.99092
1812.13611	0.99073
1810.07920	0.99126
1808.02229	0.99201
1805.96538	0.99251
1803.90848	0.99275
1801.85157	0.99275
1799.79466	0.99256
1797.73775	0.99224
1795.68084	0.99175
1793.62394	0.99134
1791.56703	0.99137
1789.51012	0.99155
1787.45321	0.99148
1785.39630	0.99119
1783.33939	0.99070
1781.28249	0.99028
1779.22558	0.99024
1777.16867	0.99001
1775.11176	0.98916
1773.05485	0.98812
1770.99795	0.98755
1768.94104	0.98705
1766.88413	0.98565
1764.82722	0.98351
1762.77031	0.98068
1760.71340	0.97674
1758.65650	0.97270
1756.59959	0.96889
1754.54268	0.96570
1752.48577	0.96279
1750.42886	0.95873
1748.37196	0.95413
1746.31505	0.95050
1744.25814	0.94755
1742.20123	0.94491
1740.14432	0.94183
1738.08741	0.93921
1736.03051	0.93829
1733.97360	0.93679
1731.91669	0.93447
1729.85978	0.93347
1727.80287	0.93324
1725.74597	0.93334
1723.68906	0.93356
1721.63215	0.93417
1719.57524	0.93559
1717.51833	0.93801
1715.46142	0.94124
1713.40452	0.94470
1711.34761	0.94852
1709.29070	0.95250
1707.23379	0.95641
1705.17688	0.96031
1703.11998	0.96345
1701.06307	0.96564
1699.00616	0.96756
1696.94925	0.96947
1694.89234	0.97096
1692.83543	0.97219
1690.77853	0.97369
1688.72162	0.97526
1686.66471	0.97623
1684.60780	0.97650
1682.55089	0.97678
1680.49399	0.97745
1678.43708	0.97795
1676.38017	0.97813
1674.32326	0.97814
1672.26635	0.97823
1670.20944	0.97831
1668.15254	0.97797
1666.09563	0.97755
1664.03872	0.97718
1661.98181	0.97648
1659.92490	0.97571
1657.86800	0.97523
1655.81109	0.97502
1653.75418	0.97492
1651.69727	0.97479
1649.64036	0.97452
1647.58345	0.97379
1645.52655	0.97345
1643.46964	0.97386
1641.41273	0.97416
1639.35582	0.97437
1637.29891	0.97449
1635.24201	0.97417
1633.18510	0.97407
1631.12819	0.97440
1629.07128	0.97458
1627.01437	0.97468
1624.95746	0.97514
1622.90056	0.97598
1620.84365	0.97694
1618.78674	0.97775
1616.72983	0.97819
1614.67292	0.97855
1612.61602	0.97926
1610.55911	0.98006
1608.50220	0.98075
1606.44529	0.98137
1604.38838	0.98183
1602.33147	0.98208
1600.27457	0.98237
1598.21766	0.98287
1596.16075	0.98352
1594.10384	0.98412
1592.04693	0.98446
1589.99003	0.98464
1587.93312	0.98492
1585.87621	0.98527
1583.81930	0.98548
1581.76239	0.98552
1579.70548	0.98572
1577.64858	0.98620
1575.59167	0.98624
1573.53476	0.98612
1571.47785	0.98643
1569.42094	0.98665
1567.36404	0.98665
1565.30713	0.98662
1563.25022	0.98675
1561.19331	0.98708
1559.13640	0.98686
1557.07949	0.98632
1555.02259	0.98656
1552.96568	0.98680
1550.90877	0.98676
1548.85186	0.98657
1546.79495	0.98657
1544.73805	0.98687
1542.68114	0.98752
1540.62423	0.98823
1538.56732	0.98786
1536.51041	0.98752
1534.45350	0.98748
1532.39660	0.98736
1530.33969	0.98741
1528.28278	0.98748
1526.22587	0.98741
1524.16896	0.98753
1522.11206	0.98744
1520.05515	0.98709
1517.99824	0.98724
1515.94133	0.98727
1513.88442	0.98695
1511.82751	0.98694
1509.77061	0.98730
1507.71370	0.98729
1505.65679	0.98649
1503.59988	0.98644
1501.54297	0.98688
1499.48607	0.98707
1497.42916	0.98667
1495.37225	0.98632
1493.31534	0.98633
1491.25843	0.98622
1489.20152	0.98594
1487.14462	0.98568
1485.08771	0.98530
1483.03080	0.98505
1480.97389	0.98504
1478.91698	0.98511
1476.86008	0.98504
1474.80317	0.98456
1472.74626	0.98333
1470.68935	0.98207
1468.63244	0.98149
1466.57553	0.98094
1464.51863	0.97986
1462.46172	0.97882
1460.40481	0.97829
1458.34790	0.97761
1456.29099	0.97636
1454.23409	0.97573
1452.17718	0.97548
1450.12027	0.97511
1448.06336	0.97454
1446.00645	0.97387
1443.94954	0.97339
1441.89264	0.97309
1439.83573	0.97275
1437.77882	0.97196
1435.72191	0.97078
1433.66500	0.97042
1431.60810	0.97053
1429.55119	0.97042
1427.49428	0.97026
1425.43737	0.97034
1423.38046	0.97065
1421.32355	0.97107
1419.26665	0.97121
1417.20974	0.97099
1415.15283	0.97087
1413.09592	0.97096
1411.03901	0.97151
1408.98211	0.97232
1406.92520	0.97259
1404.86829	0.97204
1402.81138	0.97152
1400.75447	0.97162
1398.69756	0.97165
1396.64066	0.97090
1394.58375	0.96963
1392.52684	0.96853
1390.46993	0.96743
1388.41302	0.96558
1386.35612	0.96284
1384.29921	0.96000
1382.24230	0.95738
1380.18539	0.95499
1378.12848	0.95264
1376.07157	0.95014
1374.01467	0.94784
1371.95776	0.94669
1369.90085	0.94668
1367.84394	0.94725
1365.78703	0.94869
1363.73013	0.95136
1361.67322	0.95501
1359.61631	0.95854
1357.55940	0.96142
1355.50249	0.96359
1353.44558	0.96518
1351.38868	0.96660
1349.33177	0.96802
1347.27486	0.96928
1345.21795	0.97013
1343.16104	0.97055
1341.10414	0.97084
1339.04723	0.97107
1336.99032	0.97119
1334.93341	0.97125
1332.87650	0.97134
1330.81959	0.97135
1328.76269	0.97111
1326.70578	0.97090
1324.64887	0.97101
1322.59196	0.97119
1320.53505	0.97109
1318.47815	0.97074
1316.42124	0.97052
1314.36433	0.97062
1312.30742	0.97089
1310.25051	0.97120
1308.19360	0.97151
1306.13670	0.97185
1304.07979	0.97216
1302.02288	0.97231
1299.96597	0.97240
1297.90906	0.97240
1295.85216	0.97208
1293.79525	0.97151
1291.73834	0.97076
1289.68143	0.96968
1287.62452	0.96841
1285.56761	0.96704
1283.51071	0.96561
1281.45380	0.96421
1279.39689	0.96280
1277.33998	0.96111
1275.28307	0.95890
1273.22617	0.95637
1271.16926	0.95384
1269.11235	0.95129
1267.05544	0.94870
1264.99853	0.94620
1262.94162	0.94371
1260.88472	0.94087
1258.82781	0.93760
1256.77090	0.93431
1254.71399	0.93126
1252.65708	0.92847
1250.60018	0.92571
1248.54327	0.92266
1246.48636	0.91979
1244.42945	0.91752
1242.37254	0.91535
1240.31563	0.91305
1238.25873	0.91078
1236.20182	0.90852
1234.14491	0.90668
1232.08800	0.90558
1230.03109	0.90488
1227.97419	0.90460
1225.91728	0.90510
1223.86037	0.90644
1221.80346	0.90853
1219.74655	0.91151
1217.68964	0.91552
1215.63274	0.92031
1213.57583	0.92529
1211.51892	0.92991
1209.46201	0.93407
1207.40510	0.93788
1205.34820	0.94140
1203.29129	0.94468
1201.23438	0.94773
1199.17747	0.95056
1197.12056	0.95321
1195.06365	0.95578
1193.00675	0.95809
1190.94984	0.95972
1188.89293	0.96080
1186.83602	0.96152
1184.77911	0.96174
1182.72221	0.96143
1180.66530	0.96068
1178.60839	0.95969
1176.55148	0.95847
1174.49457	0.95678
1172.43766	0.95483
1170.38076	0.95313
1168.32385	0.95165
1166.26694	0.94992
1164.21003	0.94775
1162.15312	0.94571
1160.09622	0.94422
1158.03931	0.94325
1155.98240	0.94298
1153.92549	0.94350
1151.86858	0.94469
1149.81167	0.94626
1147.75477	0.94766
1145.69786	0.94853
1143.64095	0.94894
1141.58404	0.94911
1139.52713	0.94891
1137.47023	0.94804
1135.41332	0.94653
1133.35641	0.94474
1131.29950	0.94302
1129.24259	0.94164
1127.18568	0.94045
1125.12878	0.93905
1123.07187	0.93735
1121.01496	0.93571
1118.95805	0.93455
1116.90114	0.93380
1114.84424	0.93290
1112.78733	0.93189
1110.73042	0.93120
1108.67351	0.93058
1106.61660	0.92952
1104.55969	0.92836
1102.50279	0.92760
1100.44588	0.92715
1098.38897	0.92667
1096.33206	0.92584
1094.27515	0.92461
1092.21825	0.92323
1090.16134	0.92195
1088.10443	0.92058
1086.04752	0.91862
1083.99061	0.91607
1081.93370	0.91340
1079.87680	0.91066
1077.81989	0.90766
1075.76298	0.90477
1073.70607	0.90222
1071.64916	0.89980
1069.59226	0.89755
1067.53535	0.89563
1065.47844	0.89408
1063.42153	0.89267
1061.36462	0.89113
1059.30771	0.88918
1057.25081	0.88670
1055.19390	0.88436
1053.13699	0.88276
1051.08008	0.88152
1049.02317	0.88001
1046.96627	0.87848
1044.90936	0.87718
1042.85245	0.87596
1040.79554	0.87493
1038.73863	0.87378
1036.68172	0.87195
1034.62482	0.86960
1032.56791	0.86743
1030.51100	0.86583
1028.45409	0.86465
1026.39718	0.86375
1024.34028	0.86306
1022.28337	0.86278
1020.22646	0.86344
1018.16955	0.86462
1016.11264	0.86555
1014.05573	0.86650
1011.99883	0.86787
1009.94192	0.86953
1007.88501	0.87159
1005.82810	0.87395
1003.77119	0.87565
1001.71429	0.87659
999.65738	0.87782
997.60047	0.87969
995.54356	0.88153
993.48665	0.88320
991.42974	0.88529
989.37284	0.88783
987.31593	0.89038
985.25902	0.89261
983.20211	0.89469
981.14520	0.89710
979.08830	0.89954
977.03139	0.90158
974.97448	0.90363
972.91757	0.90606
970.86066	0.90891
968.80375	0.91182
966.74685	0.91431
964.68994	0.91671
962.63303	0.91928
960.57612	0.92160
958.51921	0.92365
956.46231	0.92541
954.40540	0.92692
952.34849	0.92862
950.29158	0.93046
948.23467	0.93218
946.17776	0.93371
944.12086	0.93480
942.06395	0.93534
940.00704	0.93596
937.95013	0.93672
935.89322	0.93704
933.83632	0.93721
931.77941	0.93754
929.72250	0.93757
927.66559	0.93734
925.60868	0.93725
923.55177	0.93715
921.49487	0.93713
919.43796	0.93722
917.38105	0.93702
915.32414	0.93641
913.26723	0.93546
911.21033	0.93454
909.15342	0.93412
907.09651	0.93423
905.03960	0.93433
902.98269	0.93395
900.92578	0.93351
898.86888	0.93339
896.81197	0.93326
894.75506	0.93328
892.69815	0.93382
890.64124	0.93473
888.58434	0.93568
886.52743	0.93649
884.47052	0.93769
882.41361	0.93962
880.35670	0.94165
878.29979	0.94361
876.24289	0.94561
874.18598	0.94721
872.12907	0.94830
870.07216	0.94931
868.01525	0.95032
865.95835	0.95078
863.90144	0.95091
861.84453	0.95153
859.78762	0.95258
857.73071	0.95355
855.67380	0.95419
853.61690	0.95402
851.55999	0.95341
849.50308	0.95321
847.44617	0.95334
845.38926	0.95320
843.33236	0.95307
841.27545	0.95348
839.21854	0.95377
837.16163	0.95373
835.10472	0.95399
833.04781	0.95460
830.99091	0.95504
828.93400	0.95493
826.87709	0.95500
824.82018	0.95542
822.76327	0.95543
820.70637	0.95536
818.64946	0.95544
816.59255	0.95525
814.53564	0.95505
812.47873	0.95478
810.42182	0.95426
808.36492	0.95411
806.30801	0.95397
804.25110	0.95332
802.19419	0.95300
800.13728	0.95313
798.08038	0.95293
796.02347	0.95269
793.96656	0.95267
791.90965	0.95281
789.85274	0.95330
787.79583	0.95342
785.73893	0.95312
783.68202	0.95293
781.62511	0.95263
779.56820	0.95239
777.51129	0.95230
775.45439	0.95206
773.39748	0.95201
771.34057	0.95228
769.28366	0.95259
767.22675	0.95314
765.16984	0.95312
763.11294	0.95225
761.05603	0.95167
758.99912	0.95127
756.94221	0.95087
754.88530	0.95077
752.82839	0.95095
750.77149	0.95107
748.71458	0.95081
746.65767	0.95032
744.60076	0.95009
742.54385	0.95032
740.48695	0.95023
738.43004	0.94944
736.37313	0.94889
734.31622	0.94895
732.25931	0.94866
730.20240	0.94777
728.14550	0.94729
726.08859	0.94718
724.03168	0.94671
721.97477	0.94599
719.91786	0.94522
717.86096	0.94480
715.80405	0.94512
713.74714	0.94558
711.69023	0.94530
709.63332	0.94432
707.57641	0.94355
705.51951	0.94308
703.46260	0.94220
701.40569	0.94121
699.34878	0.94077
697.29187	0.94081
695.23497	0.94095
693.17806	0.94110
691.12115	0.94069
689.06424	0.93923
687.00733	0.93789
684.95042	0.93772
682.89352	0.93756
680.83661	0.93649
678.77970	0.93501
676.72279	0.93441
674.66588	0.93524
672.60898	0.93533
670.55207	0.93346
668.49516	0.93146
666.43825	0.93160
664.38134	0.93241
662.32443	0.93290
660.26753	0.93301
658.21062	0.93207
656.15371	0.93078
654.09680	0.93044
652.03989	0.93124
649.98299	0.93212
647.92608	0.93122
645.86917	0.92897
643.81226	0.92719
641.75535	0.92598
639.69844	0.92480
637.64154	0.92376
635.58463	0.92311
633.52772	0.92277
631.47081	0.92246
629.41390	0.92247
627.35700	0.92265
625.30009	0.92231
623.24318	0.92193
621.18627	0.92187
619.12936	0.92107
617.07245	0.91916
615.01555	0.91741
612.95864	0.91607
610.90173	0.91444
608.84482	0.91252
606.78791	0.91052
604.73101	0.90905
602.67410	0.90843
600.61719	0.90880
598.56028	0.90988
596.50337	0.91100
594.44646	0.91238
592.38956	0.91319
590.33265	0.91230
588.27574	0.91079
586.21883	0.90973
584.16192	0.90944
582.10502	0.90989
580.04811	0.91044
577.99120	0.91092
575.93429	0.91126
573.87738	0.91117
571.82047	0.91085
569.76357	0.91049
567.70666	0.91016
565.64975	0.90927
563.59284	0.90788
561.53593	0.90695
559.47903	0.90631
557.42212	0.90641
555.36521	0.90741
553.30830	0.90742
551.25139	0.90623
549.19448	0.90540
547.13758	0.90625
545.08067	0.90833
543.02376	0.90918
540.96685	0.90820
538.90994	0.90709
536.85304	0.90684
534.79613	0.90730
532.73922	0.90783
530.68231	0.90741
528.62540	0.90612
526.56849	0.90451
524.51159	0.90327
522.45468	0.90315
520.39777	0.90352
518.34086	0.90387
516.28395	0.90368
514.22705	0.90286
512.17014	0.90250
510.11323	0.90210
508.05632	0.89990
505.99941	0.89803
503.94250	0.89918
501.88560	0.90035
499.82869	0.89926
497.77178	0.89750
495.71487	0.89575
493.65796	0.89411
491.60106	0.89287
489.54415	0.89151
487.48724	0.89102
485.43033	0.89182
483.37342	0.89092
481.31651	0.88912
479.25961	0.89025
477.20270	0.89325
475.14579	0.89350
473.08888	0.88975
471.03197	0.88531
468.97507	0.88350
466.91816	0.88444
464.86125	0.88531
462.80434	0.88411
460.74743	0.88141
458.69052	0.87924
456.63362	0.87845
454.57671	0.87691
452.51980	0.87605
450.46289	0.87777
448.40598	0.87892
446.34908	0.87815
444.29217	0.87768
442.23526	0.87701
440.17835	0.87603
438.12144	0.87629
436.06453	0.87725
434.00763	0.87803
431.95072	0.87755
429.89381	0.87656
427.83690	0.87541
425.77999	0.87256
423.72309	0.87047
421.66618	0.87019
419.60927	0.86962
417.55236	0.87320
415.49545	0.87837
413.43854	0.87904
411.38164	0.87569
409.32473	0.87185
407.26782	0.87113
405.21091	0.87235
403.15400	0.87196
401.09710	0.87115
399.04019	0.87275
