3996.57260	0.98738
3994.51569	0.98752
3992.45878	0.98775
3990.40188	0.98796
3988.34497	0.98818
3986.28806	0.98811
3984.23115	0.98767
3982.17424	0.98720
3980.11733	0.98694
3978.06043	0.98704
3976.00352	0.98731
3973.94661	0.98753
3971.88970	0.98784
3969.83279	0.98818
3967.77589	0.98795
3965.71898	0.98770
3963.66207	0.98838
3961.60516	0.98914
3959.54825	0.98920
3957.49134	0.98877
3955.43444	0.98828
3953.37753	0.98825
3951.32062	0.98905
3949.26371	0.98947
3947.20680	0.98831
3945.14990	0.98706
3943.09299	0.98694
3941.03608	0.98737
3938.97917	0.98766
3936.92226	0.98753
3934.86535	0.98698
3932.80845	0.98672
3930.75154	0.98710
3928.69463	0.98735
3926.63772	0.98751
3924.58081	0.98794
3922.52391	0.98807
3920.46700	0.98818
3918.41009	0.98844
3916.35318	0.98856
3914.29627	0.98872
3912.23936	0.98874
3910.18246	0.98883
3908.12555	0.98910
3906.06864	0.98892
3904.01173	0.98796
3901.95482	0.98717
3899.89792	0.98766
3897.84101	0.98872
3895.78410	0.98902
3893.72719	0.98836
3891.67028	0.98757
3889.61337	0.98734
3887.55647	0.98764
3885.49956	0.98852
3883.44265	0.98936
3881.38574	0.98880
3879.32883	0.98757
3877.27193	0.98781
3875.21502	0.98889
3873.15811	0.98941
3871.10120	0.98909
3869.04429	0.98824
3866.98738	0.98762
3864.93048	0.98759
3862.87357	0.98784
3860.81666	0.98781
3858.75975	0.98760
3856.70284	0.98763
3854.64594	0.98757
3852.58903	0.98696
3850.53212	0.98702
3848.47521	0.98795
3846.41830	0.98881
3844.36139	0.98896
3842.30449	0.98845
3840.24758	0.98783
3838.19067	0.98732
3836.13376	0.98711
3834.07685	0.98719
3832.01995	0.98730
3829.96304	0.98776
3827.90613	0.98827
3825.84922	0.98831
3823.79231	0.98830
3821.73540	0.98851
3819.67850	0.98871
3817.62159	0.98872
3815.56468	0.98872
3813.50777	0.98889
3811.45086	0.98893
3809.39396	0.98880
3807.33705	0.98872
3805.28014	0.98864
3803.22323	0.98878
3801.16632	0.98935
3799.10941	0.98936
3797.05251	0.98835
3794.99560	0.98765
3792.93869	0.98795
3790.88178	0.98841
3788.82487	0.98849
3786.76796	0.98828
3784.71106	0.98814
3782.65415	0.98813
3780.59724	0.98785
3778.54033	0.98771
3776.48342	0.98841
3774.42652	0.98917
3772.36961	0.98951
3770.31270	0.98993
3768.25579	0.99011
3766.19888	0.98969
3764.14197	0.98953
3762.08507	0.98998
3760.02816	0.98992
3757.97125	0.98921
3755.91434	0.98934
3753.85743	0.99048
3751.80053	0.99137
3749.74362	0.99059
3747.68671	0.98915
3745.62980	0.98826
3743.57289	0.98742
3741.51598	0.98685
3739.45908	0.98741
3737.40217	0.98876
3735.34526	0.98931
3733.28835	0.98854
3731.23144	0.98821
3729.17454	0.98887
3727.11763	0.98944
3725.06072	0.98948
3723.00381	0.98923
3720.94690	0.98883
3718.88999	0.98901
3716.83309	0.98992
3714.77618	0.99073
3712.71927	0.99062
3710.66236	0.98895
3708.60545	0.98758
3706.54855	0.98777
3704.49164	0.98800
3702.43473	0.98764
3700.37782	0.98768
3698.32091	0.98839
3696.26400	0.98900
3694.20710	0.98963
3692.15019	0.99054
3690.09328	0.99064
3688.03637	0.98933
3685.97946	0.98781
3683.92256	0.98704
3681.86565	0.98716
3679.80874	0.98795
3677.75183	0.98882
3675.69492	0.98889
3673.63801	0.98806
3671.58111	0.98759
3669.52420	0.98842
3667.46729	0.98954
3665.41038	0.98927
3663.35347	0.98844
3661.29657	0.98822
3659.23966	0.98831
3657.18275	0.98823
3655.12584	0.98865
3653.06893	0.98923
3651.01202	0.98870
3648.95512	0.98758
3646.89821	0.98804
3644.84130	0.98899
3642.78439	0.98895
3640.72748	0.98820
3638.67058	0.98777
3636.61367	0.98804
3634.55676	0.98836
3632.49985	0.98837
3630.44294	0.98864
3628.38603	0.98877
3626.32913	0.98785
3624.27222	0.98740
3622.21531	0.98766
3620.15840	0.98734
3618.10149	0.98651
3616.04459	0.98657
3613.98768	0.98727
3611.93077	0.98794
3609.87386	0.98789
3607.81695	0.98725
3605.76004	0.98721
3603.70314	0.98709
3601.64623	0.98624
3599.58932	0.98575
3597.53241	0.98563
3595.47550	0.98523
3593.41860	0.98521
3591.36169	0.98544
3589.30478	0.98474
3587.24787	0.98367
3585.19096	0.98369
3583.13405	0.98413
3581.07715	0.98405
3579.02024	0.98367
3576.96333	0.98345
3574.90642	0.98335
3572.84951	0.98338
3570.79261	0.98325
3568.73570	0.98294
3566.67879	0.98267
3564.62188	0.98211
3562.56497	0.98127
3560.50806	0.98059
3558.45116	0.98059
3556.39425	0.98117
3554.33734	0.98143
3552.28043	0.98066
3550.22352	0.97937
3548.16662	0.97817
3546.10971	0.97712
3544.05280	0.97673
3541.99589	0.97700
3539.93898	0.97747
3537.88207	0.97742
3535.82517	0.97657
3533.76826	0.97563
3531.71135	0.97513
3529.65444	0.97537
3527.59753	0.97618
3525.54063	0.97660
3523.48372	0.97578
3521.42681	0.97438
3519.36990	0.97329
3517.31299	0.97255
3515.25608	0.97245
3513.19918	0.97262
3511.14227	0.97236
3509.08536	0.97181
3507.02845	0.97119
3504.97154	0.97052
3502.91464	0.97003
3500.85773	0.96970
3498.80082	0.96919
3496.74391	0.96875
3494.68700	0.96869
3492.63009	0.96868
3490.57319	0.96876
3488.51628	0.96855
3486.45937	0.96758
3484.40246	0.96676
3482.34555	0.96639
3480.28865	0.96626
3478.23174	0.96645
3476.17483	0.96621
3474.11792	0.96508
3472.06101	0.96426
3470.00410	0.96424
3467.94720	0.96413
3465.89029	0.96408
3463.83338	0.96427
3461.77647	0.96393
3459.71956	0.96324
3457.66266	0.96300
3455.60575	0.96310
3453.54884	0.96316
3451.49193	0.96312
3449.43502	0.96283
3447.37811	0.96249
3445.32121	0.96224
3443.26430	0.96192
3441.20739	0.96150
3439.15048	0.96100
3437.09357	0.96076
3435.03667	0.96106
3432.97976	0.96141
3430.92285	0.96115
3428.86594	0.96082
3426.80903	0.96104
3424.75212	0.96127
3422.69522	0.96105
3420.63831	0.96069
3418.58140	0.96068
3416.52449	0.96095
3414.46758	0.96095
3412.41068	0.96062
3410.35377	0.96017
3408.29686	0.95967
3406.23995	0.95944
3404.18304	0.95957
3402.12613	0.95986
3400.06923	0.96025
3398.01232	0.96055
3395.95541	0.96049
3393.89850	0.96011
3391.84159	0.95971
3389.78469	0.95953
3387.72778	0.95987
3385.67087	0.96014
3383.61396	0.95980
3381.55705	0.95959
3379.50014	0.95979
3377.44324	0.95989
3375.38633	0.95992
3373.32942	0.96015
3371.27251	0.96021
3369.21560	0.96016
3367.15870	0.96072
3365.10179	0.96128
3363.04488	0.96098
3360.98797	0.96042
3358.93106	0.96034
3356.87415	0.96060
3354.81725	0.96070
3352.76034	0.96062
3350.70343	0.96061
3348.64652	0.96079
3346.58961	0.96082
3344.53271	0.96047
3342.47580	0.96039
3340.41889	0.96087
3338.36198	0.96149
3336.30507	0.96170
3334.24816	0.96149
3332.19126	0.96152
3330.13435	0.96176
3328.07744	0.96194
3326.02053	0.96203
3323.96362	0.96200
3321.90672	0.96195
3319.84981	0.96209
3317.79290	0.96240
3315.73599	0.96258
3313.67908	0.96259
3311.62217	0.96277
3309.56527	0.96306
3307.50836	0.96315
3305.45145	0.96321
3303.39454	0.96354
3301.33763	0.96387
3299.28073	0.96370
3297.22382	0.96331
3295.16691	0.96332
3293.11000	0.96369
3291.05309	0.96419
3288.99618	0.96479
3286.93928	0.96559
3284.88237	0.96609
3282.82546	0.96594
3280.76855	0.96564
3278.71164	0.96552
3276.65474	0.96562
3274.59783	0.96586
3272.54092	0.96583
3270.48401	0.96573
3268.42710	0.96561
3266.37019	0.96514
3264.31329	0.96505
3262.25638	0.96567
3260.19947	0.96631
3258.14256	0.96637
3256.08565	0.96613
3254.02875	0.96625
3251.97184	0.96671
3249.91493	0.96729
3247.85802	0.96799
3245.80111	0.96857
3243.74420	0.96860
3241.68730	0.96857
3239.63039	0.96876
3237.57348	0.96896
3235.51657	0.96933
3233.45966	0.96968
3231.40276	0.96960
3229.34585	0.96918
3227.28894	0.96896
3225.23203	0.96901
3223.17512	0.96922
3221.11821	0.96956
3219.06131	0.96964
3217.00440	0.96957
3214.94749	0.97000
3212.89058	0.97075
3210.83367	0.97106
3208.77677	0.97076
3206.71986	0.97039
3204.66295	0.97036
3202.60604	0.97058
3200.54913	0.97085
3198.49222	0.97101
3196.43532	0.97122
3194.37841	0.97164
3192.32150	0.97208
3190.26459	0.97258
3188.20768	0.97306
3186.15078	0.97347
3184.09387	0.97382
3182.03696	0.97341
3179.98005	0.97252
3177.92314	0.97238
3175.86623	0.97307
3173.80933	0.97363
3171.75242	0.97360
3169.69551	0.97378
3167.63860	0.97431
3165.58169	0.97426
3163.52479	0.97378
3161.46788	0.97347
3159.41097	0.97351
3157.35406	0.97402
3155.29715	0.97478
3153.24024	0.97535
3151.18334	0.97575
3149.12643	0.97598
3147.06952	0.97573
3145.01261	0.97524
3142.95570	0.97506
3140.89880	0.97535
3138.84189	0.97579
3136.78498	0.97606
3134.72807	0.97655
3132.67116	0.97714
3130.61425	0.97707
3128.55735	0.97659
3126.50044	0.97630
3124.44353	0.97639
3122.38662	0.97670
3120.32971	0.97701
3118.27281	0.97714
3116.21590	0.97687
3114.15899	0.97661
3112.10208	0.97728
3110.04517	0.97842
3107.98826	0.97858
3105.93136	0.97790
3103.87445	0.97758
3101.81754	0.97798
3099.76063	0.97850
3097.70372	0.97863
3095.64682	0.97841
3093.58991	0.97836
3091.53300	0.97859
3089.47609	0.97873
3087.41918	0.97878
3085.36227	0.97892
3083.30537	0.97896
3081.24846	0.97878
3079.19155	0.97868
3077.13464	0.97874
3075.07773	0.97879
3073.02083	0.97897
3070.96392	0.97924
3068.90701	0.97927
3066.85010	0.97928
3064.79319	0.97958
3062.73628	0.97991
3060.67938	0.98002
3058.62247	0.98006
3056.56556	0.97993
3054.50865	0.97964
3052.45174	0.97963
3050.39484	0.97990
3048.33793	0.98022
3046.28102	0.98036
3044.22411	0.98029
3042.16720	0.98021
3040.11029	0.98029
3038.05339	0.98038
3035.99648	0.98042
3033.93957	0.98060
3031.88266	0.98073
3029.82575	0.98066
3027.76885	0.98061
3025.71194	0.98045
3023.65503	0.98014
3021.59812	0.98009
3019.54121	0.98024
3017.48430	0.98053
3015.42740	0.98085
3013.37049	0.98068
3011.31358	0.98062
3009.25667	0.98108
3007.19976	0.98137
3005.14286	0.98136
3003.08595	0.98133
3001.02904	0.98104
2998.97213	0.98073
2996.91522	0.98070
2994.85831	0.98068
2992.80141	0.98062
2990.74450	0.98069
2988.68759	0.98068
2986.63068	0.98034
2984.57377	0.98005
2982.51687	0.97998
2980.45996	0.97973
2978.40305	0.97948
2976.34614	0.97956
2974.28923	0.97955
2972.23232	0.97926
2970.17542	0.97874
2968.11851	0.97800
2966.06160	0.97742
2964.00469	0.97722
2961.94778	0.97715
2959.89088	0.97705
2957.83397	0.97696
2955.77706	0.97687
2953.72015	0.97640
2951.66324	0.97558
2949.60633	0.97494
2947.54943	0.97459
2945.49252	0.97425
2943.43561	0.97379
2941.37870	0.97310
2939.32179	0.97215
2937.26489	0.97118
2935.20798	0.97058
2933.15107	0.97041
2931.09416	0.97019
2929.03725	0.96948
2926.98034	0.96857
2924.92344	0.96797
2922.86653	0.96806
2920.80962	0.96861
2918.75271	0.96867
2916.69580	0.96824
2914.63890	0.96812
2912.58199	0.96839
2910.52508	0.96880
2908.46817	0.96915
2906.41126	0.96929
2904.35435	0.96934
2902.29745	0.96929
2900.24054	0.96921
2898.18363	0.96913
2896.12672	0.96901
2894.06981	0.96890
2892.01291	0.96866
2889.95600	0.96836
2887.89909	0.96815
2885.84218	0.96808
2883.78527	0.96849
2881.72836	0.96908
2879.67146	0.96927
2877.61455	0.96938
2875.55764	0.96948
2873.50073	0.96939
2871.44382	0.96950
2869.38692	0.96969
2867.33001	0.96971
2865.27310	0.96994
2863.21619	0.97026
2861.15928	0.97035
2859.10237	0.97046
2857.04547	0.97077
2854.98856	0.97103
2852.93165	0.97089
2850.87474	0.97079
2848.81783	0.97128
2846.76093	0.97197
2844.70402	0.97286
2842.64711	0.97394
2840.59020	0.97479
2838.53329	0.97553
2836.47638	0.97611
2834.41948	0.97635
2832.36257	0.97655
2830.30566	0.97684
2828.24875	0.97720
2826.19184	0.97741
2824.13494	0.97711
2822.07803	0.97661
2820.02112	0.97649
2817.96421	0.97674
2815.90730	0.97713
2813.85039	0.97748
2811.79349	0.97767
2809.73658	0.97782
2807.67967	0.97808
2805.62276	0.97822
2803.56585	0.97814
2801.50895	0.97800
2799.45204	0.97803
2797.39513	0.97841
2795.33822	0.97887
2793.28131	0.97901
2791.22440	0.97893
2789.16750	0.97891
2787.11059	0.97915
2785.05368	0.97958
2782.99677	0.97995
2780.93986	0.97995
2778.88296	0.97951
2776.82605	0.97909
2774.76914	0.97906
2772.71223	0.97928
2770.65532	0.97930
2768.59841	0.97904
2766.54151	0.97900
2764.48460	0.97932
2762.42769	0.97958
2760.37078	0.97965
2758.31387	0.97960
2756.25697	0.97953
2754.20006	0.97956
2752.14315	0.97946
2750.08624	0.97925
2748.02933	0.97924
2745.97242	0.97950
2743.91552	0.97982
2741.85861	0.97994
2739.80170	0.98000
2737.74479	0.97999
2735.68788	0.97973
2733.63098	0.97937
2731.57407	0.97936
2729.51716	0.97976
2727.46025	0.97996
2725.40334	0.97981
2723.34643	0.97966
2721.28953	0.97970
2719.23262	0.97986
2717.17571	0.98000
2715.11880	0.97998
2713.06189	0.97980
2711.00499	0.97971
2708.94808	0.97973
2706.89117	0.97992
2704.83426	0.98035
2702.77735	0.98057
2700.72044	0.98022
2698.66354	0.97972
2696.60663	0.97974
2694.54972	0.98022
2692.49281	0.98061
2690.43590	0.98073
2688.37900	0.98089
2686.32209	0.98125
2684.26518	0.98130
2682.20827	0.98095
2680.15136	0.98082
2678.09445	0.98081
2676.03755	0.98048
2673.98064	0.98035
2671.92373	0.98075
2669.86682	0.98114
2667.80991	0.98115
2665.75301	0.98077
2663.69610	0.98019
2661.63919	0.97996
2659.58228	0.98016
2657.52537	0.98036
2655.46846	0.98032
2653.41156	0.98003
2651.35465	0.97983
2649.29774	0.97999
2647.24083	0.98016
2645.18392	0.98012
2643.12702	0.98015
2641.07011	0.98023
2639.01320	0.98018
2636.95629	0.98014
2634.89938	0.98034
2632.84247	0.98081
2630.78557	0.98122
2628.72866	0.98129
2626.67175	0.98129
2624.61484	0.98132
2622.55793	0.98119
2620.50103	0.98090
2618.44412	0.98060
2616.38721	0.98039
2614.33030	0.98021
2612.27339	0.98014
2610.21648	0.98019
2608.15958	0.98041
2606.10267	0.98091
2604.04576	0.98143
2601.98885	0.98161
2599.93194	0.98175
2597.87504	0.98216
2595.81813	0.98213
2593.76122	0.98155
2591.70431	0.98156
2589.64740	0.98205
2587.59049	0.98215
2585.53359	0.98199
2583.47668	0.98203
2581.41977	0.98256
2579.36286	0.98325
2577.30595	0.98341
2575.24905	0.98298
2573.19214	0.98234
2571.13523	0.98175
2569.07832	0.98140
2567.02141	0.98171
2564.96450	0.98225
2562.90760	0.98241
2560.85069	0.98243
2558.79378	0.98269
2556.73687	0.98288
2554.67996	0.98279
2552.62306	0.98276
2550.56615	0.98232
2548.50924	0.98155
2546.45233	0.98141
2544.39542	0.98148
2542.33851	0.98175
2540.28161	0.98258
2538.22470	0.98320
2536.16779	0.98303
2534.11088	0.98257
2532.05397	0.98234
2529.99707	0.98203
2527.94016	0.98195
2525.88325	0.98255
2523.82634	0.98331
2521.76943	0.98349
2519.71252	0.98272
2517.65562	0.98216
2515.59871	0.98251
2513.54180	0.98292
2511.48489	0.98335
2509.42798	0.98382
2507.37108	0.98380
2505.31417	0.98377
2503.25726	0.98411
2501.20035	0.98391
2499.14344	0.98293
2497.08653	0.98229
2495.02963	0.98259
2492.97272	0.98305
2490.91581	0.98299
2488.85890	0.98265
2486.80199	0.98221
2484.74509	0.98194
2482.68818	0.98215
2480.63127	0.98251
2478.57436	0.98241
2476.51745	0.98209
2474.46054	0.98230
2472.40364	0.98303
2470.34673	0.98359
2468.28982	0.98354
2466.23291	0.98320
2464.17600	0.98288
2462.11910	0.98242
2460.06219	0.98224
2458.00528	0.98288
2455.94837	0.98346
2453.89146	0.98334
2451.83455	0.98304
2449.77765	0.98272
2447.72074	0.98265
2445.66383	0.98300
2443.60692	0.98340
2441.55001	0.98413
2439.49311	0.98484
2437.43620	0.98442
2435.37929	0.98346
2433.32238	0.98305
2431.26547	0.98324
2429.20856	0.98331
2427.15166	0.98304
2425.09475	0.98314
2423.03784	0.98336
2420.98093	0.98321
2418.92402	0.98297
2416.86712	0.98298
2414.81021	0.98332
2412.75330	0.98362
2410.69639	0.98389
2408.63948	0.98423
2406.58257	0.98414
2404.52567	0.98345
2402.46876	0.98276
2400.41185	0.98268
2398.35494	0.98337
2396.29803	0.98416
2394.24113	0.98435
2392.18422	0.98405
2390.12731	0.98359
2388.07040	0.98328
2386.01349	0.98342
2383.95658	0.98384
2381.89968	0.98440
2379.84277	0.98502
2377.78586	0.98514
2375.72895	0.98432
2373.67204	0.98311
2371.61514	0.98308
2369.55823	0.98443
2367.50132	0.98466
2365.44441	0.98346
2363.38750	0.98367
2361.33059	0.98465
2359.27369	0.98456
2357.21678	0.98433
2355.15987	0.98414
2353.10296	0.98370
2351.04605	0.98369
2348.98915	0.98408
2346.93224	0.98415
2344.87533	0.98361
2342.81842	0.98312
2340.76151	0.98283
2338.70460	0.98250
2336.64770	0.98274
2334.59079	0.98323
2332.53388	0.98325
2330.47697	0.98351
2328.42006	0.98390
2326.36316	0.98283
2324.30625	0.98105
2322.24934	0.98094
2320.19243	0.98202
2318.13552	0.98264
2316.07861	0.98277
2314.02171	0.98292
2311.96480	0.98338
2309.90789	0.98361
2307.85098	0.98343
2305.79407	0.98340
2303.73717	0.98385
2301.68026	0.98440
2299.62335	0.98442
2297.56644	0.98404
2295.50953	0.98353
2293.45262	0.98298
2291.39572	0.98286
2289.33881	0.98306
2287.28190	0.98322
2285.22499	0.98341
2283.16808	0.98343
2281.11117	0.98314
2279.05427	0.98239
2276.99736	0.98169
2274.94045	0.98188
2272.88354	0.98255
2270.82663	0.98312
2268.76973	0.98326
2266.71282	0.98357
2264.65591	0.98437
2262.59900	0.98475
2260.54209	0.98443
2258.48518	0.98387
2256.42828	0.98382
2254.37137	0.98399
2252.31446	0.98357
2250.25755	0.98345
2248.20064	0.98414
2246.14374	0.98431
2244.08683	0.98334
2242.02992	0.98252
2239.97301	0.98267
2237.91610	0.98303
2235.85919	0.98315
2233.80229	0.98357
2231.74538	0.98469
2229.68847	0.98608
2227.63156	0.98635
2225.57465	0.98514
2223.51775	0.98451
2221.46084	0.98447
2219.40393	0.98420
2217.34702	0.98453
2215.29011	0.98424
2213.23320	0.98313
2211.17630	0.98288
2209.11939	0.98350
2207.06248	0.98483
2205.00557	0.98610
2202.94866	0.98630
2200.89176	0.98597
2198.83485	0.98582
2196.77794	0.98555
2194.72103	0.98479
2192.66412	0.98406
2190.60721	0.98448
2188.55031	0.98695
2186.49340	0.98960
2184.43649	0.98897
2182.37958	0.98534
2180.32267	0.98296
2178.26577	0.98442
2176.20886	0.98631
2174.15195	0.98491
2172.09504	0.98128
2170.03813	0.97882
2167.98122	0.97996
2165.92432	0.98338
2163.86741	0.98513
2161.81050	0.98499
2159.75359	0.98576
2157.69668	0.98799
2155.63978	0.99136
2153.58287	0.99333
2151.52596	0.99221
2149.46905	0.99036
2147.41214	0.98856
2145.35523	0.98668
2143.29833	0.98618
2141.24142	0.98633
2139.18451	0.98549
2137.12760	0.98532
2135.07069	0.98628
2133.01379	0.98647
2130.95688	0.98626
2128.89997	0.98643
2126.84306	0.98619
2124.78615	0.98525
2122.72924	0.98463
2120.67234	0.98490
2118.61543	0.98517
2116.55852	0.98499
2114.50161	0.98541
2112.44470	0.98640
2110.38780	0.98675
2108.33089	0.98640
2106.27398	0.98574
2104.21707	0.98530
2102.16016	0.98527
2100.10325	0.98515
2098.04635	0.98525
2095.98944	0.98550
2093.93253	0.98571
2091.87562	0.98618
2089.81871	0.98613
2087.76181	0.98484
2085.70490	0.98300
2083.64799	0.98224
2081.59108	0.98260
2079.53417	0.98291
2077.47726	0.98337
2075.42036	0.98420
2073.36345	0.98479
2071.30654	0.98488
2069.24963	0.98453
2067.19272	0.98372
2065.13582	0.98333
2063.07891	0.98434
2061.02200	0.98582
2058.96509	0.98664
2056.90818	0.98723
2054.85127	0.98756
2052.79437	0.98665
2050.73746	0.98521
2048.68055	0.98484
2046.62364	0.98512
2044.56673	0.98487
2042.50983	0.98377
2040.45292	0.98278
2038.39601	0.98373
2036.33910	0.98584
2034.28219	0.98612
2032.22528	0.98523
2030.16838	0.98554
2028.11147	0.98629
2026.05456	0.98684
2023.99765	0.98732
2021.94074	0.98663
2019.88384	0.98495
2017.82693	0.98484
2015.77002	0.98826
2013.71311	0.99300
2011.65620	0.99441
2009.59929	0.99127
2007.54239	0.98695
2005.48548	0.98573
2003.42857	0.98713
2001.37166	0.98673
1999.31475	0.98479
1997.25785	0.98443
1995.20094	0.98552
1993.14403	0.98703
1991.08712	0.98734
1989.03021	0.98631
1986.97330	0.98628
1984.91640	0.98679
1982.85949	0.98608
1980.80258	0.98567
1978.74567	0.98748
1976.68876	0.98984
1974.63186	0.99143
1972.57495	0.99210
1970.51804	0.99086
1968.46113	0.98924
1966.40422	0.98846
1964.34731	0.98712
1962.29041	0.98562
1960.23350	0.98536
1958.17659	0.98580
1956.11968	0.98710
1954.06277	0.98869
1952.00587	0.98887
1949.94896	0.98855
1947.89205	0.98829
1945.83514	0.98771
1943.77823	0.98719
1941.72132	0.98689
1939.66442	0.98706
1937.60751	0.98751
1935.55060	0.98769
1933.49369	0.98729
1931.43678	0.98612
1929.37988	0.98520
1927.32297	0.98534
1925.26606	0.98578
1923.20915	0.98657
1921.15224	0.98776
1919.09533	0.98836
1917.03843	0.98777
1914.98152	0.98670
1912.92461	0.98627
1910.86770	0.98618
1908.81079	0.98597
1906.75389	0.98597
1904.69698	0.98617
1902.64007	0.98660
1900.58316	0.98716
1898.52625	0.98696
1896.46934	0.98629
1894.41244	0.98616
1892.35553	0.98621
1890.29862	0.98615
1888.24171	0.98673
1886.18480	0.98756
1884.12790	0.98734
1882.07099	0.98664
1880.01408	0.98653
1877.95717	0.98659
1875.90026	0.98644
1873.84335	0.98629
1871.78645	0.98613
1869.72954	0.98610
1867.67263	0.98645
1865.61572	0.98648
1863.55881	0.98602
1861.50191	0.98589
1859.44500	0.98634
1857.38809	0.98661
1855.33118	0.98653
1853.27427	0.98650
1851.21736	0.98663
1849.16046	0.98664
1847.10355	0.98639
1845.04664	0.98649
1842.98973	0.98669
1840.93282	0.98642
1838.87592	0.98647
1836.81901	0.98677
1834.76210	0.98656
1832.70519	0.98622
1830.64828	0.98642
1828.59137	0.98680
1826.53447	0.98684
1824.47756	0.98649
1822.42065	0.98602
1820.36374	0.98583
1818.30683	0.98617
1816.24993	0.98678
1814.19302	0.98698
1812.13611	0.98683
1810.07920	0.98673
1808.02229	0.98655
1805.96538	0.98628
1803.90848	0.98632
1801.85157	0.98659
1799.79466	0.98633
1797.73775	0.98585
1795.68084	0.98608
1793.62394	0.98679
1791.56703	0.98705
1789.51012	0.98681
1787.45321	0.98678
1785.39630	0.98681
1783.33939	0.98646
1781.28249	0.98604
1779.22558	0.98582
1777.16867	0.98575
1775.11176	0.98599
1773.05485	0.98614
1770.99795	0.98531
1768.94104	0.98381
1766.88413	0.98218
1764.82722	0.98064
1762.77031	0.97900
1760.71340	0.97704
1758.65650	0.97482
1756.59959	0.97222
1754.54268	0.96984
1752.48577	0.96740
1750.42886	0.96399
1748.37196	0.96018
1746.31505	0.95695
1744.25814	0.95409
1742.20123	0.95132
1740.14432	0.94886
1738.08741	0.94717
1736.03051	0.94610
1733.97360	0.94466
1731.91669	0.94335
1729.85978	0.94278
1727.80287	0.94249
1725.74597	0.94246
1723.68906	0.94274
1721.63215	0.94333
1719.57524	0.94418
1717.51833	0.94522
1715.46142	0.94676
1713.40452	0.94877
1711.34761	0.95083
1709.29070	0.95283
1707.23379	0.95499
1705.17688	0.95725
1703.11998	0.95910
1701.06307	0.96115
1699.00616	0.96361
1696.94925	0.96549
1694.89234	0.96723
1692.83543	0.96854
1690.77853	0.96940
1688.72162	0.97035
1686.66471	0.97141
1684.60780	0.97216
1682.55089	0.97254
1680.49399	0.97312
1678.43708	0.97388
1676.38017	0.97446
1674.32326	0.97476
1672.26635	0.97499
1670.20944	0.97501
1668.15254	0.97490
1666.09563	0.97503
1664.03872	0.97519
1661.98181	0.97521
1659.92490	0.97514
1657.86800	0.97513
1655.81109	0.97510
1653.75418	0.97464
1651.69727	0.97402
1649.64036	0.97392
1647.58345	0.97405
1645.52655	0.97422
1643.46964	0.97438
1641.41273	0.97469
1639.35582	0.97505
1637.29891	0.97529
1635.24201	0.97513
1633.18510	0.97518
1631.12819	0.97559
1629.07128	0.97554
1627.01437	0.97503
1624.95746	0.97471
1622.90056	0.97477
1620.84365	0.97509
1618.78674	0.97516
1616.72983	0.97478
1614.67292	0.97452
1612.61602	0.97448
1610.55911	0.97438
1608.50220	0.97429
1606.44529	0.97426
1604.38838	0.97416
1602.33147	0.97396
1600.27457	0.97374
1598.21766	0.97359
1596.16075	0.97352
1594.10384	0.97343
1592.04693	0.97342
1589.99003	0.97354
1587.93312	0.97352
1585.87621	0.97352
1583.81930	0.97359
1581.76239	0.97347
1579.70548	0.97337
1577.64858	0.97323
1575.59167	0.97283
1573.53476	0.97279
1571.47785	0.97310
1569.42094	0.97359
1567.36404	0.97399
1565.30713	0.97399
1563.25022	0.97410
1561.19331	0.97442
1559.13640	0.97474
1557.07949	0.97497
1555.02259	0.97500
1552.96568	0.97508
1550.90877	0.97523
1548.85186	0.97549
1546.79495	0.97589
1544.73805	0.97621
1542.68114	0.97624
1540.62423	0.97593
1538.56732	0.97595
1536.51041	0.97626
1534.45350	0.97637
1532.39660	0.97650
1530.33969	0.97687
1528.28278	0.97714
1526.22587	0.97713
1524.16896	0.97712
1522.11206	0.97718
1520.05515	0.97720
1517.99824	0.97715
1515.94133	0.97707
1513.88442	0.97726
1511.82751	0.97776
1509.77061	0.97818
1507.71370	0.97813
1505.65679	0.97790
1503.59988	0.97784
1501.54297	0.97778
1499.48607	0.97771
1497.42916	0.97756
1495.37225	0.97743
1493.31534	0.97761
1491.25843	0.97794
1489.20152	0.97789
1487.14462	0.97739
1485.08771	0.97693
1483.03080	0.97657
1480.97389	0.97612
1478.91698	0.97555
1476.86008	0.97493
1474.80317	0.97419
1472.74626	0.97316
1470.68935	0.97211
1468.63244	0.97132
1466.57553	0.97041
1464.51863	0.96933
1462.46172	0.96848
1460.40481	0.96774
1458.34790	0.96669
1456.29099	0.96543
1454.23409	0.96461
1452.17718	0.96407
1450.12027	0.96373
1448.06336	0.96343
1446.00645	0.96276
1443.94954	0.96198
1441.89264	0.96131
1439.83573	0.96065
1437.77882	0.95996
1435.72191	0.95920
1433.66500	0.95847
1431.60810	0.95776
1429.55119	0.95722
1427.49428	0.95708
1425.43737	0.95697
1423.38046	0.95682
1421.32355	0.95701
1419.26665	0.95721
1417.20974	0.95699
1415.15283	0.95678
1413.09592	0.95666
1411.03901	0.95647
1408.98211	0.95635
1406.92520	0.95657
1404.86829	0.95684
1402.81138	0.95695
1400.75447	0.95718
1398.69756	0.95729
1396.64066	0.95679
1394.58375	0.95610
1392.52684	0.95560
1390.46993	0.95500
1388.41302	0.95390
1386.35612	0.95240
1384.29921	0.95098
1382.24230	0.94954
1380.18539	0.94768
1378.12848	0.94542
1376.07157	0.94326
1374.01467	0.94151
1371.95776	0.94040
1369.90085	0.93999
1367.84394	0.94016
1365.78703	0.94104
1363.73013	0.94277
1361.67322	0.94501
1359.61631	0.94686
1357.55940	0.94824
1355.50249	0.94967
1353.44558	0.95118
1351.38868	0.95223
1349.33177	0.95274
1347.27486	0.95323
1345.21795	0.95381
1343.16104	0.95418
1341.10414	0.95446
1339.04723	0.95480
1336.99032	0.95496
1334.93341	0.95504
1332.87650	0.95527
1330.81959	0.95554
1328.76269	0.95574
1326.70578	0.95587
1324.64887	0.95605
1322.59196	0.95631
1320.53505	0.95649
1318.47815	0.95641
1316.42124	0.95614
1314.36433	0.95604
1312.30742	0.95645
1310.25051	0.95723
1308.19360	0.95794
1306.13670	0.95831
1304.07979	0.95835
1302.02288	0.95825
1299.96597	0.95820
1297.90906	0.95827
1295.85216	0.95829
1293.79525	0.95808
1291.73834	0.95777
1289.68143	0.95769
1287.62452	0.95757
1285.56761	0.95693
1283.51071	0.95584
1281.45380	0.95450
1279.39689	0.95317
1277.33998	0.95204
1275.28307	0.95076
1273.22617	0.94914
1271.16926	0.94740
1269.11235	0.94567
1267.05544	0.94404
1264.99853	0.94229
1262.94162	0.94017
1260.88472	0.93781
1258.82781	0.93542
1256.77090	0.93316
1254.71399	0.93098
1252.65708	0.92866
1250.60018	0.92618
1248.54327	0.92376
1246.48636	0.92162
1244.42945	0.91971
1242.37254	0.91811
1240.31563	0.91687
1238.25873	0.91567
1236.20182	0.91443
1234.14491	0.91342
1232.08800	0.91283
1230.03109	0.91264
1227.97419	0.91299
1225.91728	0.91425
1223.86037	0.91634
1221.80346	0.91884
1219.74655	0.92180
1217.68964	0.92537
1215.63274	0.92906
1213.57583	0.93228
1211.51892	0.93504
1209.46201	0.93760
1207.40510	0.93980
1205.34820	0.94156
1203.29129	0.94297
1201.23438	0.94412
1199.17747	0.94545
1197.12056	0.94706
1195.06365	0.94874
1193.00675	0.95033
1190.94984	0.95181
1188.89293	0.95292
1186.83602	0.95331
1184.77911	0.95340
1182.72221	0.95341
1180.66530	0.95256
1178.60839	0.95104
1176.55148	0.94964
1174.49457	0.94790
1172.43766	0.94553
1170.38076	0.94300
1168.32385	0.94021
1166.26694	0.93692
1164.21003	0.93371
1162.15312	0.93129
1160.09622	0.92973
1158.03931	0.92882
1155.98240	0.92842
1153.92549	0.92851
1151.86858	0.92910
1149.81167	0.93002
1147.75477	0.93096
1145.69786	0.93164
1143.64095	0.93203
1141.58404	0.93202
1139.52713	0.93127
1137.47023	0.92970
1135.41332	0.92762
1133.35641	0.92545
1131.29950	0.92323
1129.24259	0.92081
1127.18568	0.91844
1125.12878	0.91627
1123.07187	0.91402
1121.01496	0.91175
1118.95805	0.90946
1116.90114	0.90727
1114.84424	0.90567
1112.78733	0.90456
1110.73042	0.90334
1108.67351	0.90194
1106.61660	0.90051
1104.55969	0.89907
1102.50279	0.89793
1100.44588	0.89689
1098.38897	0.89533
1096.33206	0.89348
1094.27515	0.89195
1092.21825	0.89079
1090.16134	0.88956
1088.10443	0.88792
1086.04752	0.88581
1083.99061	0.88326
1081.93370	0.88046
1079.87680	0.87749
1077.81989	0.87447
1075.76298	0.87149
1073.70607	0.86831
1071.64916	0.86486
1069.59226	0.86171
1067.53535	0.85936
1065.47844	0.85755
1063.42153	0.85588
1061.36462	0.85420
1059.30771	0.85242
1057.25081	0.85076
1055.19390	0.84959
1053.13699	0.84861
1051.08008	0.84734
1049.02317	0.84583
1046.96627	0.84425
1044.90936	0.84253
1042.85245	0.84060
1040.79554	0.83878
1038.73863	0.83709
1036.68172	0.83527
1034.62482	0.83316
1032.56791	0.83093
1030.51100	0.82892
1028.45409	0.82719
1026.39718	0.82574
1024.34028	0.82471
1022.28337	0.82420
1020.22646	0.82393
1018.16955	0.82348
1016.11264	0.82317
1014.05573	0.82387
1011.99883	0.82558
1009.94192	0.82761
1007.88501	0.82987
1005.82810	0.83196
1003.77119	0.83313
1001.71429	0.83379
999.65738	0.83460
997.60047	0.83545
995.54356	0.83642
993.48665	0.83781
991.42974	0.83951
989.37284	0.84135
987.31593	0.84353
985.25902	0.84624
983.20211	0.84927
981.14520	0.85218
979.08830	0.85489
977.03139	0.85765
974.97448	0.86050
972.91757	0.86330
970.86066	0.86619
968.80375	0.86920
966.74685	0.87201
964.68994	0.87464
962.63303	0.87727
960.57612	0.87979
958.51921	0.88222
956.46231	0.88495
954.40540	0.88787
952.34849	0.89050
950.29158	0.89292
948.23467	0.89502
946.17776	0.89653
944.12086	0.89808
942.06395	0.90007
940.00704	0.90196
937.95013	0.90319
935.89322	0.90388
933.83632	0.90435
931.77941	0.90490
929.72250	0.90574
927.66559	0.90654
925.60868	0.90725
923.55177	0.90820
921.49487	0.90898
919.43796	0.90942
917.38105	0.91007
915.32414	0.91065
913.26723	0.91050
911.21033	0.90964
909.15342	0.90856
907.09651	0.90789
905.03960	0.90771
902.98269	0.90747
900.92578	0.90685
898.86888	0.90613
896.81197	0.90602
894.75506	0.90683
892.69815	0.90788
890.64124	0.90844
888.58434	0.90876
886.52743	0.90961
884.47052	0.91103
882.41361	0.91265
880.35670	0.91450
878.29979	0.91636
876.24289	0.91784
874.18598	0.91916
872.12907	0.92080
870.07216	0.92259
868.01525	0.92413
865.95835	0.92570
863.90144	0.92732
861.84453	0.92851
859.78762	0.92921
857.73071	0.92981
855.67380	0.93047
853.61690	0.93128
851.55999	0.93183
849.50308	0.93205
847.44617	0.93242
845.38926	0.93274
843.33236	0.93297
841.27545	0.93358
839.21854	0.93437
837.16163	0.93477
835.10472	0.93450
833.04781	0.93392
830.99091	0.93399
828.93400	0.93476
826.87709	0.93537
824.82018	0.93570
822.76327	0.93578
820.70637	0.93579
818.64946	0.93659
816.59255	0.93790
814.53564	0.93819
812.47873	0.93741
810.42182	0.93682
808.36492	0.93691
806.30801	0.93714
804.25110	0.93721
802.19419	0.93691
800.13728	0.93649
798.08038	0.93696
796.02347	0.93768
793.96656	0.93789
791.90965	0.93811
789.85274	0.93805
787.79583	0.93756
785.73893	0.93767
783.68202	0.93851
781.62511	0.93913
779.56820	0.93913
777.51129	0.93871
775.45439	0.93829
773.39748	0.93852
771.34057	0.93935
769.28366	0.93994
767.22675	0.94017
765.16984	0.94030
763.11294	0.94044
761.05603	0.94069
758.99912	0.94106
756.94221	0.94134
754.88530	0.94144
752.82839	0.94146
750.77149	0.94141
748.71458	0.94108
746.65767	0.94054
744.60076	0.94029
742.54385	0.94039
740.48695	0.94055
738.43004	0.94053
736.37313	0.94025
734.31622	0.93992
732.25931	0.93971
730.20240	0.93986
728.14550	0.94016
726.08859	0.93975
724.03168	0.93841
721.97477	0.93736
719.91786	0.93716
717.86096	0.93707
715.80405	0.93708
713.74714	0.93725
711.69023	0.93714
709.63332	0.93687
707.57641	0.93658
705.51951	0.93589
703.46260	0.93497
701.40569	0.93462
699.34878	0.93455
697.29187	0.93427
695.23497	0.93409
693.17806	0.93394
691.12115	0.93354
689.06424	0.93300
687.00733	0.93258
684.95042	0.93237
682.89352	0.93172
680.83661	0.93026
678.77970	0.92840
676.72279	0.92629
674.66588	0.92446
672.60898	0.92392
670.55207	0.92416
668.49516	0.92308
666.43825	0.92052
664.38134	0.91933
662.32443	0.91942
660.26753	0.91964
658.21062	0.91951
656.15371	0.91948
654.09680	0.91959
652.03989	0.91933
649.98299	0.91827
647.92608	0.91663
645.86917	0.91540
643.81226	0.91488
641.75535	0.91464
639.69844	0.91431
637.64154	0.91343
635.58463	0.91190
633.52772	0.91073
631.47081	0.91056
629.41390	0.91046
627.35700	0.90945
625.30009	0.90773
623.24318	0.90631
621.18627	0.90535
619.12936	0.90466
617.07245	0.90420
615.01555	0.90291
612.95864	0.90081
610.90173	0.89940
608.84482	0.89906
606.78791	0.89907
604.73101	0.89821
602.67410	0.89586
600.61719	0.89356
598.56028	0.89321
596.50337	0.89456
594.44646	0.89566
592.38956	0.89607
590.33265	0.89643
588.27574	0.89605
586.21883	0.89529
584.16192	0.89508
582.10502	0.89524
580.04811	0.89569
577.99120	0.89637
575.93429	0.89607
573.87738	0.89408
571.82047	0.89214
569.76357	0.89165
567.70666	0.89178
565.64975	0.89163
563.59284	0.89204
561.53593	0.89290
559.47903	0.89262
557.42212	0.89180
555.36521	0.89147
553.30830	0.89075
551.25139	0.88972
549.19448	0.89024
547.13758	0.89240
545.08067	0.89403
543.02376	0.89412
540.96685	0.89318
538.90994	0.89138
536.85304	0.88964
534.79613	0.88880
532.73922	0.88768
530.68231	0.88652
528.62540	0.88716
526.56849	0.88842
524.51159	0.88790
522.45468	0.88707
520.39777	0.88745
518.34086	0.88703
516.28395	0.88465
514.22705	0.88221
512.17014	0.88075
510.11323	0.88025
508.05632	0.87981
505.99941	0.87823
503.94250	0.87705
501.88560	0.87702
499.82869	0.87580
497.77178	0.87423
495.71487	0.87489
493.65796	0.87571
491.60106	0.87389
489.54415	0.87107
487.48724	0.86955
485.43033	0.86949
483.37342	0.86990
481.31651	0.86937
479.25961	0.86768
477.20270	0.86656
475.14579	0.86763
473.08888	0.86832
471.03197	0.86500
468.97507	0.86060
466.91816	0.85914
464.86125	0.85994
462.80434	0.86056
460.74743	0.85987
458.69052	0.85852
456.63362	0.85863
454.57671	0.85995
452.51980	0.85989
450.46289	0.85936
448.40598	0.85957
446.34908	0.85924
444.29217	0.85827
442.23526	0.85607
440.17835	0.85331
438.12144	0.85319
436.06453	0.85523
434.00763	0.85792
431.95072	0.86052
429.89381	0.85912
427.83690	0.85279
425.77999	0.84838
423.72309	0.85050
421.66618	0.85488
419.60927	0.85678
417.55236	0.85396
415.49545	0.84988
413.43854	0.85075
411.38164	0.85387
409.32473	0.85265
407.26782	0.85053
405.21091	0.85222
403.15400	0.85599
401.09710	0.85982
399.04019	0.86216
