3996.57260	0.98382
3994.51569	0.98393
3992.45878	0.98379
3990.40188	0.98371
3988.34497	0.98363
3986.28806	0.98327
3984.23115	0.98286
3982.17424	0.98268
3980.11733	0.98293
3978.06043	0.98360
3976.00352	0.98394
3973.94661	0.98365
3971.88970	0.98333
3969.83279	0.98342
3967.77589	0.98378
3965.71898	0.98400
3963.66207	0.98391
3961.60516	0.98356
3959.54825	0.98344
3957.49134	0.98388
3955.43444	0.98452
3953.37753	0.98456
3951.32062	0.98386
3949.26371	0.98308
3947.20680	0.98309
3945.14990	0.98380
3943.09299	0.98390
3941.03608	0.98329
3938.97917	0.98314
3936.92226	0.98347
3934.86535	0.98388
3932.80845	0.98396
3930.75154	0.98342
3928.69463	0.98295
3926.63772	0.98296
3924.58081	0.98289
3922.52391	0.98276
3920.46700	0.98342
3918.41009	0.98455
3916.35318	0.98487
3914.29627	0.98437
3912.23936	0.98394
3910.18246	0.98365
3908.12555	0.98349
3906.06864	0.98385
3904.01173	0.98452
3901.95482	0.98463
3899.89792	0.98411
3897.84101	0.98342
3895.78410	0.98293
3893.72719	0.98285
3891.67028	0.98316
3889.61337	0.98353
3887.55647	0.98370
3885.49956	0.98347
3883.44265	0.98315
3881.38574	0.98324
3879.32883	0.98390
3877.27193	0.98481
3875.21502	0.98497
3873.15811	0.98429
3871.10120	0.98375
3869.04429	0.98363
3866.98738	0.98395
3864.93048	0.98435
3862.87357	0.98438
3860.81666	0.98423
3858.75975	0.98430
3856.70284	0.98515
3854.64594	0.98625
3852.58903	0.98592
3850.53212	0.98479
3848.47521	0.98397
3846.41830	0.98371
3844.36139	0.98379
3842.30449	0.98392
3840.24758	0.98421
3838.19067	0.98425
3836.13376	0.98399
3834.07685	0.98409
3832.01995	0.98446
3829.96304	0.98490
3827.90613	0.98506
3825.84922	0.98473
3823.79231	0.98450
3821.73540	0.98407
3819.67850	0.98320
3817.62159	0.98261
3815.56468	0.98213
3813.50777	0.98218
3811.45086	0.98282
3809.39396	0.98382
3807.33705	0.98487
3805.28014	0.98530
3803.22323	0.98570
3801.16632	0.98595
3799.10941	0.98533
3797.05251	0.98441
3794.99560	0.98386
3792.93869	0.98417
3790.88178	0.98464
3788.82487	0.98472
3786.76796	0.98492
3784.71106	0.98501
3782.65415	0.98461
3780.59724	0.98397
3778.54033	0.98330
3776.48342	0.98318
3774.42652	0.98325
3772.36961	0.98278
3770.31270	0.98244
3768.25579	0.98301
3766.19888	0.98358
3764.14197	0.98344
3762.08507	0.98337
3760.02816	0.98358
3757.97125	0.98342
3755.91434	0.98298
3753.85743	0.98266
3751.80053	0.98249
3749.74362	0.98213
3747.68671	0.98165
3745.62980	0.98211
3743.57289	0.98344
3741.51598	0.98397
3739.45908	0.98387
3737.40217	0.98401
3735.34526	0.98485
3733.28835	0.98546
3731.23144	0.98499
3729.17454	0.98480
3727.11763	0.98519
3725.06072	0.98469
3723.00381	0.98400
3720.94690	0.98462
3718.88999	0.98514
3716.83309	0.98466
3714.77618	0.98432
3712.71927	0.98460
3710.66236	0.98440
3708.60545	0.98428
3706.54855	0.98519
3704.49164	0.98589
3702.43473	0.98544
3700.37782	0.98416
3698.32091	0.98323
3696.26400	0.98344
3694.20710	0.98423
3692.15019	0.98445
3690.09328	0.98405
3688.03637	0.98382
3685.97946	0.98391
3683.92256	0.98394
3681.86565	0.98379
3679.80874	0.98400
3677.75183	0.98476
3675.69492	0.98522
3673.63801	0.98491
3671.58111	0.98442
3669.52420	0.98429
3667.46729	0.98420
3665.41038	0.98372
3663.35347	0.98346
3661.29657	0.98368
3659.23966	0.98403
3657.18275	0.98406
3655.12584	0.98378
3653.06893	0.98325
3651.01202	0.98249
3648.95512	0.98268
3646.89821	0.98330
3644.84130	0.98302
3642.78439	0.98269
3640.72748	0.98267
3638.67058	0.98294
3636.61367	0.98377
3634.55676	0.98426
3632.49985	0.98377
3630.44294	0.98343
3628.38603	0.98362
3626.32913	0.98365
3624.27222	0.98347
3622.21531	0.98311
3620.15840	0.98241
3618.10149	0.98158
3616.04459	0.98140
3613.98768	0.98196
3611.93077	0.98266
3609.87386	0.98269
3607.81695	0.98193
3605.76004	0.98086
3603.70314	0.97959
3601.64623	0.97852
3599.58932	0.97825
3597.53241	0.97830
3595.47550	0.97791
3593.41860	0.97766
3591.36169	0.97857
3589.30478	0.98000
3587.24787	0.98028
3585.19096	0.97925
3583.13405	0.97851
3581.07715	0.97878
3579.02024	0.97913
3576.96333	0.97835
3574.90642	0.97719
3572.84951	0.97682
3570.79261	0.97696
3568.73570	0.97701
3566.67879	0.97658
3564.62188	0.97592
3562.56497	0.97610
3560.50806	0.97632
3558.45116	0.97517
3556.39425	0.97352
3554.33734	0.97241
3552.28043	0.97205
3550.22352	0.97252
3548.16662	0.97313
3546.10971	0.97338
3544.05280	0.97331
3541.99589	0.97308
3539.93898	0.97278
3537.88207	0.97210
3535.82517	0.97107
3533.76826	0.97013
3531.71135	0.96929
3529.65444	0.96866
3527.59753	0.96849
3525.54063	0.96842
3523.48372	0.96818
3521.42681	0.96794
3519.36990	0.96785
3517.31299	0.96764
3515.25608	0.96732
3513.19918	0.96739
3511.14227	0.96729
3509.08536	0.96678
3507.02845	0.96660
3504.97154	0.96635
3502.91464	0.96559
3500.85773	0.96493
3498.80082	0.96484
3496.74391	0.96493
3494.68700	0.96476
3492.63009	0.96456
3490.57319	0.96460
3488.51628	0.96442
3486.45937	0.96381
3484.40246	0.96334
3482.34555	0.96313
3480.28865	0.96285
3478.23174	0.96253
3476.17483	0.96275
3474.11792	0.96318
3472.06101	0.96284
3470.00410	0.96198
3467.94720	0.96186
3465.89029	0.96249
3463.83338	0.96280
3461.77647	0.96227
3459.71956	0.96123
3457.66266	0.96075
3455.60575	0.96096
3453.54884	0.96115
3451.49193	0.96144
3449.43502	0.96174
3447.37811	0.96186
3445.32121	0.96224
3443.26430	0.96252
3441.20739	0.96248
3439.15048	0.96274
3437.09357	0.96296
3435.03667	0.96278
3432.97976	0.96268
3430.92285	0.96274
3428.86594	0.96249
3426.80903	0.96215
3424.75212	0.96214
3422.69522	0.96245
3420.63831	0.96269
3418.58140	0.96260
3416.52449	0.96276
3414.46758	0.96345
3412.41068	0.96391
3410.35377	0.96371
3408.29686	0.96353
3406.23995	0.96360
3404.18304	0.96375
3402.12613	0.96393
3400.06923	0.96384
3398.01232	0.96385
3395.95541	0.96425
3393.89850	0.96471
3391.84159	0.96506
3389.78469	0.96524
3387.72778	0.96506
3385.67087	0.96478
3383.61396	0.96470
3381.55705	0.96484
3379.50014	0.96519
3377.44324	0.96561
3375.38633	0.96566
3373.32942	0.96532
3371.27251	0.96536
3369.21560	0.96601
3367.15870	0.96658
3365.10179	0.96658
3363.04488	0.96641
3360.98797	0.96644
3358.93106	0.96658
3356.87415	0.96709
3354.81725	0.96771
3352.76034	0.96764
3350.70343	0.96733
3348.64652	0.96765
3346.58961	0.96853
3344.53271	0.96917
3342.47580	0.96901
3340.41889	0.96851
3338.36198	0.96832
3336.30507	0.96863
3334.24816	0.96906
3332.19126	0.96926
3330.13435	0.96976
3328.07744	0.97047
3326.02053	0.97068
3323.96362	0.97025
3321.90672	0.96974
3319.84981	0.96964
3317.79290	0.97000
3315.73599	0.97049
3313.67908	0.97058
3311.62217	0.97060
3309.56527	0.97101
3307.50836	0.97126
3305.45145	0.97120
3303.39454	0.97134
3301.33763	0.97152
3299.28073	0.97157
3297.22382	0.97164
3295.16691	0.97156
3293.11000	0.97133
3291.05309	0.97143
3288.99618	0.97164
3286.93928	0.97171
3284.88237	0.97188
3282.82546	0.97197
3280.76855	0.97229
3278.71164	0.97261
3276.65474	0.97235
3274.59783	0.97226
3272.54092	0.97249
3270.48401	0.97265
3268.42710	0.97300
3266.37019	0.97321
3264.31329	0.97312
3262.25638	0.97333
3260.19947	0.97366
3258.14256	0.97378
3256.08565	0.97374
3254.02875	0.97376
3251.97184	0.97403
3249.91493	0.97416
3247.85802	0.97396
3245.80111	0.97384
3243.74420	0.97394
3241.68730	0.97390
3239.63039	0.97371
3237.57348	0.97362
3235.51657	0.97389
3233.45966	0.97449
3231.40276	0.97515
3229.34585	0.97579
3227.28894	0.97615
3225.23203	0.97619
3223.17512	0.97593
3221.11821	0.97540
3219.06131	0.97519
3217.00440	0.97515
3214.94749	0.97488
3212.89058	0.97498
3210.83367	0.97528
3208.77677	0.97513
3206.71986	0.97514
3204.66295	0.97583
3202.60604	0.97649
3200.54913	0.97661
3198.49222	0.97659
3196.43532	0.97687
3194.37841	0.97718
3192.32150	0.97730
3190.26459	0.97736
3188.20768	0.97715
3186.15078	0.97671
3184.09387	0.97625
3182.03696	0.97638
3179.98005	0.97716
3177.92314	0.97746
3175.86623	0.97725
3173.80933	0.97705
3171.75242	0.97672
3169.69551	0.97674
3167.63860	0.97727
3165.58169	0.97739
3163.52479	0.97733
3161.46788	0.97779
3159.41097	0.97835
3157.35406	0.97862
3155.29715	0.97876
3153.24024	0.97861
3151.18334	0.97822
3149.12643	0.97826
3147.06952	0.97875
3145.01261	0.97901
3142.95570	0.97888
3140.89880	0.97875
3138.84189	0.97896
3136.78498	0.97947
3134.72807	0.98000
3132.67116	0.98010
3130.61425	0.97976
3128.55735	0.97922
3126.50044	0.97865
3124.44353	0.97856
3122.38662	0.97884
3120.32971	0.97871
3118.27281	0.97841
3116.21590	0.97875
3114.15899	0.97945
3112.10208	0.97954
3110.04517	0.97922
3107.98826	0.97936
3105.93136	0.97973
3103.87445	0.97997
3101.81754	0.98021
3099.76063	0.98030
3097.70372	0.98010
3095.64682	0.97968
3093.58991	0.97932
3091.53300	0.97954
3089.47609	0.98001
3087.41918	0.97983
3085.36227	0.97951
3083.30537	0.97988
3081.24846	0.98031
3079.19155	0.98029
3077.13464	0.98012
3075.07773	0.97985
3073.02083	0.97974
3070.96392	0.98000
3068.90701	0.98008
3066.85010	0.97991
3064.79319	0.97995
3062.73628	0.98021
3060.67938	0.98047
3058.62247	0.98051
3056.56556	0.98029
3054.50865	0.97986
3052.45174	0.97932
3050.39484	0.97902
3048.33793	0.97933
3046.28102	0.97995
3044.22411	0.98026
3042.16720	0.98030
3040.11029	0.98036
3038.05339	0.98030
3035.99648	0.97987
3033.93957	0.97929
3031.88266	0.97917
3029.82575	0.97978
3027.76885	0.98031
3025.71194	0.98032
3023.65503	0.98028
3021.59812	0.98013
3019.54121	0.97975
3017.48430	0.97975
3015.42740	0.98005
3013.37049	0.97997
3011.31358	0.97967
3009.25667	0.97971
3007.19976	0.98003
3005.14286	0.98013
3003.08595	0.97979
3001.02904	0.97941
2998.97213	0.97935
2996.91522	0.97933
2994.85831	0.97912
2992.80141	0.97902
2990.74450	0.97907
2988.68759	0.97904
2986.63068	0.97868
2984.57377	0.97830
2982.51687	0.97830
2980.45996	0.97852
2978.40305	0.97847
2976.34614	0.97784
2974.28923	0.97698
2972.23232	0.97653
2970.17542	0.97643
2968.11851	0.97632
2966.06160	0.97629
2964.00469	0.97633
2961.94778	0.97599
2959.89088	0.97526
2957.83397	0.97501
2955.77706	0.97533
2953.72015	0.97538
2951.66324	0.97483
2949.60633	0.97426
2947.54943	0.97429
2945.49252	0.97432
2943.43561	0.97383
2941.37870	0.97357
2939.32179	0.97368
2937.26489	0.97361
2935.20798	0.97341
2933.15107	0.97331
2931.09416	0.97335
2929.03725	0.97363
2926.98034	0.97392
2924.92344	0.97374
2922.86653	0.97332
2920.80962	0.97331
2918.75271	0.97346
2916.69580	0.97309
2914.63890	0.97264
2912.58199	0.97281
2910.52508	0.97333
2908.46817	0.97372
2906.41126	0.97354
2904.35435	0.97283
2902.29745	0.97228
2900.24054	0.97205
2898.18363	0.97186
2896.12672	0.97178
2894.06981	0.97162
2892.01291	0.97117
2889.95600	0.97090
2887.89909	0.97116
2885.84218	0.97139
2883.78527	0.97147
2881.72836	0.97183
2879.67146	0.97214
2877.61455	0.97220
2875.55764	0.97226
2873.50073	0.97238
2871.44382	0.97250
2869.38692	0.97250
2867.33001	0.97259
2865.27310	0.97313
2863.21619	0.97387
2861.15928	0.97408
2859.10237	0.97379
2857.04547	0.97397
2854.98856	0.97473
2852.93165	0.97514
2850.87474	0.97519
2848.81783	0.97551
2846.76093	0.97600
2844.70402	0.97637
2842.64711	0.97662
2840.59020	0.97684
2838.53329	0.97722
2836.47638	0.97757
2834.41948	0.97756
2832.36257	0.97751
2830.30566	0.97765
2828.24875	0.97782
2826.19184	0.97792
2824.13494	0.97801
2822.07803	0.97788
2820.02112	0.97757
2817.96421	0.97757
2815.90730	0.97783
2813.85039	0.97780
2811.79349	0.97745
2809.73658	0.97735
2807.67967	0.97783
2805.62276	0.97844
2803.56585	0.97862
2801.50895	0.97855
2799.45204	0.97883
2797.39513	0.97947
2795.33822	0.97978
2793.28131	0.97952
2791.22440	0.97919
2789.16750	0.97911
2787.11059	0.97914
2785.05368	0.97914
2782.99677	0.97904
2780.93986	0.97886
2778.88296	0.97895
2776.82605	0.97937
2774.76914	0.97959
2772.71223	0.97920
2770.65532	0.97869
2768.59841	0.97848
2766.54151	0.97839
2764.48460	0.97850
2762.42769	0.97878
2760.37078	0.97897
2758.31387	0.97928
2756.25697	0.97970
2754.20006	0.97976
2752.14315	0.97943
2750.08624	0.97905
2748.02933	0.97901
2745.97242	0.97926
2743.91552	0.97931
2741.85861	0.97894
2739.80170	0.97867
2737.74479	0.97884
2735.68788	0.97903
2733.63098	0.97917
2731.57407	0.97928
2729.51716	0.97912
2727.46025	0.97908
2725.40334	0.97949
2723.34643	0.97981
2721.28953	0.97972
2719.23262	0.97951
2717.17571	0.97935
2715.11880	0.97944
2713.06189	0.97946
2711.00499	0.97917
2708.94808	0.97932
2706.89117	0.97989
2704.83426	0.97994
2702.77735	0.97973
2700.72044	0.97978
2698.66354	0.97982
2696.60663	0.97968
2694.54972	0.97936
2692.49281	0.97931
2690.43590	0.97975
2688.37900	0.98005
2686.32209	0.98005
2684.26518	0.98019
2682.20827	0.98028
2680.15136	0.98003
2678.09445	0.97979
2676.03755	0.97980
2673.98064	0.98009
2671.92373	0.98052
2669.86682	0.98065
2667.80991	0.98035
2665.75301	0.97988
2663.69610	0.97970
2661.63919	0.97969
2659.58228	0.97944
2657.52537	0.97918
2655.46846	0.97910
2653.41156	0.97901
2651.35465	0.97891
2649.29774	0.97883
2647.24083	0.97873
2645.18392	0.97855
2643.12702	0.97857
2641.07011	0.97900
2639.01320	0.97943
2636.95629	0.97956
2634.89938	0.97954
2632.84247	0.97948
2630.78557	0.97951
2628.72866	0.97958
2626.67175	0.97960
2624.61484	0.97956
2622.55793	0.97953
2620.50103	0.97963
2618.44412	0.97973
2616.38721	0.97960
2614.33030	0.97945
2612.27339	0.97973
2610.21648	0.98020
2608.15958	0.98040
2606.10267	0.98035
2604.04576	0.98023
2601.98885	0.98011
2599.93194	0.98038
2597.87504	0.98097
2595.81813	0.98122
2593.76122	0.98144
2591.70431	0.98163
2589.64740	0.98143
2587.59049	0.98127
2585.53359	0.98135
2583.47668	0.98116
2581.41977	0.98019
2579.36286	0.97943
2577.30595	0.97968
2575.24905	0.97981
2573.19214	0.97934
2571.13523	0.97946
2569.07832	0.98061
2567.02141	0.98166
2564.96450	0.98186
2562.90760	0.98158
2560.85069	0.98119
2558.79378	0.98062
2556.73687	0.98042
2554.67996	0.98099
2552.62306	0.98145
2550.56615	0.98141
2548.50924	0.98099
2546.45233	0.98065
2544.39542	0.98093
2542.33851	0.98134
2540.28161	0.98149
2538.22470	0.98146
2536.16779	0.98143
2534.11088	0.98170
2532.05397	0.98218
2529.99707	0.98229
2527.94016	0.98175
2525.88325	0.98125
2523.82634	0.98135
2521.76943	0.98148
2519.71252	0.98116
2517.65562	0.98082
2515.59871	0.98100
2513.54180	0.98156
2511.48489	0.98192
2509.42798	0.98173
2507.37108	0.98148
2505.31417	0.98179
2503.25726	0.98211
2501.20035	0.98194
2499.14344	0.98158
2497.08653	0.98135
2495.02963	0.98139
2492.97272	0.98137
2490.91581	0.98119
2488.85890	0.98138
2486.80199	0.98181
2484.74509	0.98182
2482.68818	0.98140
2480.63127	0.98152
2478.57436	0.98243
2476.51745	0.98288
2474.46054	0.98264
2472.40364	0.98224
2470.34673	0.98160
2468.28982	0.98122
2466.23291	0.98149
2464.17600	0.98204
2462.11910	0.98234
2460.06219	0.98211
2458.00528	0.98208
2455.94837	0.98249
2453.89146	0.98224
2451.83455	0.98167
2449.77765	0.98180
2447.72074	0.98187
2445.66383	0.98150
2443.60692	0.98168
2441.55001	0.98248
2439.49311	0.98288
2437.43620	0.98221
2435.37929	0.98103
2433.32238	0.98052
2431.26547	0.98108
2429.20856	0.98217
2427.15166	0.98266
2425.09475	0.98246
2423.03784	0.98223
2420.98093	0.98199
2418.92402	0.98167
2416.86712	0.98172
2414.81021	0.98195
2412.75330	0.98163
2410.69639	0.98109
2408.63948	0.98105
2406.58257	0.98147
2404.52567	0.98198
2402.46876	0.98224
2400.41185	0.98228
2398.35494	0.98195
2396.29803	0.98145
2394.24113	0.98142
2392.18422	0.98170
2390.12731	0.98202
2388.07040	0.98219
2386.01349	0.98218
2383.95658	0.98227
2381.89968	0.98266
2379.84277	0.98306
2377.78586	0.98273
2375.72895	0.98182
2373.67204	0.98125
2371.61514	0.98115
2369.55823	0.98121
2367.50132	0.98182
2365.44441	0.98263
2363.38750	0.98300
2361.33059	0.98328
2359.27369	0.98324
2357.21678	0.98232
2355.15987	0.98083
2353.10296	0.98025
2351.04605	0.98077
2348.98915	0.98162
2346.93224	0.98229
2344.87533	0.98193
2342.81842	0.98105
2340.76151	0.98107
2338.70460	0.98139
2336.64770	0.98130
2334.59079	0.98149
2332.53388	0.98216
2330.47697	0.98220
2328.42006	0.98144
2326.36316	0.98063
2324.30625	0.98020
2322.24934	0.98052
2320.19243	0.98092
2318.13552	0.98100
2316.07861	0.98164
2314.02171	0.98252
2311.96480	0.98236
2309.90789	0.98131
2307.85098	0.98079
2305.79407	0.98084
2303.73717	0.98060
2301.68026	0.98047
2299.62335	0.98076
2297.56644	0.98064
2295.50953	0.98041
2293.45262	0.98088
2291.39572	0.98135
2289.33881	0.98114
2287.28190	0.98060
2285.22499	0.98033
2283.16808	0.98025
2281.11117	0.97978
2279.05427	0.97946
2276.99736	0.98001
2274.94045	0.98105
2272.88354	0.98187
2270.82663	0.98240
2268.76973	0.98306
2266.71282	0.98322
2264.65591	0.98287
2262.59900	0.98287
2260.54209	0.98215
2258.48518	0.98047
2256.42828	0.98002
2254.37137	0.98147
2252.31446	0.98268
2250.25755	0.98247
2248.20064	0.98200
2246.14374	0.98242
2244.08683	0.98307
2242.02992	0.98280
2239.97301	0.98232
2237.91610	0.98194
2235.85919	0.98136
2233.80229	0.98161
2231.74538	0.98261
2229.68847	0.98265
2227.63156	0.98163
2225.57465	0.98082
2223.51775	0.98097
2221.46084	0.98167
2219.40393	0.98179
2217.34702	0.98111
2215.29011	0.98046
2213.23320	0.98105
2211.17630	0.98288
2209.11939	0.98468
2207.06248	0.98585
2205.00557	0.98565
2202.94866	0.98418
2200.89176	0.98356
2198.83485	0.98406
2196.77794	0.98402
2194.72103	0.98300
2192.66412	0.98173
2190.60721	0.98218
2188.55031	0.98376
2186.49340	0.98379
2184.43649	0.98311
2182.37958	0.98322
2180.32267	0.98368
2178.26577	0.98381
2176.20886	0.98307
2174.15195	0.98216
2172.09504	0.98226
2170.03813	0.98369
2167.98122	0.98490
2165.92432	0.98386
2163.86741	0.98209
2161.81050	0.98192
2159.75359	0.98317
2157.69668	0.98520
2155.63978	0.98731
2153.58287	0.98726
2151.52596	0.98552
2149.46905	0.98565
2147.41214	0.98677
2145.35523	0.98623
2143.29833	0.98560
2141.24142	0.98555
2139.18451	0.98436
2137.12760	0.98272
2135.07069	0.98268
2133.01379	0.98382
2130.95688	0.98413
2128.89997	0.98393
2126.84306	0.98412
2124.78615	0.98392
2122.72924	0.98329
2120.67234	0.98236
2118.61543	0.98151
2116.55852	0.98166
2114.50161	0.98257
2112.44470	0.98331
2110.38780	0.98349
2108.33089	0.98308
2106.27398	0.98238
2104.21707	0.98231
2102.16016	0.98239
2100.10325	0.98248
2098.04635	0.98386
2095.98944	0.98578
2093.93253	0.98613
2091.87562	0.98513
2089.81871	0.98429
2087.76181	0.98367
2085.70490	0.98362
2083.64799	0.98456
2081.59108	0.98505
2079.53417	0.98441
2077.47726	0.98324
2075.42036	0.98235
2073.36345	0.98267
2071.30654	0.98332
2069.24963	0.98345
2067.19272	0.98377
2065.13582	0.98358
2063.07891	0.98270
2061.02200	0.98330
2058.96509	0.98515
2056.90818	0.98547
2054.85127	0.98410
2052.79437	0.98247
2050.73746	0.98132
2048.68055	0.98145
2046.62364	0.98244
2044.56673	0.98287
2042.50983	0.98231
2040.45292	0.98189
2038.39601	0.98278
2036.33910	0.98428
2034.28219	0.98540
2032.22528	0.98673
2030.16838	0.98766
2028.11147	0.98679
2026.05456	0.98571
2023.99765	0.98496
2021.94074	0.98416
2019.88384	0.98503
2017.82693	0.98681
2015.77002	0.98731
2013.71311	0.98812
2011.65620	0.99055
2009.59929	0.99070
2007.54239	0.98793
2005.48548	0.98659
2003.42857	0.98668
2001.37166	0.98655
1999.31475	0.98659
1997.25785	0.98622
1995.20094	0.98454
1993.14403	0.98318
1991.08712	0.98451
1989.03021	0.98700
1986.97330	0.98736
1984.91640	0.98575
1982.85949	0.98373
1980.80258	0.98246
1978.74567	0.98254
1976.68876	0.98334
1974.63186	0.98433
1972.57495	0.98499
1970.51804	0.98552
1968.46113	0.98650
1966.40422	0.98767
1964.34731	0.98758
1962.29041	0.98626
1960.23350	0.98622
1958.17659	0.98745
1956.11968	0.98756
1954.06277	0.98648
1952.00587	0.98607
1949.94896	0.98596
1947.89205	0.98540
1945.83514	0.98557
1943.77823	0.98690
1941.72132	0.98785
1939.66442	0.98684
1937.60751	0.98476
1935.55060	0.98391
1933.49369	0.98522
1931.43678	0.98724
1929.37988	0.98822
1927.32297	0.98780
1925.26606	0.98663
1923.20915	0.98597
1921.15224	0.98616
1919.09533	0.98623
1917.03843	0.98608
1914.98152	0.98582
1912.92461	0.98536
1910.86770	0.98528
1908.81079	0.98547
1906.75389	0.98536
1904.69698	0.98531
1902.64007	0.98568
1900.58316	0.98584
1898.52625	0.98540
1896.46934	0.98490
1894.41244	0.98502
1892.35553	0.98552
1890.29862	0.98568
1888.24171	0.98559
1886.18480	0.98579
1884.12790	0.98623
1882.07099	0.98644
1880.01408	0.98649
1877.95717	0.98637
1875.90026	0.98647
1873.84335	0.98696
1871.78645	0.98687
1869.72954	0.98622
1867.67263	0.98579
1865.61572	0.98574
1863.55881	0.98615
1861.50191	0.98687
1859.44500	0.98732
1857.38809	0.98718
1855.33118	0.98654
1853.27427	0.98609
1851.21736	0.98612
1849.16046	0.98647
1847.10355	0.98656
1845.04664	0.98597
1842.98973	0.98566
1840.93282	0.98615
1838.87592	0.98654
1836.81901	0.98648
1834.76210	0.98652
1832.70519	0.98639
1830.64828	0.98592
1828.59137	0.98562
1826.53447	0.98548
1824.47756	0.98560
1822.42065	0.98594
1820.36374	0.98592
1818.30683	0.98570
1816.24993	0.98572
1814.19302	0.98569
1812.13611	0.98561
1810.07920	0.98565
1808.02229	0.98577
1805.96538	0.98557
1803.90848	0.98506
1801.85157	0.98471
1799.79466	0.98443
1797.73775	0.98437
1795.68084	0.98473
1793.62394	0.98486
1791.56703	0.98447
1789.51012	0.98419
1787.45321	0.98407
1785.39630	0.98386
1783.33939	0.98348
1781.28249	0.98288
1779.22558	0.98193
1777.16867	0.98081
1775.11176	0.97973
1773.05485	0.97831
1770.99795	0.97539
1768.94104	0.97107
1766.88413	0.96607
1764.82722	0.96072
1762.77031	0.95381
1760.71340	0.94489
1758.65650	0.93624
1756.59959	0.92760
1754.54268	0.91968
1752.48577	0.91274
1750.42886	0.90522
1748.37196	0.89807
1746.31505	0.89246
1744.25814	0.88778
1742.20123	0.88362
1740.14432	0.87989
1738.08741	0.87755
1736.03051	0.87655
1733.97360	0.87519
1731.91669	0.87448
1729.85978	0.87519
1727.80287	0.87677
1725.74597	0.87935
1723.68906	0.88265
1721.63215	0.88638
1719.57524	0.89081
1717.51833	0.89630
1715.46142	0.90252
1713.40452	0.90896
1711.34761	0.91536
1709.29070	0.92157
1707.23379	0.92776
1705.17688	0.93367
1703.11998	0.93836
1701.06307	0.94283
1699.00616	0.94775
1696.94925	0.95147
1694.89234	0.95415
1692.83543	0.95603
1690.77853	0.95769
1688.72162	0.95945
1686.66471	0.96113
1684.60780	0.96262
1682.55089	0.96354
1680.49399	0.96443
1678.43708	0.96526
1676.38017	0.96571
1674.32326	0.96626
1672.26635	0.96715
1670.20944	0.96783
1668.15254	0.96810
1666.09563	0.96835
1664.03872	0.96868
1661.98181	0.96881
1659.92490	0.96880
1657.86800	0.96895
1655.81109	0.96921
1653.75418	0.96894
1651.69727	0.96823
1649.64036	0.96860
1647.58345	0.96929
1645.52655	0.96946
1643.46964	0.96949
1641.41273	0.96964
1639.35582	0.96974
1637.29891	0.96984
1635.24201	0.96983
1633.18510	0.96982
1631.12819	0.97001
1629.07128	0.97027
1627.01437	0.97060
1624.95746	0.97104
1622.90056	0.97156
1620.84365	0.97197
1618.78674	0.97226
1616.72983	0.97274
1614.67292	0.97348
1612.61602	0.97419
1610.55911	0.97475
1608.50220	0.97511
1606.44529	0.97526
1604.38838	0.97545
1602.33147	0.97587
1600.27457	0.97622
1598.21766	0.97632
1596.16075	0.97647
1594.10384	0.97675
1592.04693	0.97691
1589.99003	0.97694
1587.93312	0.97714
1585.87621	0.97755
1583.81930	0.97799
1581.76239	0.97838
1579.70548	0.97862
1577.64858	0.97856
1575.59167	0.97828
1573.53476	0.97837
1571.47785	0.97868
1569.42094	0.97886
1567.36404	0.97904
1565.30713	0.97928
1563.25022	0.97924
1561.19331	0.97867
1559.13640	0.97801
1557.07949	0.97859
1555.02259	0.97948
1552.96568	0.97988
1550.90877	0.97992
1548.85186	0.97986
1546.79495	0.97976
1544.73805	0.97973
1542.68114	0.97988
1540.62423	0.97977
1538.56732	0.97925
1536.51041	0.97945
1534.45350	0.98014
1532.39660	0.98026
1530.33969	0.97986
1528.28278	0.97988
1526.22587	0.98024
1524.16896	0.98015
1522.11206	0.97953
1520.05515	0.97924
1517.99824	0.97950
1515.94133	0.97993
1513.88442	0.98031
1511.82751	0.98060
1509.77061	0.98107
1507.71370	0.98140
1505.65679	0.98088
1503.59988	0.98070
1501.54297	0.98098
1499.48607	0.98116
1497.42916	0.98106
1495.37225	0.98094
1493.31534	0.98107
1491.25843	0.98104
1489.20152	0.98037
1487.14462	0.97988
1485.08771	0.97996
1483.03080	0.97982
1480.97389	0.97937
1478.91698	0.97907
1476.86008	0.97894
1474.80317	0.97881
1472.74626	0.97812
1470.68935	0.97697
1468.63244	0.97616
1466.57553	0.97525
1464.51863	0.97375
1462.46172	0.97249
1460.40481	0.97182
1458.34790	0.97062
1456.29099	0.96862
1454.23409	0.96772
1452.17718	0.96739
1450.12027	0.96675
1448.06336	0.96565
1446.00645	0.96441
1443.94954	0.96346
1441.89264	0.96262
1439.83573	0.96166
1437.77882	0.96020
1435.72191	0.95842
1433.66500	0.95754
1431.60810	0.95731
1429.55119	0.95733
1427.49428	0.95780
1425.43737	0.95853
1423.38046	0.95917
1421.32355	0.95973
1419.26665	0.96024
1417.20974	0.96051
1415.15283	0.96075
1413.09592	0.96118
1411.03901	0.96187
1408.98211	0.96266
1406.92520	0.96305
1404.86829	0.96286
1402.81138	0.96266
1400.75447	0.96268
1398.69756	0.96249
1396.64066	0.96185
1394.58375	0.96054
1392.52684	0.95853
1390.46993	0.95608
1388.41302	0.95267
1386.35612	0.94804
1384.29921	0.94302
1382.24230	0.93768
1380.18539	0.93214
1378.12848	0.92712
1376.07157	0.92260
1374.01467	0.91811
1371.95776	0.91467
1369.90085	0.91339
1367.84394	0.91421
1365.78703	0.91682
1363.73013	0.92132
1361.67322	0.92764
1359.61631	0.93438
1357.55940	0.94077
1355.50249	0.94663
1353.44558	0.95150
1351.38868	0.95497
1349.33177	0.95707
1347.27486	0.95844
1345.21795	0.95954
1343.16104	0.96052
1341.10414	0.96149
1339.04723	0.96215
1336.99032	0.96219
1334.93341	0.96210
1332.87650	0.96211
1330.81959	0.96218
1328.76269	0.96238
1326.70578	0.96240
1324.64887	0.96215
1322.59196	0.96197
1320.53505	0.96193
1318.47815	0.96178
1316.42124	0.96160
1314.36433	0.96171
1312.30742	0.96191
1310.25051	0.96215
1308.19360	0.96259
1306.13670	0.96287
1304.07979	0.96282
1302.02288	0.96257
1299.96597	0.96234
1297.90906	0.96213
1295.85216	0.96152
1293.79525	0.96046
1291.73834	0.95910
1289.68143	0.95755
1287.62452	0.95601
1285.56761	0.95444
1283.51071	0.95264
1281.45380	0.95047
1279.39689	0.94779
1277.33998	0.94473
1275.28307	0.94138
1273.22617	0.93773
1271.16926	0.93383
1269.11235	0.92959
1267.05544	0.92511
1264.99853	0.92042
1262.94162	0.91530
1260.88472	0.90971
1258.82781	0.90365
1256.77090	0.89732
1254.71399	0.89104
1252.65708	0.88481
1250.60018	0.87848
1248.54327	0.87205
1246.48636	0.86573
1244.42945	0.85966
1242.37254	0.85347
1240.31563	0.84702
1238.25873	0.84092
1236.20182	0.83519
1234.14491	0.82951
1232.08800	0.82425
1230.03109	0.81985
1227.97419	0.81650
1225.91728	0.81433
1223.86037	0.81366
1221.80346	0.81484
1219.74655	0.81816
1217.68964	0.82378
1215.63274	0.83120
1213.57583	0.83982
1211.51892	0.84959
1209.46201	0.86005
1207.40510	0.87040
1205.34820	0.88051
1203.29129	0.89042
1201.23438	0.89977
1199.17747	0.90824
1197.12056	0.91592
1195.06365	0.92288
1193.00675	0.92874
1190.94984	0.93315
1188.89293	0.93619
1186.83602	0.93817
1184.77911	0.93922
1182.72221	0.93936
1180.66530	0.93885
1178.60839	0.93770
1176.55148	0.93589
1174.49457	0.93374
1172.43766	0.93136
1170.38076	0.92877
1168.32385	0.92633
1166.26694	0.92429
1164.21003	0.92252
1162.15312	0.92117
1160.09622	0.92074
1158.03931	0.92112
1155.98240	0.92227
1153.92549	0.92431
1151.86858	0.92639
1149.81167	0.92788
1147.75477	0.92918
1145.69786	0.93033
1143.64095	0.93095
1141.58404	0.93092
1139.52713	0.93016
1137.47023	0.92881
1135.41332	0.92691
1133.35641	0.92457
1131.29950	0.92222
1129.24259	0.91992
1127.18568	0.91770
1125.12878	0.91590
1123.07187	0.91430
1121.01496	0.91247
1118.95805	0.91075
1116.90114	0.90964
1114.84424	0.90879
1112.78733	0.90789
1110.73042	0.90715
1108.67351	0.90665
1106.61660	0.90590
1104.55969	0.90447
1102.50279	0.90265
1100.44588	0.90105
1098.38897	0.89945
1096.33206	0.89704
1094.27515	0.89402
1092.21825	0.89094
1090.16134	0.88720
1088.10443	0.88267
1086.04752	0.87792
1083.99061	0.87285
1081.93370	0.86759
1079.87680	0.86241
1077.81989	0.85728
1075.76298	0.85259
1073.70607	0.84841
1071.64916	0.84417
1069.59226	0.83985
1067.53535	0.83610
1065.47844	0.83264
1063.42153	0.82884
1061.36462	0.82511
1059.30771	0.82164
1057.25081	0.81777
1055.19390	0.81334
1053.13699	0.80924
1051.08008	0.80568
1049.02317	0.80175
1046.96627	0.79764
1044.90936	0.79408
1042.85245	0.79069
1040.79554	0.78697
1038.73863	0.78307
1036.68172	0.77929
1034.62482	0.77595
1032.56791	0.77341
1030.51100	0.77197
1028.45409	0.77199
1026.39718	0.77347
1024.34028	0.77592
1022.28337	0.77898
1020.22646	0.78255
1018.16955	0.78676
1016.11264	0.79138
1014.05573	0.79636
1011.99883	0.80202
1009.94192	0.80798
1007.88501	0.81357
1005.82810	0.81876
1003.77119	0.82390
1001.71429	0.82897
999.65738	0.83378
997.60047	0.83855
995.54356	0.84321
993.48665	0.84760
991.42974	0.85171
989.37284	0.85570
987.31593	0.85945
985.25902	0.86248
983.20211	0.86502
981.14520	0.86774
979.08830	0.87104
977.03139	0.87468
974.97448	0.87837
972.91757	0.88213
970.86066	0.88584
968.80375	0.88942
966.74685	0.89301
964.68994	0.89661
962.63303	0.89989
960.57612	0.90273
958.51921	0.90532
956.46231	0.90780
954.40540	0.91017
952.34849	0.91218
950.29158	0.91364
948.23467	0.91498
946.17776	0.91654
944.12086	0.91796
942.06395	0.91903
940.00704	0.92003
937.95013	0.92109
935.89322	0.92203
933.83632	0.92246
931.77941	0.92223
929.72250	0.92201
927.66559	0.92201
925.60868	0.92192
923.55177	0.92167
921.49487	0.92091
919.43796	0.91974
917.38105	0.91889
915.32414	0.91845
913.26723	0.91777
911.21033	0.91664
909.15342	0.91548
907.09651	0.91444
905.03960	0.91341
902.98269	0.91272
900.92578	0.91281
898.86888	0.91343
896.81197	0.91399
894.75506	0.91449
892.69815	0.91530
890.64124	0.91635
888.58434	0.91741
886.52743	0.91854
884.47052	0.92006
882.41361	0.92208
880.35670	0.92407
878.29979	0.92577
876.24289	0.92770
874.18598	0.93055
872.12907	0.93381
870.07216	0.93597
868.01525	0.93709
865.95835	0.93835
863.90144	0.93982
861.84453	0.94089
859.78762	0.94137
857.73071	0.94198
855.67380	0.94278
853.61690	0.94326
851.55999	0.94387
849.50308	0.94466
847.44617	0.94494
845.38926	0.94476
843.33236	0.94459
841.27545	0.94404
839.21854	0.94299
837.16163	0.94230
835.10472	0.94256
833.04781	0.94380
830.99091	0.94534
828.93400	0.94649
826.87709	0.94761
824.82018	0.94883
822.76327	0.94953
820.70637	0.94977
818.64946	0.95005
816.59255	0.95040
814.53564	0.95055
812.47873	0.95038
810.42182	0.95044
808.36492	0.95118
806.30801	0.95218
804.25110	0.95256
802.19419	0.95268
800.13728	0.95294
798.08038	0.95309
796.02347	0.95341
793.96656	0.95373
791.90965	0.95396
789.85274	0.95467
787.79583	0.95526
785.73893	0.95507
783.68202	0.95500
781.62511	0.95540
779.56820	0.95574
777.51129	0.95573
775.45439	0.95554
773.39748	0.95532
771.34057	0.95527
769.28366	0.95560
767.22675	0.95571
765.16984	0.95536
763.11294	0.95528
761.05603	0.95566
758.99912	0.95602
756.94221	0.95632
754.88530	0.95670
752.82839	0.95688
750.77149	0.95665
748.71458	0.95605
746.65767	0.95553
744.60076	0.95575
742.54385	0.95611
740.48695	0.95585
738.43004	0.95574
736.37313	0.95612
734.31622	0.95609
732.25931	0.95515
730.20240	0.95395
728.14550	0.95309
726.08859	0.95284
724.03168	0.95324
721.97477	0.95336
719.91786	0.95263
717.86096	0.95171
715.80405	0.95134
713.74714	0.95147
711.69023	0.95139
709.63332	0.95077
707.57641	0.95019
705.51951	0.94976
703.46260	0.94933
701.40569	0.94898
699.34878	0.94843
697.29187	0.94729
695.23497	0.94552
693.17806	0.94392
691.12115	0.94324
689.06424	0.94268
687.00733	0.94133
684.95042	0.94004
682.89352	0.93943
680.83661	0.93946
678.77970	0.94011
676.72279	0.94051
674.66588	0.94011
672.60898	0.94000
670.55207	0.94045
668.49516	0.94004
666.43825	0.93938
664.38134	0.93955
662.32443	0.93924
660.26753	0.93833
658.21062	0.93820
656.15371	0.93835
654.09680	0.93749
652.03989	0.93622
649.98299	0.93511
647.92608	0.93391
645.86917	0.93237
643.81226	0.93097
641.75535	0.92959
639.69844	0.92768
637.64154	0.92567
635.58463	0.92409
633.52772	0.92312
631.47081	0.92261
629.41390	0.92237
627.35700	0.92154
625.30009	0.91977
623.24318	0.91849
621.18627	0.91799
619.12936	0.91693
617.07245	0.91510
615.01555	0.91313
612.95864	0.91052
610.90173	0.90660
608.84482	0.90210
606.78791	0.89868
604.73101	0.89694
602.67410	0.89617
600.61719	0.89600
598.56028	0.89740
596.50337	0.90029
594.44646	0.90330
592.38956	0.90606
590.33265	0.90771
588.27574	0.90842
586.21883	0.91018
584.16192	0.91237
582.10502	0.91321
580.04811	0.91349
577.99120	0.91408
575.93429	0.91355
573.87738	0.91150
571.82047	0.91027
569.76357	0.91062
567.70666	0.91079
565.64975	0.91051
563.59284	0.91010
561.53593	0.90844
559.47903	0.90638
557.42212	0.90607
555.36521	0.90714
553.30830	0.90820
551.25139	0.90967
549.19448	0.91143
547.13758	0.91254
545.08067	0.91280
543.02376	0.91169
540.96685	0.91031
538.90994	0.91025
536.85304	0.91065
534.79613	0.90983
532.73922	0.90855
530.68231	0.90806
528.62540	0.90732
526.56849	0.90662
524.51159	0.90634
522.45468	0.90551
520.39777	0.90480
518.34086	0.90436
516.28395	0.90463
514.22705	0.90624
512.17014	0.90698
510.11323	0.90612
508.05632	0.90520
505.99941	0.90395
503.94250	0.90145
501.88560	0.89927
499.82869	0.89988
497.77178	0.90173
495.71487	0.90212
493.65796	0.90208
491.60106	0.90314
489.54415	0.90438
487.48724	0.90445
485.43033	0.90284
483.37342	0.90070
481.31651	0.89906
479.25961	0.89789
477.20270	0.89766
475.14579	0.89736
473.08888	0.89692
471.03197	0.89738
468.97507	0.89749
466.91816	0.89688
464.86125	0.89549
462.80434	0.89320
460.74743	0.89258
458.69052	0.89511
456.63362	0.89691
454.57671	0.89593
452.51980	0.89471
450.46289	0.89256
448.40598	0.88952
446.34908	0.88874
444.29217	0.88940
442.23526	0.88881
440.17835	0.88880
438.12144	0.89026
436.06453	0.89149
434.00763	0.89106
431.95072	0.88913
429.89381	0.88898
427.83690	0.89178
425.77999	0.89435
423.72309	0.89474
421.66618	0.89457
419.60927	0.89541
417.55236	0.89584
415.49545	0.89634
413.43854	0.89653
411.38164	0.89493
409.32473	0.89497
407.26782	0.89799
405.21091	0.90054
403.15400	0.90070
401.09710	0.89782
399.04019	0.89351
