3996.57260	0.99065
3994.51569	0.99122
3992.45878	0.99189
3990.40188	0.99163
3988.34497	0.99074
3986.28806	0.99036
3984.23115	0.99072
3982.17424	0.99106
3980.11733	0.99107
3978.06043	0.99117
3976.00352	0.99137
3973.94661	0.99143
3971.88970	0.99160
3969.83279	0.99190
3967.77589	0.99216
3965.71898	0.99231
3963.66207	0.99222
3961.60516	0.99189
3959.54825	0.99153
3957.49134	0.99156
3955.43444	0.99159
3953.37753	0.99119
3951.32062	0.99120
3949.26371	0.99172
3947.20680	0.99176
3945.14990	0.99133
3943.09299	0.99120
3941.03608	0.99141
3938.97917	0.99128
3936.92226	0.99106
3934.86535	0.99140
3932.80845	0.99144
3930.75154	0.99070
3928.69463	0.99031
3926.63772	0.99040
3924.58081	0.99073
3922.52391	0.99091
3920.46700	0.99062
3918.41009	0.99056
3916.35318	0.99074
3914.29627	0.99088
3912.23936	0.99133
3910.18246	0.99197
3908.12555	0.99250
3906.06864	0.99234
3904.01173	0.99083
3901.95482	0.98969
3899.89792	0.99082
3897.84101	0.99222
3895.78410	0.99230
3893.72719	0.99181
3891.67028	0.99142
3889.61337	0.99121
3887.55647	0.99098
3885.49956	0.99056
3883.44265	0.99062
3881.38574	0.99138
3879.32883	0.99190
3877.27193	0.99224
3875.21502	0.99262
3873.15811	0.99236
3871.10120	0.99157
3869.04429	0.99073
3866.98738	0.99011
3864.93048	0.99002
3862.87357	0.99069
3860.81666	0.99145
3858.75975	0.99180
3856.70284	0.99165
3854.64594	0.99069
3852.58903	0.99013
3850.53212	0.99052
3848.47521	0.99074
3846.41830	0.99137
3844.36139	0.99245
3842.30449	0.99289
3840.24758	0.99233
3838.19067	0.99149
3836.13376	0.99095
3834.07685	0.99089
3832.01995	0.99133
3829.96304	0.99185
3827.90613	0.99213
3825.84922	0.99204
3823.79231	0.99155
3821.73540	0.99142
3819.67850	0.99191
3817.62159	0.99212
3815.56468	0.99191
3813.50777	0.99171
3811.45086	0.99179
3809.39396	0.99185
3807.33705	0.99178
3805.28014	0.99201
3803.22323	0.99222
3801.16632	0.99218
3799.10941	0.99239
3797.05251	0.99281
3794.99560	0.99258
3792.93869	0.99145
3790.88178	0.99096
3788.82487	0.99173
3786.76796	0.99234
3784.71106	0.99214
3782.65415	0.99204
3780.59724	0.99230
3778.54033	0.99230
3776.48342	0.99199
3774.42652	0.99164
3772.36961	0.99138
3770.31270	0.99140
3768.25579	0.99147
3766.19888	0.99127
3764.14197	0.99113
3762.08507	0.99131
3760.02816	0.99160
3757.97125	0.99183
3755.91434	0.99205
3753.85743	0.99217
3751.80053	0.99190
3749.74362	0.99167
3747.68671	0.99169
3745.62980	0.99146
3743.57289	0.99140
3741.51598	0.99150
3739.45908	0.99110
3737.40217	0.99052
3735.34526	0.99054
3733.28835	0.99074
3731.23144	0.99047
3729.17454	0.99045
3727.11763	0.99069
3725.06072	0.99048
3723.00381	0.99038
3720.94690	0.99075
3718.88999	0.99122
3716.83309	0.99223
3714.77618	0.99315
3712.71927	0.99290
3710.66236	0.99261
3708.60545	0.99310
3706.54855	0.99310
3704.49164	0.99235
3702.43473	0.99124
3700.37782	0.99039
3698.32091	0.99020
3696.26400	0.99082
3694.20710	0.99176
3692.15019	0.99196
3690.09328	0.99121
3688.03637	0.99078
3685.97946	0.99148
3683.92256	0.99212
3681.86565	0.99198
3679.80874	0.99134
3677.75183	0.99033
3675.69492	0.98920
3673.63801	0.98902
3671.58111	0.98935
3669.52420	0.99009
3667.46729	0.99109
3665.41038	0.99135
3663.35347	0.99107
3661.29657	0.99088
3659.23966	0.99098
3657.18275	0.99138
3655.12584	0.99162
3653.06893	0.99108
3651.01202	0.99062
3648.95512	0.99132
3646.89821	0.99159
3644.84130	0.99110
3642.78439	0.99105
3640.72748	0.99118
3638.67058	0.99099
3636.61367	0.99071
3634.55676	0.99058
3632.49985	0.99078
3630.44294	0.99067
3628.38603	0.98963
3626.32913	0.98940
3624.27222	0.99010
3622.21531	0.99062
3620.15840	0.99076
3618.10149	0.99013
3616.04459	0.98898
3613.98768	0.98810
3611.93077	0.98746
3609.87386	0.98743
3607.81695	0.98809
3605.76004	0.98886
3603.70314	0.98927
3601.64623	0.98916
3599.58932	0.98899
3597.53241	0.98898
3595.47550	0.98890
3593.41860	0.98865
3591.36169	0.98826
3589.30478	0.98768
3587.24787	0.98741
3585.19096	0.98787
3583.13405	0.98810
3581.07715	0.98743
3579.02024	0.98644
3576.96333	0.98593
3574.90642	0.98573
3572.84951	0.98598
3570.79261	0.98634
3568.73570	0.98584
3566.67879	0.98450
3564.62188	0.98334
3562.56497	0.98313
3560.50806	0.98346
3558.45116	0.98332
3556.39425	0.98278
3554.33734	0.98226
3552.28043	0.98213
3550.22352	0.98272
3548.16662	0.98273
3546.10971	0.98153
3544.05280	0.98099
3541.99589	0.98137
3539.93898	0.98118
3537.88207	0.98032
3535.82517	0.97943
3533.76826	0.97889
3531.71135	0.97902
3529.65444	0.97922
3527.59753	0.97892
3525.54063	0.97878
3523.48372	0.97850
3521.42681	0.97747
3519.36990	0.97670
3517.31299	0.97681
3515.25608	0.97684
3513.19918	0.97624
3511.14227	0.97580
3509.08536	0.97585
3507.02845	0.97598
3504.97154	0.97604
3502.91464	0.97574
3500.85773	0.97500
3498.80082	0.97430
3496.74391	0.97378
3494.68700	0.97349
3492.63009	0.97320
3490.57319	0.97269
3488.51628	0.97241
3486.45937	0.97247
3484.40246	0.97234
3482.34555	0.97225
3480.28865	0.97293
3478.23174	0.97377
3476.17483	0.97374
3474.11792	0.97307
3472.06101	0.97280
3470.00410	0.97282
3467.94720	0.97253
3465.89029	0.97243
3463.83338	0.97251
3461.77647	0.97198
3459.71956	0.97126
3457.66266	0.97123
3455.60575	0.97177
3453.54884	0.97209
3451.49193	0.97182
3449.43502	0.97174
3447.37811	0.97223
3445.32121	0.97197
3443.26430	0.97104
3441.20739	0.97059
3439.15048	0.97057
3437.09357	0.97068
3435.03667	0.97054
3432.97976	0.97023
3430.92285	0.97059
3428.86594	0.97133
3426.80903	0.97165
3424.75212	0.97161
3422.69522	0.97155
3420.63831	0.97170
3418.58140	0.97195
3416.52449	0.97216
3414.46758	0.97250
3412.41068	0.97245
3410.35377	0.97159
3408.29686	0.97094
3406.23995	0.97125
3404.18304	0.97168
3402.12613	0.97161
3400.06923	0.97147
3398.01232	0.97165
3395.95541	0.97244
3393.89850	0.97321
3391.84159	0.97282
3389.78469	0.97189
3387.72778	0.97133
3385.67087	0.97147
3383.61396	0.97208
3381.55705	0.97223
3379.50014	0.97193
3377.44324	0.97181
3375.38633	0.97219
3373.32942	0.97292
3371.27251	0.97343
3369.21560	0.97370
3367.15870	0.97413
3365.10179	0.97436
3363.04488	0.97410
3360.98797	0.97360
3358.93106	0.97317
3356.87415	0.97323
3354.81725	0.97380
3352.76034	0.97449
3350.70343	0.97479
3348.64652	0.97447
3346.58961	0.97401
3344.53271	0.97414
3342.47580	0.97478
3340.41889	0.97518
3338.36198	0.97520
3336.30507	0.97519
3334.24816	0.97530
3332.19126	0.97536
3330.13435	0.97531
3328.07744	0.97517
3326.02053	0.97493
3323.96362	0.97489
3321.90672	0.97526
3319.84981	0.97565
3317.79290	0.97579
3315.73599	0.97576
3313.67908	0.97567
3311.62217	0.97542
3309.56527	0.97539
3307.50836	0.97609
3305.45145	0.97717
3303.39454	0.97790
3301.33763	0.97802
3299.28073	0.97792
3297.22382	0.97792
3295.16691	0.97761
3293.11000	0.97706
3291.05309	0.97709
3288.99618	0.97756
3286.93928	0.97812
3284.88237	0.97871
3282.82546	0.97887
3280.76855	0.97842
3278.71164	0.97783
3276.65474	0.97770
3274.59783	0.97832
3272.54092	0.97885
3270.48401	0.97870
3268.42710	0.97847
3266.37019	0.97826
3264.31329	0.97805
3262.25638	0.97833
3260.19947	0.97903
3258.14256	0.97974
3256.08565	0.98017
3254.02875	0.98046
3251.97184	0.98093
3249.91493	0.98091
3247.85802	0.98015
3245.80111	0.97975
3243.74420	0.98010
3241.68730	0.98062
3239.63039	0.98113
3237.57348	0.98142
3235.51657	0.98130
3233.45966	0.98094
3231.40276	0.98044
3229.34585	0.98013
3227.28894	0.98069
3225.23203	0.98160
3223.17512	0.98192
3221.11821	0.98207
3219.06131	0.98236
3217.00440	0.98229
3214.94749	0.98180
3212.89058	0.98176
3210.83367	0.98236
3208.77677	0.98272
3206.71986	0.98247
3204.66295	0.98207
3202.60604	0.98191
3200.54913	0.98220
3198.49222	0.98278
3196.43532	0.98310
3194.37841	0.98317
3192.32150	0.98339
3190.26459	0.98354
3188.20768	0.98354
3186.15078	0.98355
3184.09387	0.98351
3182.03696	0.98364
3179.98005	0.98380
3177.92314	0.98349
3175.86623	0.98329
3173.80933	0.98363
3171.75242	0.98400
3169.69551	0.98411
3167.63860	0.98418
3165.58169	0.98450
3163.52479	0.98503
3161.46788	0.98560
3159.41097	0.98588
3157.35406	0.98578
3155.29715	0.98553
3153.24024	0.98534
3151.18334	0.98551
3149.12643	0.98556
3147.06952	0.98509
3145.01261	0.98485
3142.95570	0.98495
3140.89880	0.98498
3138.84189	0.98516
3136.78498	0.98561
3134.72807	0.98626
3132.67116	0.98673
3130.61425	0.98684
3128.55735	0.98670
3126.50044	0.98628
3124.44353	0.98616
3122.38662	0.98642
3120.32971	0.98647
3118.27281	0.98635
3116.21590	0.98621
3114.15899	0.98624
3112.10208	0.98656
3110.04517	0.98676
3107.98826	0.98665
3105.93136	0.98647
3103.87445	0.98658
3101.81754	0.98698
3099.76063	0.98716
3097.70372	0.98713
3095.64682	0.98725
3093.58991	0.98744
3091.53300	0.98732
3089.47609	0.98677
3087.41918	0.98637
3085.36227	0.98647
3083.30537	0.98696
3081.24846	0.98734
3079.19155	0.98728
3077.13464	0.98743
3075.07773	0.98752
3073.02083	0.98698
3070.96392	0.98663
3068.90701	0.98691
3066.85010	0.98715
3064.79319	0.98709
3062.73628	0.98701
3060.67938	0.98703
3058.62247	0.98706
3056.56556	0.98722
3054.50865	0.98769
3052.45174	0.98788
3050.39484	0.98750
3048.33793	0.98736
3046.28102	0.98774
3044.22411	0.98810
3042.16720	0.98813
3040.11029	0.98790
3038.05339	0.98771
3035.99648	0.98771
3033.93957	0.98773
3031.88266	0.98808
3029.82575	0.98878
3027.76885	0.98896
3025.71194	0.98833
3023.65503	0.98781
3021.59812	0.98747
3019.54121	0.98709
3017.48430	0.98739
3015.42740	0.98796
3013.37049	0.98784
3011.31358	0.98760
3009.25667	0.98774
3007.19976	0.98754
3005.14286	0.98691
3003.08595	0.98669
3001.02904	0.98680
2998.97213	0.98647
2996.91522	0.98607
2994.85831	0.98619
2992.80141	0.98661
2990.74450	0.98709
2988.68759	0.98714
2986.63068	0.98671
2984.57377	0.98632
2982.51687	0.98598
2980.45996	0.98550
2978.40305	0.98518
2976.34614	0.98544
2974.28923	0.98582
2972.23232	0.98573
2970.17542	0.98545
2968.11851	0.98524
2966.06160	0.98495
2964.00469	0.98451
2961.94778	0.98419
2959.89088	0.98415
2957.83397	0.98419
2955.77706	0.98388
2953.72015	0.98334
2951.66324	0.98317
2949.60633	0.98334
2947.54943	0.98337
2945.49252	0.98288
2943.43561	0.98225
2941.37870	0.98203
2939.32179	0.98201
2937.26489	0.98184
2935.20798	0.98149
2933.15107	0.98115
2931.09416	0.98124
2929.03725	0.98179
2926.98034	0.98206
2924.92344	0.98175
2922.86653	0.98170
2920.80962	0.98206
2918.75271	0.98202
2916.69580	0.98182
2914.63890	0.98206
2912.58199	0.98225
2910.52508	0.98161
2908.46817	0.98057
2906.41126	0.98024
2904.35435	0.98050
2902.29745	0.98060
2900.24054	0.98063
2898.18363	0.98086
2896.12672	0.98088
2894.06981	0.98056
2892.01291	0.98034
2889.95600	0.98035
2887.89909	0.98045
2885.84218	0.98049
2883.78527	0.98045
2881.72836	0.98054
2879.67146	0.98085
2877.61455	0.98097
2875.55764	0.98070
2873.50073	0.98052
2871.44382	0.98072
2869.38692	0.98114
2867.33001	0.98156
2865.27310	0.98186
2863.21619	0.98223
2861.15928	0.98293
2859.10237	0.98345
2857.04547	0.98345
2854.98856	0.98353
2852.93165	0.98376
2850.87474	0.98372
2848.81783	0.98382
2846.76093	0.98430
2844.70402	0.98463
2842.64711	0.98475
2840.59020	0.98496
2838.53329	0.98541
2836.47638	0.98595
2834.41948	0.98625
2832.36257	0.98630
2830.30566	0.98623
2828.24875	0.98619
2826.19184	0.98623
2824.13494	0.98643
2822.07803	0.98670
2820.02112	0.98669
2817.96421	0.98647
2815.90730	0.98653
2813.85039	0.98690
2811.79349	0.98689
2809.73658	0.98649
2807.67967	0.98645
2805.62276	0.98687
2803.56585	0.98722
2801.50895	0.98726
2799.45204	0.98716
2797.39513	0.98710
2795.33822	0.98724
2793.28131	0.98754
2791.22440	0.98770
2789.16750	0.98776
2787.11059	0.98789
2785.05368	0.98790
2782.99677	0.98764
2780.93986	0.98741
2778.88296	0.98747
2776.82605	0.98767
2774.76914	0.98787
2772.71223	0.98806
2770.65532	0.98815
2768.59841	0.98792
2766.54151	0.98763
2764.48460	0.98780
2762.42769	0.98798
2760.37078	0.98774
2758.31387	0.98748
2756.25697	0.98758
2754.20006	0.98786
2752.14315	0.98794
2750.08624	0.98791
2748.02933	0.98775
2745.97242	0.98734
2743.91552	0.98728
2741.85861	0.98767
2739.80170	0.98772
2737.74479	0.98769
2735.68788	0.98808
2733.63098	0.98819
2731.57407	0.98796
2729.51716	0.98792
2727.46025	0.98786
2725.40334	0.98775
2723.34643	0.98786
2721.28953	0.98806
2719.23262	0.98800
2717.17571	0.98783
2715.11880	0.98776
2713.06189	0.98783
2711.00499	0.98792
2708.94808	0.98775
2706.89117	0.98760
2704.83426	0.98782
2702.77735	0.98793
2700.72044	0.98800
2698.66354	0.98841
2696.60663	0.98862
2694.54972	0.98851
2692.49281	0.98831
2690.43590	0.98804
2688.37900	0.98809
2686.32209	0.98843
2684.26518	0.98861
2682.20827	0.98842
2680.15136	0.98816
2678.09445	0.98825
2676.03755	0.98843
2673.98064	0.98816
2671.92373	0.98770
2669.86682	0.98772
2667.80991	0.98805
2665.75301	0.98808
2663.69610	0.98781
2661.63919	0.98765
2659.58228	0.98773
2657.52537	0.98785
2655.46846	0.98784
2653.41156	0.98767
2651.35465	0.98729
2649.29774	0.98700
2647.24083	0.98720
2645.18392	0.98758
2643.12702	0.98769
2641.07011	0.98754
2639.01320	0.98744
2636.95629	0.98764
2634.89938	0.98801
2632.84247	0.98814
2630.78557	0.98800
2628.72866	0.98794
2626.67175	0.98806
2624.61484	0.98804
2622.55793	0.98798
2620.50103	0.98822
2618.44412	0.98840
2616.38721	0.98814
2614.33030	0.98796
2612.27339	0.98799
2610.21648	0.98807
2608.15958	0.98828
2606.10267	0.98839
2604.04576	0.98815
2601.98885	0.98790
2599.93194	0.98782
2597.87504	0.98790
2595.81813	0.98823
2593.76122	0.98871
2591.70431	0.98915
2589.64740	0.98922
2587.59049	0.98884
2585.53359	0.98851
2583.47668	0.98894
2581.41977	0.98980
2579.36286	0.98988
2577.30595	0.98953
2575.24905	0.98955
2573.19214	0.98955
2571.13523	0.98955
2569.07832	0.98952
2567.02141	0.98909
2564.96450	0.98895
2562.90760	0.98955
2560.85069	0.99005
2558.79378	0.99022
2556.73687	0.99017
2554.67996	0.98954
2552.62306	0.98885
2550.56615	0.98886
2548.50924	0.98931
2546.45233	0.98943
2544.39542	0.98897
2542.33851	0.98869
2540.28161	0.98917
2538.22470	0.98972
2536.16779	0.98976
2534.11088	0.98964
2532.05397	0.98963
2529.99707	0.98981
2527.94016	0.99006
2525.88325	0.99004
2523.82634	0.98984
2521.76943	0.98986
2519.71252	0.98982
2517.65562	0.98948
2515.59871	0.98925
2513.54180	0.98937
2511.48489	0.98947
2509.42798	0.98930
2507.37108	0.98958
2505.31417	0.99041
2503.25726	0.99079
2501.20035	0.99033
2499.14344	0.98956
2497.08653	0.98910
2495.02963	0.98903
2492.97272	0.98911
2490.91581	0.98925
2488.85890	0.98933
2486.80199	0.98926
2484.74509	0.98919
2482.68818	0.98934
2480.63127	0.98982
2478.57436	0.99032
2476.51745	0.99026
2474.46054	0.98956
2472.40364	0.98901
2470.34673	0.98909
2468.28982	0.98949
2466.23291	0.98970
2464.17600	0.98950
2462.11910	0.98926
2460.06219	0.98937
2458.00528	0.98942
2455.94837	0.98924
2453.89146	0.98959
2451.83455	0.99026
2449.77765	0.99048
2447.72074	0.99029
2445.66383	0.99013
2443.60692	0.99016
2441.55001	0.99000
2439.49311	0.98964
2437.43620	0.98952
2435.37929	0.98976
2433.32238	0.98993
2431.26547	0.99014
2429.20856	0.99057
2427.15166	0.99053
2425.09475	0.99014
2423.03784	0.99001
2420.98093	0.99020
2418.92402	0.99042
2416.86712	0.99053
2414.81021	0.99050
2412.75330	0.99029
2410.69639	0.99047
2408.63948	0.99109
2406.58257	0.99120
2404.52567	0.99070
2402.46876	0.99012
2400.41185	0.98973
2398.35494	0.98976
2396.29803	0.99009
2394.24113	0.99044
2392.18422	0.99078
2390.12731	0.99088
2388.07040	0.99053
2386.01349	0.99052
2383.95658	0.99101
2381.89968	0.99110
2379.84277	0.99073
2377.78586	0.99010
2375.72895	0.98964
2373.67204	0.99017
2371.61514	0.99103
2369.55823	0.99124
2367.50132	0.99103
2365.44441	0.99035
2363.38750	0.98988
2361.33059	0.99041
2359.27369	0.99063
2357.21678	0.99028
2355.15987	0.99031
2353.10296	0.99076
2351.04605	0.99149
2348.98915	0.99195
2346.93224	0.99165
2344.87533	0.99092
2342.81842	0.99037
2340.76151	0.99019
2338.70460	0.99009
2336.64770	0.98971
2334.59079	0.98935
2332.53388	0.98972
2330.47697	0.99049
2328.42006	0.99039
2326.36316	0.98948
2324.30625	0.98879
2322.24934	0.98862
2320.19243	0.98883
2318.13552	0.98906
2316.07861	0.98863
2314.02171	0.98804
2311.96480	0.98819
2309.90789	0.98864
2307.85098	0.98926
2305.79407	0.99001
2303.73717	0.99026
2301.68026	0.98996
2299.62335	0.98934
2297.56644	0.98843
2295.50953	0.98792
2293.45262	0.98849
2291.39572	0.98936
2289.33881	0.98940
2287.28190	0.98889
2285.22499	0.98867
2283.16808	0.98865
2281.11117	0.98821
2279.05427	0.98797
2276.99736	0.98866
2274.94045	0.98892
2272.88354	0.98820
2270.82663	0.98776
2268.76973	0.98822
2266.71282	0.98946
2264.65591	0.99049
2262.59900	0.99028
2260.54209	0.98932
2258.48518	0.98876
2256.42828	0.98944
2254.37137	0.99086
2252.31446	0.99129
2250.25755	0.99047
2248.20064	0.98901
2246.14374	0.98820
2244.08683	0.98889
2242.02992	0.98927
2239.97301	0.98876
2237.91610	0.98813
2235.85919	0.98782
2233.80229	0.98863
2231.74538	0.98976
2229.68847	0.99004
2227.63156	0.99033
2225.57465	0.99136
2223.51775	0.99128
2221.46084	0.98984
2219.40393	0.98967
2217.34702	0.99017
2215.29011	0.98992
2213.23320	0.98919
2211.17630	0.98819
2209.11939	0.98830
2207.06248	0.98923
2205.00557	0.98974
2202.94866	0.98991
2200.89176	0.98954
2198.83485	0.98924
2196.77794	0.99002
2194.72103	0.99213
2192.66412	0.99439
2190.60721	0.99472
2188.55031	0.99316
2186.49340	0.99180
2184.43649	0.99087
2182.37958	0.98943
2180.32267	0.98889
2178.26577	0.98981
2176.20886	0.99037
2174.15195	0.99040
2172.09504	0.99066
2170.03813	0.99018
2167.98122	0.98906
2165.92432	0.98834
2163.86741	0.98702
2161.81050	0.98623
2159.75359	0.98872
2157.69668	0.99258
2155.63978	0.99474
2153.58287	0.99459
2151.52596	0.99287
2149.46905	0.99209
2147.41214	0.99374
2145.35523	0.99547
2143.29833	0.99506
2141.24142	0.99406
2139.18451	0.99386
2137.12760	0.99384
2135.07069	0.99388
2133.01379	0.99380
2130.95688	0.99349
2128.89997	0.99335
2126.84306	0.99299
2124.78615	0.99203
2122.72924	0.99073
2120.67234	0.99019
2118.61543	0.99114
2116.55852	0.99140
2114.50161	0.99006
2112.44470	0.98894
2110.38780	0.98888
2108.33089	0.98963
2106.27398	0.99049
2104.21707	0.99118
2102.16016	0.99153
2100.10325	0.99133
2098.04635	0.99106
2095.98944	0.99127
2093.93253	0.99177
2091.87562	0.99198
2089.81871	0.99164
2087.76181	0.99106
2085.70490	0.99118
2083.64799	0.99158
2081.59108	0.99057
2079.53417	0.98879
2077.47726	0.98817
2075.42036	0.98886
2073.36345	0.99004
2071.30654	0.99099
2069.24963	0.99147
2067.19272	0.99167
2065.13582	0.99167
2063.07891	0.99163
2061.02200	0.99159
2058.96509	0.99127
2056.90818	0.99015
2054.85127	0.98881
2052.79437	0.98820
2050.73746	0.98826
2048.68055	0.98866
2046.62364	0.98914
2044.56673	0.99105
2042.50983	0.99352
2040.45292	0.99366
2038.39601	0.99301
2036.33910	0.99346
2034.28219	0.99363
2032.22528	0.99280
2030.16838	0.99137
2028.11147	0.99062
2026.05456	0.99128
2023.99765	0.99259
2021.94074	0.99369
2019.88384	0.99319
2017.82693	0.99157
2015.77002	0.99116
2013.71311	0.99208
2011.65620	0.99178
2009.59929	0.99107
2007.54239	0.99276
2005.48548	0.99439
2003.42857	0.99388
2001.37166	0.99260
1999.31475	0.99123
1997.25785	0.99067
1995.20094	0.99188
1993.14403	0.99361
1991.08712	0.99470
1989.03021	0.99486
1986.97330	0.99334
1984.91640	0.99117
1982.85949	0.98983
1980.80258	0.98984
1978.74567	0.99103
1976.68876	0.99117
1974.63186	0.98966
1972.57495	0.98882
1970.51804	0.98949
1968.46113	0.99143
1966.40422	0.99321
1964.34731	0.99303
1962.29041	0.99196
1960.23350	0.99104
1958.17659	0.99023
1956.11968	0.99072
1954.06277	0.99265
1952.00587	0.99340
1949.94896	0.99214
1947.89205	0.99115
1945.83514	0.99176
1943.77823	0.99273
1941.72132	0.99255
1939.66442	0.99261
1937.60751	0.99407
1935.55060	0.99502
1933.49369	0.99412
1931.43678	0.99240
1929.37988	0.99092
1927.32297	0.99023
1925.26606	0.99045
1923.20915	0.99110
1921.15224	0.99150
1919.09533	0.99190
1917.03843	0.99277
1914.98152	0.99338
1912.92461	0.99350
1910.86770	0.99286
1908.81079	0.99184
1906.75389	0.99211
1904.69698	0.99332
1902.64007	0.99379
1900.58316	0.99307
1898.52625	0.99198
1896.46934	0.99171
1894.41244	0.99214
1892.35553	0.99224
1890.29862	0.99205
1888.24171	0.99207
1886.18480	0.99217
1884.12790	0.99233
1882.07099	0.99262
1880.01408	0.99273
1877.95717	0.99232
1875.90026	0.99178
1873.84335	0.99192
1871.78645	0.99242
1869.72954	0.99276
1867.67263	0.99291
1865.61572	0.99258
1863.55881	0.99190
1861.50191	0.99144
1859.44500	0.99158
1857.38809	0.99211
1855.33118	0.99246
1853.27427	0.99228
1851.21736	0.99180
1849.16046	0.99177
1847.10355	0.99210
1845.04664	0.99216
1842.98973	0.99189
1840.93282	0.99188
1838.87592	0.99226
1836.81901	0.99263
1834.76210	0.99283
1832.70519	0.99270
1830.64828	0.99228
1828.59137	0.99204
1826.53447	0.99193
1824.47756	0.99173
1822.42065	0.99195
1820.36374	0.99238
1818.30683	0.99273
1816.24993	0.99313
1814.19302	0.99308
1812.13611	0.99264
1810.07920	0.99257
1808.02229	0.99242
1805.96538	0.99185
1803.90848	0.99168
1801.85157	0.99195
1799.79466	0.99209
1797.73775	0.99191
1795.68084	0.99121
1793.62394	0.99028
1791.56703	0.99000
1789.51012	0.99039
1787.45321	0.99088
1785.39630	0.99118
1783.33939	0.99097
1781.28249	0.99060
1779.22558	0.99026
1777.16867	0.98982
1775.11176	0.98917
1773.05485	0.98817
1770.99795	0.98687
1768.94104	0.98543
1766.88413	0.98344
1764.82722	0.98068
1762.77031	0.97718
1760.71340	0.97300
1758.65650	0.96871
1756.59959	0.96425
1754.54268	0.96023
1752.48577	0.95665
1750.42886	0.95263
1748.37196	0.94857
1746.31505	0.94508
1744.25814	0.94212
1742.20123	0.93966
1740.14432	0.93762
1738.08741	0.93648
1736.03051	0.93597
1733.97360	0.93450
1731.91669	0.93272
1729.85978	0.93219
1727.80287	0.93207
1725.74597	0.93214
1723.68906	0.93288
1721.63215	0.93432
1719.57524	0.93626
1717.51833	0.93874
1715.46142	0.94147
1713.40452	0.94432
1711.34761	0.94751
1709.29070	0.95075
1707.23379	0.95392
1705.17688	0.95723
1703.11998	0.96010
1701.06307	0.96293
1699.00616	0.96617
1696.94925	0.96866
1694.89234	0.97072
1692.83543	0.97260
1690.77853	0.97426
1688.72162	0.97556
1686.66471	0.97649
1684.60780	0.97756
1682.55089	0.97840
1680.49399	0.97889
1678.43708	0.97929
1676.38017	0.97944
1674.32326	0.97974
1672.26635	0.98027
1670.20944	0.98058
1668.15254	0.98067
1666.09563	0.98060
1664.03872	0.98050
1661.98181	0.98054
1659.92490	0.98057
1657.86800	0.98052
1655.81109	0.98061
1653.75418	0.98092
1651.69727	0.98133
1649.64036	0.98175
1647.58345	0.98198
1645.52655	0.98165
1643.46964	0.98134
1641.41273	0.98136
1639.35582	0.98132
1637.29891	0.98113
1635.24201	0.98123
1633.18510	0.98159
1631.12819	0.98187
1629.07128	0.98205
1627.01437	0.98212
1624.95746	0.98216
1622.90056	0.98236
1620.84365	0.98270
1618.78674	0.98302
1616.72983	0.98336
1614.67292	0.98361
1612.61602	0.98374
1610.55911	0.98394
1608.50220	0.98426
1606.44529	0.98457
1604.38838	0.98472
1602.33147	0.98484
1600.27457	0.98517
1598.21766	0.98564
1596.16075	0.98587
1594.10384	0.98592
1592.04693	0.98613
1589.99003	0.98623
1587.93312	0.98604
1585.87621	0.98600
1583.81930	0.98621
1581.76239	0.98645
1579.70548	0.98667
1577.64858	0.98677
1575.59167	0.98676
1573.53476	0.98687
1571.47785	0.98703
1569.42094	0.98693
1567.36404	0.98667
1565.30713	0.98668
1563.25022	0.98679
1561.19331	0.98663
1559.13640	0.98622
1557.07949	0.98616
1555.02259	0.98628
1552.96568	0.98635
1550.90877	0.98661
1548.85186	0.98693
1546.79495	0.98691
1544.73805	0.98663
1542.68114	0.98652
1540.62423	0.98659
1538.56732	0.98656
1536.51041	0.98658
1534.45350	0.98681
1532.39660	0.98697
1530.33969	0.98684
1528.28278	0.98680
1526.22587	0.98696
1524.16896	0.98697
1522.11206	0.98661
1520.05515	0.98635
1517.99824	0.98651
1515.94133	0.98655
1513.88442	0.98624
1511.82751	0.98582
1509.77061	0.98539
1507.71370	0.98526
1505.65679	0.98578
1503.59988	0.98599
1501.54297	0.98590
1499.48607	0.98569
1497.42916	0.98539
1495.37225	0.98516
1493.31534	0.98485
1491.25843	0.98440
1489.20152	0.98406
1487.14462	0.98395
1485.08771	0.98398
1483.03080	0.98395
1480.97389	0.98360
1478.91698	0.98296
1476.86008	0.98212
1474.80317	0.98138
1472.74626	0.98078
1470.68935	0.98012
1468.63244	0.97956
1466.57553	0.97891
1464.51863	0.97803
1462.46172	0.97709
1460.40481	0.97602
1458.34790	0.97486
1456.29099	0.97413
1454.23409	0.97353
1452.17718	0.97276
1450.12027	0.97197
1448.06336	0.97112
1446.00645	0.97013
1443.94954	0.96921
1441.89264	0.96846
1439.83573	0.96772
1437.77882	0.96686
1435.72191	0.96587
1433.66500	0.96502
1431.60810	0.96427
1429.55119	0.96372
1427.49428	0.96371
1425.43737	0.96408
1423.38046	0.96446
1421.32355	0.96464
1419.26665	0.96456
1417.20974	0.96430
1415.15283	0.96424
1413.09592	0.96431
1411.03901	0.96416
1408.98211	0.96398
1406.92520	0.96392
1404.86829	0.96373
1402.81138	0.96360
1400.75447	0.96349
1398.69756	0.96310
1396.64066	0.96256
1394.58375	0.96177
1392.52684	0.96069
1390.46993	0.95960
1388.41302	0.95818
1386.35612	0.95601
1384.29921	0.95367
1382.24230	0.95129
1380.18539	0.94857
1378.12848	0.94588
1376.07157	0.94339
1374.01467	0.94102
1371.95776	0.93945
1369.90085	0.93897
1367.84394	0.93923
1365.78703	0.94035
1363.73013	0.94263
1361.67322	0.94589
1359.61631	0.94923
1357.55940	0.95219
1355.50249	0.95492
1353.44558	0.95729
1351.38868	0.95893
1349.33177	0.96004
1347.27486	0.96105
1345.21795	0.96203
1343.16104	0.96292
1341.10414	0.96358
1339.04723	0.96393
1336.99032	0.96417
1334.93341	0.96437
1332.87650	0.96439
1330.81959	0.96446
1328.76269	0.96473
1326.70578	0.96495
1324.64887	0.96512
1322.59196	0.96529
1320.53505	0.96529
1318.47815	0.96518
1316.42124	0.96501
1314.36433	0.96491
1312.30742	0.96529
1310.25051	0.96600
1308.19360	0.96638
1306.13670	0.96648
1304.07979	0.96671
1302.02288	0.96689
1299.96597	0.96682
1297.90906	0.96661
1295.85216	0.96634
1293.79525	0.96602
1291.73834	0.96558
1289.68143	0.96485
1287.62452	0.96391
1285.56761	0.96295
1283.51071	0.96186
1281.45380	0.96051
1279.39689	0.95902
1277.33998	0.95753
1275.28307	0.95590
1273.22617	0.95381
1271.16926	0.95159
1269.11235	0.94956
1267.05544	0.94738
1264.99853	0.94483
1262.94162	0.94215
1260.88472	0.93951
1258.82781	0.93654
1256.77090	0.93321
1254.71399	0.92995
1252.65708	0.92678
1250.60018	0.92351
1248.54327	0.92010
1246.48636	0.91676
1244.42945	0.91380
1242.37254	0.91113
1240.31563	0.90842
1238.25873	0.90564
1236.20182	0.90302
1234.14491	0.90050
1232.08800	0.89825
1230.03109	0.89661
1227.97419	0.89551
1225.91728	0.89499
1223.86037	0.89524
1221.80346	0.89634
1219.74655	0.89845
1217.68964	0.90143
1215.63274	0.90480
1213.57583	0.90838
1211.51892	0.91221
1209.46201	0.91614
1207.40510	0.91997
1205.34820	0.92346
1203.29129	0.92656
1201.23438	0.92936
1199.17747	0.93188
1197.12056	0.93432
1195.06365	0.93664
1193.00675	0.93853
1190.94984	0.94019
1188.89293	0.94178
1186.83602	0.94269
1184.77911	0.94267
1182.72221	0.94197
1180.66530	0.94070
1178.60839	0.93910
1176.55148	0.93773
1174.49457	0.93661
1172.43766	0.93518
1170.38076	0.93336
1168.32385	0.93140
1166.26694	0.92939
1164.21003	0.92738
1162.15312	0.92555
1160.09622	0.92415
1158.03931	0.92327
1155.98240	0.92295
1153.92549	0.92314
1151.86858	0.92354
1149.81167	0.92397
1147.75477	0.92436
1145.69786	0.92442
1143.64095	0.92396
1141.58404	0.92319
1139.52713	0.92206
1137.47023	0.92069
1135.41332	0.91949
1133.35641	0.91810
1131.29950	0.91620
1129.24259	0.91418
1127.18568	0.91225
1125.12878	0.91027
1123.07187	0.90826
1121.01496	0.90628
1118.95805	0.90457
1116.90114	0.90333
1114.84424	0.90220
1112.78733	0.90087
1110.73042	0.89924
1108.67351	0.89713
1106.61660	0.89522
1104.55969	0.89413
1102.50279	0.89331
1100.44588	0.89217
1098.38897	0.89064
1096.33206	0.88890
1094.27515	0.88718
1092.21825	0.88552
1090.16134	0.88387
1088.10443	0.88209
1086.04752	0.88013
1083.99061	0.87787
1081.93370	0.87510
1079.87680	0.87229
1077.81989	0.86975
1075.76298	0.86728
1073.70607	0.86505
1071.64916	0.86307
1069.59226	0.86120
1067.53535	0.85947
1065.47844	0.85777
1063.42153	0.85599
1061.36462	0.85415
1059.30771	0.85223
1057.25081	0.85037
1055.19390	0.84888
1053.13699	0.84756
1051.08008	0.84592
1049.02317	0.84405
1046.96627	0.84238
1044.90936	0.84102
1042.85245	0.83972
1040.79554	0.83829
1038.73863	0.83668
1036.68172	0.83493
1034.62482	0.83324
1032.56791	0.83198
1030.51100	0.83122
1028.45409	0.83083
1026.39718	0.83071
1024.34028	0.83072
1022.28337	0.83099
1020.22646	0.83170
1018.16955	0.83303
1016.11264	0.83479
1014.05573	0.83655
1011.99883	0.83830
1009.94192	0.83999
1007.88501	0.84152
1005.82810	0.84296
1003.77119	0.84428
1001.71429	0.84572
999.65738	0.84755
997.60047	0.84968
995.54356	0.85184
993.48665	0.85398
991.42974	0.85626
989.37284	0.85853
987.31593	0.86055
985.25902	0.86250
983.20211	0.86457
981.14520	0.86698
979.08830	0.86981
977.03139	0.87248
974.97448	0.87464
972.91757	0.87682
970.86066	0.87961
968.80375	0.88267
966.74685	0.88543
964.68994	0.88816
962.63303	0.89094
960.57612	0.89325
958.51921	0.89521
956.46231	0.89732
954.40540	0.89944
952.34849	0.90140
950.29158	0.90305
948.23467	0.90443
946.17776	0.90586
944.12086	0.90721
942.06395	0.90839
940.00704	0.90966
937.95013	0.91084
935.89322	0.91162
933.83632	0.91187
931.77941	0.91185
929.72250	0.91205
927.66559	0.91249
925.60868	0.91306
923.55177	0.91329
921.49487	0.91286
919.43796	0.91271
917.38105	0.91321
915.32414	0.91343
913.26723	0.91302
911.21033	0.91233
909.15342	0.91184
907.09651	0.91169
905.03960	0.91158
902.98269	0.91129
900.92578	0.91103
898.86888	0.91114
896.81197	0.91158
894.75506	0.91211
892.69815	0.91279
890.64124	0.91365
888.58434	0.91470
886.52743	0.91608
884.47052	0.91791
882.41361	0.92005
880.35670	0.92180
878.29979	0.92313
876.24289	0.92464
874.18598	0.92639
872.12907	0.92831
870.07216	0.93044
868.01525	0.93227
865.95835	0.93323
863.90144	0.93406
861.84453	0.93583
859.78762	0.93807
857.73071	0.93967
855.67380	0.94031
853.61690	0.94036
851.55999	0.94034
849.50308	0.94044
847.44617	0.94065
845.38926	0.94100
843.33236	0.94129
841.27545	0.94103
839.21854	0.94011
837.16163	0.93937
835.10472	0.93910
833.04781	0.93910
830.99091	0.93967
828.93400	0.94066
826.87709	0.94146
824.82018	0.94154
822.76327	0.94076
820.70637	0.94009
818.64946	0.94023
816.59255	0.94066
814.53564	0.94108
812.47873	0.94152
810.42182	0.94148
808.36492	0.94089
806.30801	0.94011
804.25110	0.93938
802.19419	0.93925
800.13728	0.93972
798.08038	0.94000
796.02347	0.94000
793.96656	0.93995
791.90965	0.94017
789.85274	0.94057
787.79583	0.94066
785.73893	0.94140
783.68202	0.94306
781.62511	0.94380
779.56820	0.94346
777.51129	0.94384
775.45439	0.94517
773.39748	0.94663
771.34057	0.94711
769.28366	0.94647
767.22675	0.94619
765.16984	0.94651
763.11294	0.94689
761.05603	0.94772
758.99912	0.94883
756.94221	0.94915
754.88530	0.94877
752.82839	0.94887
750.77149	0.94937
748.71458	0.94964
746.65767	0.94982
744.60076	0.94955
742.54385	0.94881
740.48695	0.94828
738.43004	0.94801
736.37313	0.94806
734.31622	0.94840
732.25931	0.94841
730.20240	0.94770
728.14550	0.94661
726.08859	0.94597
724.03168	0.94633
721.97477	0.94681
719.91786	0.94645
717.86096	0.94585
715.80405	0.94555
713.74714	0.94511
711.69023	0.94448
709.63332	0.94407
707.57641	0.94366
705.51951	0.94315
703.46260	0.94254
701.40569	0.94194
699.34878	0.94174
697.29187	0.94174
695.23497	0.94162
693.17806	0.94081
691.12115	0.93943
689.06424	0.93872
687.00733	0.93863
684.95042	0.93795
682.89352	0.93670
680.83661	0.93588
678.77970	0.93539
676.72279	0.93483
674.66588	0.93487
672.60898	0.93491
670.55207	0.93402
668.49516	0.93353
666.43825	0.93409
664.38134	0.93459
662.32443	0.93517
660.26753	0.93510
658.21062	0.93417
656.15371	0.93340
654.09680	0.93310
652.03989	0.93333
649.98299	0.93363
647.92608	0.93341
645.86917	0.93300
643.81226	0.93228
641.75535	0.93110
639.69844	0.92983
637.64154	0.92817
635.58463	0.92649
633.52772	0.92581
631.47081	0.92616
629.41390	0.92668
627.35700	0.92679
625.30009	0.92619
623.24318	0.92439
621.18627	0.92242
619.12936	0.92157
617.07245	0.92129
615.01555	0.92049
612.95864	0.91908
610.90173	0.91758
608.84482	0.91594
606.78791	0.91411
604.73101	0.91280
602.67410	0.91226
600.61719	0.91183
598.56028	0.91134
596.50337	0.91135
594.44646	0.91254
592.38956	0.91393
590.33265	0.91465
588.27574	0.91557
586.21883	0.91577
584.16192	0.91523
582.10502	0.91518
580.04811	0.91481
577.99120	0.91419
575.93429	0.91361
573.87738	0.91304
571.82047	0.91338
569.76357	0.91383
567.70666	0.91303
565.64975	0.91166
563.59284	0.91100
561.53593	0.91076
559.47903	0.91015
557.42212	0.91010
555.36521	0.91120
553.30830	0.91176
551.25139	0.91070
549.19448	0.90922
547.13758	0.90867
545.08067	0.90897
543.02376	0.90924
540.96685	0.90889
538.90994	0.90866
536.85304	0.90952
534.79613	0.91044
532.73922	0.90991
530.68231	0.90811
528.62540	0.90624
526.56849	0.90564
524.51159	0.90571
522.45468	0.90468
520.39777	0.90253
518.34086	0.90040
516.28395	0.89906
514.22705	0.89799
512.17014	0.89727
510.11323	0.89658
508.05632	0.89469
505.99941	0.89288
503.94250	0.89169
501.88560	0.88926
499.82869	0.88615
497.77178	0.88388
495.71487	0.88127
493.65796	0.87780
491.60106	0.87545
489.54415	0.87350
487.48724	0.87015
485.43033	0.86716
483.37342	0.86642
481.31651	0.86695
479.25961	0.86722
477.20270	0.86683
475.14579	0.86537
473.08888	0.86259
471.03197	0.85912
468.97507	0.85573
466.91816	0.85325
464.86125	0.85226
462.80434	0.85100
460.74743	0.84881
458.69052	0.84845
456.63362	0.84984
454.57671	0.84975
452.51980	0.84852
450.46289	0.84839
448.40598	0.84897
446.34908	0.84910
444.29217	0.84976
442.23526	0.85098
440.17835	0.85115
438.12144	0.84984
436.06453	0.84907
434.00763	0.85101
431.95072	0.85352
429.89381	0.85462
427.83690	0.85581
425.77999	0.85584
423.72309	0.85374
421.66618	0.85208
419.60927	0.85101
417.55236	0.84989
415.49545	0.84968
413.43854	0.84999
411.38164	0.85013
409.32473	0.85163
407.26782	0.85336
405.21091	0.85342
403.15400	0.85265
401.09710	0.85067
399.04019	0.85138
