3996.57260	0.99066
3994.51569	0.99059
3992.45878	0.99031
3990.40188	0.99008
3988.34497	0.99017
3986.28806	0.99025
3984.23115	0.98985
3982.17424	0.98939
3980.11733	0.98918
3978.06043	0.98893
3976.00352	0.98898
3973.94661	0.98937
3971.88970	0.98967
3969.83279	0.98978
3967.77589	0.98989
3965.71898	0.99029
3963.66207	0.99064
3961.60516	0.99031
3959.54825	0.98957
3957.49134	0.98954
3955.43444	0.98998
3953.37753	0.99008
3951.32062	0.98988
3949.26371	0.98947
3947.20680	0.98928
3945.14990	0.98974
3943.09299	0.99029
3941.03608	0.99049
3938.97917	0.99054
3936.92226	0.99043
3934.86535	0.99039
3932.80845	0.99013
3930.75154	0.98964
3928.69463	0.98987
3926.63772	0.99035
3924.58081	0.98982
3922.52391	0.98903
3920.46700	0.98911
3918.41009	0.98933
3916.35318	0.98924
3914.29627	0.98931
3912.23936	0.98936
3910.18246	0.98933
3908.12555	0.98949
3906.06864	0.98965
3904.01173	0.98959
3901.95482	0.98928
3899.89792	0.98891
3897.84101	0.98920
3895.78410	0.98992
3893.72719	0.99033
3891.67028	0.99028
3889.61337	0.98987
3887.55647	0.98914
3885.49956	0.98866
3883.44265	0.98926
3881.38574	0.98968
3879.32883	0.98932
3877.27193	0.98967
3875.21502	0.99039
3873.15811	0.99023
3871.10120	0.98958
3869.04429	0.98912
3866.98738	0.98881
3864.93048	0.98876
3862.87357	0.98896
3860.81666	0.98894
3858.75975	0.98891
3856.70284	0.98947
3854.64594	0.99000
3852.58903	0.98952
3850.53212	0.98960
3848.47521	0.99031
3846.41830	0.99073
3844.36139	0.99064
3842.30449	0.99006
3840.24758	0.98942
3838.19067	0.98926
3836.13376	0.98971
3834.07685	0.99023
3832.01995	0.99019
3829.96304	0.98983
3827.90613	0.98938
3825.84922	0.98869
3823.79231	0.98831
3821.73540	0.98880
3819.67850	0.98972
3817.62159	0.99014
3815.56468	0.98974
3813.50777	0.98921
3811.45086	0.98920
3809.39396	0.98930
3807.33705	0.98943
3805.28014	0.98979
3803.22323	0.99020
3801.16632	0.99052
3799.10941	0.99042
3797.05251	0.98976
3794.99560	0.98923
3792.93869	0.98954
3790.88178	0.99023
3788.82487	0.99040
3786.76796	0.99023
3784.71106	0.99015
3782.65415	0.99009
3780.59724	0.99005
3778.54033	0.98996
3776.48342	0.99013
3774.42652	0.99061
3772.36961	0.99134
3770.31270	0.99215
3768.25579	0.99214
3766.19888	0.99131
3764.14197	0.99060
3762.08507	0.99039
3760.02816	0.99074
3757.97125	0.99119
3755.91434	0.99108
3753.85743	0.99054
3751.80053	0.98950
3749.74362	0.98864
3747.68671	0.98887
3745.62980	0.98958
3743.57289	0.99054
3741.51598	0.99129
3739.45908	0.99119
3737.40217	0.99047
3735.34526	0.99041
3733.28835	0.99102
3731.23144	0.99099
3729.17454	0.99069
3727.11763	0.99073
3725.06072	0.99064
3723.00381	0.99025
3720.94690	0.99031
3718.88999	0.99069
3716.83309	0.99087
3714.77618	0.99071
3712.71927	0.98984
3710.66236	0.98868
3708.60545	0.98846
3706.54855	0.98901
3704.49164	0.98960
3702.43473	0.98989
3700.37782	0.99017
3698.32091	0.99090
3696.26400	0.99164
3694.20710	0.99183
3692.15019	0.99150
3690.09328	0.99090
3688.03637	0.99079
3685.97946	0.99110
3683.92256	0.99114
3681.86565	0.99085
3679.80874	0.99072
3677.75183	0.99138
3675.69492	0.99233
3673.63801	0.99233
3671.58111	0.99161
3669.52420	0.99083
3667.46729	0.99073
3665.41038	0.99056
3663.35347	0.98973
3661.29657	0.98918
3659.23966	0.98958
3657.18275	0.99067
3655.12584	0.99160
3653.06893	0.99172
3651.01202	0.99200
3648.95512	0.99256
3646.89821	0.99148
3644.84130	0.98984
3642.78439	0.98922
3640.72748	0.98966
3638.67058	0.99024
3636.61367	0.99007
3634.55676	0.98963
3632.49985	0.98944
3630.44294	0.98932
3628.38603	0.98928
3626.32913	0.98941
3624.27222	0.98950
3622.21531	0.98916
3620.15840	0.98830
3618.10149	0.98773
3616.04459	0.98829
3613.98768	0.98923
3611.93077	0.98972
3609.87386	0.98971
3607.81695	0.98904
3605.76004	0.98829
3603.70314	0.98789
3601.64623	0.98743
3599.58932	0.98704
3597.53241	0.98703
3595.47550	0.98715
3593.41860	0.98701
3591.36169	0.98670
3589.30478	0.98638
3587.24787	0.98623
3585.19096	0.98611
3583.13405	0.98575
3581.07715	0.98577
3579.02024	0.98623
3576.96333	0.98594
3574.90642	0.98503
3572.84951	0.98465
3570.79261	0.98459
3568.73570	0.98407
3566.67879	0.98306
3564.62188	0.98259
3562.56497	0.98295
3560.50806	0.98318
3558.45116	0.98263
3556.39425	0.98157
3554.33734	0.98088
3552.28043	0.98093
3550.22352	0.98069
3548.16662	0.97949
3546.10971	0.97856
3544.05280	0.97879
3541.99589	0.97882
3539.93898	0.97809
3537.88207	0.97723
3535.82517	0.97663
3533.76826	0.97671
3531.71135	0.97733
3529.65444	0.97771
3527.59753	0.97720
3525.54063	0.97582
3523.48372	0.97468
3521.42681	0.97446
3519.36990	0.97463
3517.31299	0.97471
3515.25608	0.97414
3513.19918	0.97291
3511.14227	0.97210
3509.08536	0.97210
3507.02845	0.97215
3504.97154	0.97138
3502.91464	0.97025
3500.85773	0.96988
3498.80082	0.96991
3496.74391	0.96966
3494.68700	0.96922
3492.63009	0.96888
3490.57319	0.96865
3488.51628	0.96827
3486.45937	0.96757
3484.40246	0.96713
3482.34555	0.96713
3480.28865	0.96689
3478.23174	0.96649
3476.17483	0.96605
3474.11792	0.96524
3472.06101	0.96451
3470.00410	0.96429
3467.94720	0.96431
3465.89029	0.96443
3463.83338	0.96443
3461.77647	0.96414
3459.71956	0.96325
3457.66266	0.96185
3455.60575	0.96110
3453.54884	0.96157
3451.49193	0.96200
3449.43502	0.96156
3447.37811	0.96136
3445.32121	0.96174
3443.26430	0.96143
3441.20739	0.96036
3439.15048	0.95982
3437.09357	0.95995
3435.03667	0.95979
3432.97976	0.95931
3430.92285	0.95929
3428.86594	0.95960
3426.80903	0.95944
3424.75212	0.95931
3422.69522	0.95993
3420.63831	0.96010
3418.58140	0.95938
3416.52449	0.95903
3414.46758	0.95916
3412.41068	0.95912
3410.35377	0.95896
3408.29686	0.95903
3406.23995	0.95906
3404.18304	0.95877
3402.12613	0.95840
3400.06923	0.95813
3398.01232	0.95797
3395.95541	0.95777
3393.89850	0.95750
3391.84159	0.95742
3389.78469	0.95759
3387.72778	0.95779
3385.67087	0.95764
3383.61396	0.95734
3381.55705	0.95761
3379.50014	0.95807
3377.44324	0.95815
3375.38633	0.95843
3373.32942	0.95888
3371.27251	0.95899
3369.21560	0.95860
3367.15870	0.95804
3365.10179	0.95807
3363.04488	0.95843
3360.98797	0.95869
3358.93106	0.95895
3356.87415	0.95873
3354.81725	0.95791
3352.76034	0.95734
3350.70343	0.95727
3348.64652	0.95757
3346.58961	0.95832
3344.53271	0.95891
3342.47580	0.95893
3340.41889	0.95882
3338.36198	0.95881
3336.30507	0.95887
3334.24816	0.95922
3332.19126	0.95966
3330.13435	0.95990
3328.07744	0.95999
3326.02053	0.95986
3323.96362	0.95964
3321.90672	0.95968
3319.84981	0.95987
3317.79290	0.95997
3315.73599	0.95999
3313.67908	0.95986
3311.62217	0.95969
3309.56527	0.95977
3307.50836	0.96022
3305.45145	0.96070
3303.39454	0.96070
3301.33763	0.96054
3299.28073	0.96051
3297.22382	0.96031
3295.16691	0.96040
3293.11000	0.96127
3291.05309	0.96195
3288.99618	0.96177
3286.93928	0.96153
3284.88237	0.96180
3282.82546	0.96210
3280.76855	0.96224
3278.71164	0.96254
3276.65474	0.96287
3274.59783	0.96292
3272.54092	0.96279
3270.48401	0.96265
3268.42710	0.96298
3266.37019	0.96371
3264.31329	0.96408
3262.25638	0.96438
3260.19947	0.96472
3258.14256	0.96456
3256.08565	0.96424
3254.02875	0.96434
3251.97184	0.96470
3249.91493	0.96497
3247.85802	0.96493
3245.80111	0.96464
3243.74420	0.96484
3241.68730	0.96569
3239.63039	0.96605
3237.57348	0.96585
3235.51657	0.96603
3233.45966	0.96634
3231.40276	0.96650
3229.34585	0.96698
3227.28894	0.96767
3225.23203	0.96815
3223.17512	0.96830
3221.11821	0.96814
3219.06131	0.96773
3217.00440	0.96758
3214.94749	0.96796
3212.89058	0.96809
3210.83367	0.96794
3208.77677	0.96833
3206.71986	0.96917
3204.66295	0.96963
3202.60604	0.96942
3200.54913	0.96906
3198.49222	0.96921
3196.43532	0.96972
3194.37841	0.97001
3192.32150	0.97027
3190.26459	0.97086
3188.20768	0.97137
3186.15078	0.97166
3184.09387	0.97195
3182.03696	0.97186
3179.98005	0.97147
3177.92314	0.97173
3175.86623	0.97242
3173.80933	0.97260
3171.75242	0.97241
3169.69551	0.97235
3167.63860	0.97279
3165.58169	0.97331
3163.52479	0.97323
3161.46788	0.97309
3159.41097	0.97357
3157.35406	0.97434
3155.29715	0.97463
3153.24024	0.97431
3151.18334	0.97420
3149.12643	0.97461
3147.06952	0.97474
3145.01261	0.97445
3142.95570	0.97441
3140.89880	0.97467
3138.84189	0.97500
3136.78498	0.97547
3134.72807	0.97570
3132.67116	0.97541
3130.61425	0.97530
3128.55735	0.97566
3126.50044	0.97623
3124.44353	0.97673
3122.38662	0.97654
3120.32971	0.97611
3118.27281	0.97627
3116.21590	0.97660
3114.15899	0.97689
3112.10208	0.97704
3110.04517	0.97694
3107.98826	0.97710
3105.93136	0.97766
3103.87445	0.97828
3101.81754	0.97878
3099.76063	0.97905
3097.70372	0.97910
3095.64682	0.97893
3093.58991	0.97864
3091.53300	0.97839
3089.47609	0.97839
3087.41918	0.97875
3085.36227	0.97904
3083.30537	0.97922
3081.24846	0.97978
3079.19155	0.98027
3077.13464	0.98012
3075.07773	0.97985
3073.02083	0.97962
3070.96392	0.97931
3068.90701	0.97913
3066.85010	0.97910
3064.79319	0.97931
3062.73628	0.97972
3060.67938	0.98007
3058.62247	0.98042
3056.56556	0.98077
3054.50865	0.98070
3052.45174	0.98011
3050.39484	0.97981
3048.33793	0.98003
3046.28102	0.98037
3044.22411	0.98058
3042.16720	0.98053
3040.11029	0.98057
3038.05339	0.98097
3035.99648	0.98155
3033.93957	0.98203
3031.88266	0.98169
3029.82575	0.98065
3027.76885	0.98029
3025.71194	0.98080
3023.65503	0.98132
3021.59812	0.98144
3019.54121	0.98131
3017.48430	0.98130
3015.42740	0.98156
3013.37049	0.98211
3011.31358	0.98265
3009.25667	0.98255
3007.19976	0.98215
3005.14286	0.98211
3003.08595	0.98214
3001.02904	0.98194
2998.97213	0.98188
2996.91522	0.98204
2994.85831	0.98176
2992.80141	0.98120
2990.74450	0.98110
2988.68759	0.98120
2986.63068	0.98121
2984.57377	0.98131
2982.51687	0.98134
2980.45996	0.98110
2978.40305	0.98090
2976.34614	0.98078
2974.28923	0.98061
2972.23232	0.98051
2970.17542	0.98011
2968.11851	0.97934
2966.06160	0.97885
2964.00469	0.97885
2961.94778	0.97910
2959.89088	0.97923
2957.83397	0.97887
2955.77706	0.97821
2953.72015	0.97772
2951.66324	0.97735
2949.60633	0.97685
2947.54943	0.97655
2945.49252	0.97651
2943.43561	0.97607
2941.37870	0.97526
2939.32179	0.97461
2937.26489	0.97426
2935.20798	0.97419
2933.15107	0.97417
2931.09416	0.97383
2929.03725	0.97307
2926.98034	0.97235
2924.92344	0.97203
2922.86653	0.97218
2920.80962	0.97283
2918.75271	0.97311
2916.69580	0.97250
2914.63890	0.97194
2912.58199	0.97203
2910.52508	0.97234
2908.46817	0.97225
2906.41126	0.97189
2904.35435	0.97152
2902.29745	0.97082
2900.24054	0.97040
2898.18363	0.97077
2896.12672	0.97108
2894.06981	0.97105
2892.01291	0.97095
2889.95600	0.97063
2887.89909	0.97022
2885.84218	0.97014
2883.78527	0.97032
2881.72836	0.97060
2879.67146	0.97097
2877.61455	0.97125
2875.55764	0.97145
2873.50073	0.97151
2871.44382	0.97127
2869.38692	0.97123
2867.33001	0.97165
2865.27310	0.97198
2863.21619	0.97216
2861.15928	0.97249
2859.10237	0.97302
2857.04547	0.97359
2854.98856	0.97415
2852.93165	0.97483
2850.87474	0.97551
2848.81783	0.97596
2846.76093	0.97607
2844.70402	0.97620
2842.64711	0.97666
2840.59020	0.97705
2838.53329	0.97730
2836.47638	0.97757
2834.41948	0.97770
2832.36257	0.97768
2830.30566	0.97761
2828.24875	0.97784
2826.19184	0.97818
2824.13494	0.97826
2822.07803	0.97847
2820.02112	0.97890
2817.96421	0.97906
2815.90730	0.97913
2813.85039	0.97928
2811.79349	0.97932
2809.73658	0.97940
2807.67967	0.97971
2805.62276	0.98007
2803.56585	0.98030
2801.50895	0.98027
2799.45204	0.97990
2797.39513	0.97948
2795.33822	0.97944
2793.28131	0.97988
2791.22440	0.98036
2789.16750	0.98065
2787.11059	0.98088
2785.05368	0.98095
2782.99677	0.98070
2780.93986	0.98042
2778.88296	0.98036
2776.82605	0.98035
2774.76914	0.98055
2772.71223	0.98084
2770.65532	0.98088
2768.59841	0.98101
2766.54151	0.98126
2764.48460	0.98131
2762.42769	0.98116
2760.37078	0.98098
2758.31387	0.98105
2756.25697	0.98123
2754.20006	0.98118
2752.14315	0.98115
2750.08624	0.98122
2748.02933	0.98125
2745.97242	0.98121
2743.91552	0.98098
2741.85861	0.98073
2739.80170	0.98078
2737.74479	0.98123
2735.68788	0.98174
2733.63098	0.98185
2731.57407	0.98144
2729.51716	0.98088
2727.46025	0.98080
2725.40334	0.98128
2723.34643	0.98168
2721.28953	0.98166
2719.23262	0.98163
2717.17571	0.98191
2715.11880	0.98231
2713.06189	0.98239
2711.00499	0.98213
2708.94808	0.98186
2706.89117	0.98174
2704.83426	0.98177
2702.77735	0.98171
2700.72044	0.98158
2698.66354	0.98163
2696.60663	0.98169
2694.54972	0.98167
2692.49281	0.98167
2690.43590	0.98163
2688.37900	0.98166
2686.32209	0.98201
2684.26518	0.98235
2682.20827	0.98225
2680.15136	0.98205
2678.09445	0.98201
2676.03755	0.98195
2673.98064	0.98191
2671.92373	0.98185
2669.86682	0.98188
2667.80991	0.98200
2665.75301	0.98214
2663.69610	0.98235
2661.63919	0.98227
2659.58228	0.98197
2657.52537	0.98180
2655.46846	0.98179
2653.41156	0.98200
2651.35465	0.98230
2649.29774	0.98243
2647.24083	0.98261
2645.18392	0.98292
2643.12702	0.98304
2641.07011	0.98275
2639.01320	0.98225
2636.95629	0.98187
2634.89938	0.98172
2632.84247	0.98184
2630.78557	0.98209
2628.72866	0.98234
2626.67175	0.98243
2624.61484	0.98244
2622.55793	0.98274
2620.50103	0.98308
2618.44412	0.98300
2616.38721	0.98274
2614.33030	0.98270
2612.27339	0.98292
2610.21648	0.98347
2608.15958	0.98391
2606.10267	0.98375
2604.04576	0.98345
2601.98885	0.98331
2599.93194	0.98360
2597.87504	0.98419
2595.81813	0.98424
2593.76122	0.98399
2591.70431	0.98404
2589.64740	0.98389
2587.59049	0.98315
2585.53359	0.98243
2583.47668	0.98242
2581.41977	0.98283
2579.36286	0.98315
2577.30595	0.98350
2575.24905	0.98397
2573.19214	0.98425
2571.13523	0.98394
2569.07832	0.98373
2567.02141	0.98413
2564.96450	0.98429
2562.90760	0.98409
2560.85069	0.98377
2558.79378	0.98359
2556.73687	0.98401
2554.67996	0.98423
2552.62306	0.98357
2550.56615	0.98300
2548.50924	0.98314
2546.45233	0.98344
2544.39542	0.98381
2542.33851	0.98405
2540.28161	0.98390
2538.22470	0.98384
2536.16779	0.98424
2534.11088	0.98479
2532.05397	0.98458
2529.99707	0.98378
2527.94016	0.98357
2525.88325	0.98367
2523.82634	0.98346
2521.76943	0.98317
2519.71252	0.98317
2517.65562	0.98373
2515.59871	0.98426
2513.54180	0.98422
2511.48489	0.98417
2509.42798	0.98460
2507.37108	0.98506
2505.31417	0.98494
2503.25726	0.98447
2501.20035	0.98424
2499.14344	0.98409
2497.08653	0.98391
2495.02963	0.98412
2492.97272	0.98431
2490.91581	0.98404
2488.85890	0.98437
2486.80199	0.98528
2484.74509	0.98542
2482.68818	0.98482
2480.63127	0.98448
2478.57436	0.98474
2476.51745	0.98516
2474.46054	0.98538
2472.40364	0.98525
2470.34673	0.98496
2468.28982	0.98521
2466.23291	0.98565
2464.17600	0.98527
2462.11910	0.98446
2460.06219	0.98423
2458.00528	0.98442
2455.94837	0.98425
2453.89146	0.98385
2451.83455	0.98399
2449.77765	0.98459
2447.72074	0.98473
2445.66383	0.98421
2443.60692	0.98412
2441.55001	0.98449
2439.49311	0.98428
2437.43620	0.98409
2435.37929	0.98449
2433.32238	0.98474
2431.26547	0.98463
2429.20856	0.98456
2427.15166	0.98476
2425.09475	0.98531
2423.03784	0.98576
2420.98093	0.98569
2418.92402	0.98573
2416.86712	0.98584
2414.81021	0.98537
2412.75330	0.98513
2410.69639	0.98556
2408.63948	0.98576
2406.58257	0.98542
2404.52567	0.98513
2402.46876	0.98511
2400.41185	0.98493
2398.35494	0.98461
2396.29803	0.98445
2394.24113	0.98441
2392.18422	0.98460
2390.12731	0.98496
2388.07040	0.98505
2386.01349	0.98485
2383.95658	0.98482
2381.89968	0.98523
2379.84277	0.98581
2377.78586	0.98584
2375.72895	0.98576
2373.67204	0.98615
2371.61514	0.98585
2369.55823	0.98475
2367.50132	0.98412
2365.44441	0.98473
2363.38750	0.98618
2361.33059	0.98645
2359.27369	0.98543
2357.21678	0.98460
2355.15987	0.98432
2353.10296	0.98441
2351.04605	0.98503
2348.98915	0.98544
2346.93224	0.98500
2344.87533	0.98457
2342.81842	0.98486
2340.76151	0.98500
2338.70460	0.98478
2336.64770	0.98443
2334.59079	0.98435
2332.53388	0.98489
2330.47697	0.98487
2328.42006	0.98372
2326.36316	0.98251
2324.30625	0.98193
2322.24934	0.98227
2320.19243	0.98339
2318.13552	0.98449
2316.07861	0.98504
2314.02171	0.98499
2311.96480	0.98475
2309.90789	0.98488
2307.85098	0.98504
2305.79407	0.98492
2303.73717	0.98494
2301.68026	0.98528
2299.62335	0.98543
2297.56644	0.98496
2295.50953	0.98442
2293.45262	0.98470
2291.39572	0.98548
2289.33881	0.98554
2287.28190	0.98489
2285.22499	0.98421
2283.16808	0.98366
2281.11117	0.98347
2279.05427	0.98373
2276.99736	0.98431
2274.94045	0.98511
2272.88354	0.98571
2270.82663	0.98519
2268.76973	0.98402
2266.71282	0.98376
2264.65591	0.98417
2262.59900	0.98448
2260.54209	0.98507
2258.48518	0.98595
2256.42828	0.98644
2254.37137	0.98591
2252.31446	0.98519
2250.25755	0.98593
2248.20064	0.98713
2246.14374	0.98706
2244.08683	0.98604
2242.02992	0.98527
2239.97301	0.98562
2237.91610	0.98662
2235.85919	0.98724
2233.80229	0.98723
2231.74538	0.98630
2229.68847	0.98504
2227.63156	0.98492
2225.57465	0.98511
2223.51775	0.98483
2221.46084	0.98558
2219.40393	0.98716
2217.34702	0.98740
2215.29011	0.98626
2213.23320	0.98536
2211.17630	0.98556
2209.11939	0.98696
2207.06248	0.98831
2205.00557	0.98861
2202.94866	0.98829
2200.89176	0.98764
2198.83485	0.98706
2196.77794	0.98677
2194.72103	0.98632
2192.66412	0.98615
2190.60721	0.98660
2188.55031	0.98628
2186.49340	0.98506
2184.43649	0.98491
2182.37958	0.98607
2180.32267	0.98631
2178.26577	0.98480
2176.20886	0.98325
2174.15195	0.98321
2172.09504	0.98510
2170.03813	0.98795
2167.98122	0.98928
2165.92432	0.98840
2163.86741	0.98814
2161.81050	0.99008
2159.75359	0.99129
2157.69668	0.99084
2155.63978	0.99008
2153.58287	0.98836
2151.52596	0.98780
2149.46905	0.98912
2147.41214	0.98952
2145.35523	0.98933
2143.29833	0.98970
2141.24142	0.98978
2139.18451	0.98933
2137.12760	0.98809
2135.07069	0.98678
2133.01379	0.98689
2130.95688	0.98707
2128.89997	0.98622
2126.84306	0.98564
2124.78615	0.98606
2122.72924	0.98677
2120.67234	0.98701
2118.61543	0.98680
2116.55852	0.98610
2114.50161	0.98514
2112.44470	0.98450
2110.38780	0.98446
2108.33089	0.98479
2106.27398	0.98493
2104.21707	0.98500
2102.16016	0.98541
2100.10325	0.98576
2098.04635	0.98626
2095.98944	0.98694
2093.93253	0.98659
2091.87562	0.98575
2089.81871	0.98547
2087.76181	0.98499
2085.70490	0.98480
2083.64799	0.98606
2081.59108	0.98691
2079.53417	0.98666
2077.47726	0.98699
2075.42036	0.98736
2073.36345	0.98704
2071.30654	0.98633
2069.24963	0.98545
2067.19272	0.98551
2065.13582	0.98652
2063.07891	0.98717
2061.02200	0.98717
2058.96509	0.98672
2056.90818	0.98605
2054.85127	0.98525
2052.79437	0.98476
2050.73746	0.98539
2048.68055	0.98626
2046.62364	0.98630
2044.56673	0.98554
2042.50983	0.98469
2040.45292	0.98520
2038.39601	0.98673
2036.33910	0.98729
2034.28219	0.98737
2032.22528	0.98827
2030.16838	0.98883
2028.11147	0.98908
2026.05456	0.98961
2023.99765	0.98967
2021.94074	0.98900
2019.88384	0.98772
2017.82693	0.98674
2015.77002	0.98625
2013.71311	0.98532
2011.65620	0.98608
2009.59929	0.98930
2007.54239	0.99095
2005.48548	0.99007
2003.42857	0.98914
2001.37166	0.98876
1999.31475	0.98814
1997.25785	0.98749
1995.20094	0.98749
1993.14403	0.98803
1991.08712	0.98834
1989.03021	0.98784
1986.97330	0.98723
1984.91640	0.98640
1982.85949	0.98539
1980.80258	0.98574
1978.74567	0.98758
1976.68876	0.99000
1974.63186	0.99087
1972.57495	0.98925
1970.51804	0.98847
1968.46113	0.98983
1966.40422	0.98994
1964.34731	0.98851
1962.29041	0.98877
1960.23350	0.98994
1958.17659	0.99005
1956.11968	0.99007
1954.06277	0.99042
1952.00587	0.99054
1949.94896	0.99008
1947.89205	0.98911
1945.83514	0.98851
1943.77823	0.98887
1941.72132	0.98925
1939.66442	0.98858
1937.60751	0.98738
1935.55060	0.98685
1933.49369	0.98711
1931.43678	0.98774
1929.37988	0.98819
1927.32297	0.98796
1925.26606	0.98769
1923.20915	0.98829
1921.15224	0.98953
1919.09533	0.98981
1917.03843	0.98821
1914.98152	0.98698
1912.92461	0.98760
1910.86770	0.98817
1908.81079	0.98779
1906.75389	0.98759
1904.69698	0.98755
1902.64007	0.98739
1900.58316	0.98737
1898.52625	0.98770
1896.46934	0.98798
1894.41244	0.98735
1892.35553	0.98694
1890.29862	0.98814
1888.24171	0.98947
1886.18480	0.98876
1884.12790	0.98710
1882.07099	0.98690
1880.01408	0.98767
1877.95717	0.98747
1875.90026	0.98662
1873.84335	0.98614
1871.78645	0.98624
1869.72954	0.98673
1867.67263	0.98705
1865.61572	0.98693
1863.55881	0.98650
1861.50191	0.98614
1859.44500	0.98643
1857.38809	0.98725
1855.33118	0.98811
1853.27427	0.98874
1851.21736	0.98856
1849.16046	0.98769
1847.10355	0.98727
1845.04664	0.98740
1842.98973	0.98724
1840.93282	0.98728
1838.87592	0.98787
1836.81901	0.98840
1834.76210	0.98858
1832.70519	0.98844
1830.64828	0.98802
1828.59137	0.98793
1826.53447	0.98800
1824.47756	0.98749
1822.42065	0.98754
1820.36374	0.98850
1818.30683	0.98900
1816.24993	0.98876
1814.19302	0.98824
1812.13611	0.98766
1810.07920	0.98725
1808.02229	0.98715
1805.96538	0.98733
1803.90848	0.98779
1801.85157	0.98805
1799.79466	0.98778
1797.73775	0.98747
1795.68084	0.98724
1793.62394	0.98708
1791.56703	0.98752
1789.51012	0.98822
1787.45321	0.98820
1785.39630	0.98764
1783.33939	0.98724
1781.28249	0.98695
1779.22558	0.98687
1777.16867	0.98720
1775.11176	0.98748
1773.05485	0.98751
1770.99795	0.98697
1768.94104	0.98570
1766.88413	0.98447
1764.82722	0.98377
1762.77031	0.98314
1760.71340	0.98185
1758.65650	0.97995
1756.59959	0.97761
1754.54268	0.97543
1752.48577	0.97335
1750.42886	0.97071
1748.37196	0.96804
1746.31505	0.96570
1744.25814	0.96335
1742.20123	0.96109
1740.14432	0.95904
1738.08741	0.95749
1736.03051	0.95659
1733.97360	0.95540
1731.91669	0.95420
1729.85978	0.95367
1727.80287	0.95315
1725.74597	0.95284
1723.68906	0.95317
1721.63215	0.95381
1719.57524	0.95441
1717.51833	0.95517
1715.46142	0.95643
1713.40452	0.95789
1711.34761	0.95954
1709.29070	0.96136
1707.23379	0.96292
1705.17688	0.96459
1703.11998	0.96671
1701.06307	0.96921
1699.00616	0.97165
1696.94925	0.97314
1694.89234	0.97423
1692.83543	0.97508
1690.77853	0.97566
1688.72162	0.97608
1686.66471	0.97655
1684.60780	0.97714
1682.55089	0.97782
1680.49399	0.97852
1678.43708	0.97900
1676.38017	0.97917
1674.32326	0.97906
1672.26635	0.97885
1670.20944	0.97870
1668.15254	0.97892
1666.09563	0.97933
1664.03872	0.97941
1661.98181	0.97912
1659.92490	0.97902
1657.86800	0.97926
1655.81109	0.97957
1653.75418	0.97944
1651.69727	0.97908
1649.64036	0.97918
1647.58345	0.97913
1645.52655	0.97878
1643.46964	0.97878
1641.41273	0.97905
1639.35582	0.97936
1637.29891	0.97956
1635.24201	0.97943
1633.18510	0.97937
1631.12819	0.97945
1629.07128	0.97942
1627.01437	0.97951
1624.95746	0.97968
1622.90056	0.97974
1620.84365	0.97999
1618.78674	0.98038
1616.72983	0.98065
1614.67292	0.98086
1612.61602	0.98114
1610.55911	0.98141
1608.50220	0.98140
1606.44529	0.98121
1604.38838	0.98115
1602.33147	0.98106
1600.27457	0.98087
1598.21766	0.98093
1596.16075	0.98128
1594.10384	0.98158
1592.04693	0.98161
1589.99003	0.98149
1587.93312	0.98157
1585.87621	0.98174
1583.81930	0.98162
1581.76239	0.98144
1579.70548	0.98170
1577.64858	0.98211
1575.59167	0.98207
1573.53476	0.98194
1571.47785	0.98205
1569.42094	0.98225
1567.36404	0.98242
1565.30713	0.98262
1563.25022	0.98300
1561.19331	0.98343
1559.13640	0.98328
1557.07949	0.98257
1555.02259	0.98254
1552.96568	0.98292
1550.90877	0.98321
1548.85186	0.98312
1546.79495	0.98303
1544.73805	0.98326
1542.68114	0.98349
1540.62423	0.98361
1538.56732	0.98383
1536.51041	0.98386
1534.45350	0.98379
1532.39660	0.98387
1530.33969	0.98392
1528.28278	0.98381
1526.22587	0.98374
1524.16896	0.98377
1522.11206	0.98349
1520.05515	0.98310
1517.99824	0.98329
1515.94133	0.98374
1513.88442	0.98382
1511.82751	0.98347
1509.77061	0.98313
1507.71370	0.98303
1505.65679	0.98321
1503.59988	0.98337
1501.54297	0.98346
1499.48607	0.98356
1497.42916	0.98340
1495.37225	0.98305
1493.31534	0.98296
1491.25843	0.98291
1489.20152	0.98270
1487.14462	0.98241
1485.08771	0.98196
1483.03080	0.98143
1480.97389	0.98111
1478.91698	0.98075
1476.86008	0.97988
1474.80317	0.97868
1472.74626	0.97759
1470.68935	0.97691
1468.63244	0.97644
1466.57553	0.97561
1464.51863	0.97448
1462.46172	0.97394
1460.40481	0.97405
1458.34790	0.97398
1456.29099	0.97273
1454.23409	0.97151
1452.17718	0.97098
1450.12027	0.97047
1448.06336	0.96966
1446.00645	0.96852
1443.94954	0.96759
1441.89264	0.96718
1439.83573	0.96684
1437.77882	0.96612
1435.72191	0.96515
1433.66500	0.96450
1431.60810	0.96404
1429.55119	0.96377
1427.49428	0.96389
1425.43737	0.96394
1423.38046	0.96390
1421.32355	0.96409
1419.26665	0.96410
1417.20974	0.96367
1415.15283	0.96326
1413.09592	0.96311
1411.03901	0.96322
1408.98211	0.96340
1406.92520	0.96350
1404.86829	0.96351
1402.81138	0.96349
1400.75447	0.96340
1398.69756	0.96321
1396.64066	0.96307
1394.58375	0.96280
1392.52684	0.96214
1390.46993	0.96116
1388.41302	0.96009
1386.35612	0.95914
1384.29921	0.95815
1382.24230	0.95669
1380.18539	0.95484
1378.12848	0.95306
1376.07157	0.95128
1374.01467	0.94940
1371.95776	0.94821
1369.90085	0.94798
1367.84394	0.94807
1365.78703	0.94852
1363.73013	0.94966
1361.67322	0.95111
1359.61631	0.95257
1357.55940	0.95401
1355.50249	0.95514
1353.44558	0.95599
1351.38868	0.95701
1349.33177	0.95813
1347.27486	0.95869
1345.21795	0.95876
1343.16104	0.95886
1341.10414	0.95882
1339.04723	0.95871
1336.99032	0.95886
1334.93341	0.95911
1332.87650	0.95924
1330.81959	0.95917
1328.76269	0.95928
1326.70578	0.95969
1324.64887	0.95987
1322.59196	0.95982
1320.53505	0.95974
1318.47815	0.95959
1316.42124	0.95970
1314.36433	0.96008
1312.30742	0.96029
1310.25051	0.96046
1308.19360	0.96086
1306.13670	0.96122
1304.07979	0.96140
1302.02288	0.96144
1299.96597	0.96141
1297.90906	0.96151
1295.85216	0.96177
1293.79525	0.96192
1291.73834	0.96176
1289.68143	0.96162
1287.62452	0.96155
1285.56761	0.96122
1283.51071	0.96060
1281.45380	0.95978
1279.39689	0.95896
1277.33998	0.95808
1275.28307	0.95687
1273.22617	0.95555
1271.16926	0.95434
1269.11235	0.95306
1267.05544	0.95160
1264.99853	0.94984
1262.94162	0.94782
1260.88472	0.94580
1258.82781	0.94405
1256.77090	0.94246
1254.71399	0.94074
1252.65708	0.93884
1250.60018	0.93696
1248.54327	0.93523
1246.48636	0.93368
1244.42945	0.93226
1242.37254	0.93119
1240.31563	0.93049
1238.25873	0.92990
1236.20182	0.92948
1234.14491	0.92930
1232.08800	0.92928
1230.03109	0.92951
1227.97419	0.93023
1225.91728	0.93161
1223.86037	0.93362
1221.80346	0.93611
1219.74655	0.93878
1217.68964	0.94167
1215.63274	0.94470
1213.57583	0.94735
1211.51892	0.94942
1209.46201	0.95111
1207.40510	0.95247
1205.34820	0.95343
1203.29129	0.95392
1201.23438	0.95422
1199.17747	0.95491
1197.12056	0.95624
1195.06365	0.95777
1193.00675	0.95919
1190.94984	0.96049
1188.89293	0.96137
1186.83602	0.96164
1184.77911	0.96168
1182.72221	0.96167
1180.66530	0.96127
1178.60839	0.96011
1176.55148	0.95824
1174.49457	0.95590
1172.43766	0.95342
1170.38076	0.95076
1168.32385	0.94783
1166.26694	0.94499
1164.21003	0.94227
1162.15312	0.93966
1160.09622	0.93764
1158.03931	0.93653
1155.98240	0.93620
1153.92549	0.93656
1151.86858	0.93756
1149.81167	0.93872
1147.75477	0.93971
1145.69786	0.94052
1143.64095	0.94090
1141.58404	0.94073
1139.52713	0.94017
1137.47023	0.93918
1135.41332	0.93769
1133.35641	0.93570
1131.29950	0.93337
1129.24259	0.93118
1127.18568	0.92928
1125.12878	0.92734
1123.07187	0.92494
1121.01496	0.92236
1118.95805	0.92020
1116.90114	0.91833
1114.84424	0.91659
1112.78733	0.91508
1110.73042	0.91375
1108.67351	0.91236
1106.61660	0.91070
1104.55969	0.90891
1102.50279	0.90721
1100.44588	0.90549
1098.38897	0.90359
1096.33206	0.90175
1094.27515	0.90017
1092.21825	0.89856
1090.16134	0.89667
1088.10443	0.89466
1086.04752	0.89257
1083.99061	0.89034
1081.93370	0.88795
1079.87680	0.88527
1077.81989	0.88260
1075.76298	0.87992
1073.70607	0.87688
1071.64916	0.87380
1069.59226	0.87114
1067.53535	0.86886
1065.47844	0.86679
1063.42153	0.86480
1061.36462	0.86307
1059.30771	0.86167
1057.25081	0.86015
1055.19390	0.85867
1053.13699	0.85740
1051.08008	0.85614
1049.02317	0.85503
1046.96627	0.85380
1044.90936	0.85217
1042.85245	0.85059
1040.79554	0.84923
1038.73863	0.84799
1036.68172	0.84668
1034.62482	0.84496
1032.56791	0.84302
1030.51100	0.84112
1028.45409	0.83922
1026.39718	0.83758
1024.34028	0.83644
1022.28337	0.83560
1020.22646	0.83517
1018.16955	0.83530
1016.11264	0.83557
1014.05573	0.83603
1011.99883	0.83723
1009.94192	0.83898
1007.88501	0.84074
1005.82810	0.84247
1003.77119	0.84409
1001.71429	0.84534
999.65738	0.84606
997.60047	0.84651
995.54356	0.84712
993.48665	0.84775
991.42974	0.84851
989.37284	0.84995
987.31593	0.85210
985.25902	0.85439
983.20211	0.85684
981.14520	0.86004
979.08830	0.86370
977.03139	0.86712
974.97448	0.87022
972.91757	0.87317
970.86066	0.87583
968.80375	0.87825
966.74685	0.88100
964.68994	0.88404
962.63303	0.88672
960.57612	0.88908
958.51921	0.89130
956.46231	0.89321
954.40540	0.89525
952.34849	0.89778
950.29158	0.90016
948.23467	0.90189
946.17776	0.90357
944.12086	0.90553
942.06395	0.90736
940.00704	0.90875
937.95013	0.91006
935.89322	0.91154
933.83632	0.91278
931.77941	0.91361
929.72250	0.91431
927.66559	0.91503
925.60868	0.91571
923.55177	0.91636
921.49487	0.91740
919.43796	0.91866
917.38105	0.91946
915.32414	0.91946
913.26723	0.91897
911.21033	0.91857
909.15342	0.91815
907.09651	0.91722
905.03960	0.91603
902.98269	0.91503
900.92578	0.91434
898.86888	0.91397
896.81197	0.91396
894.75506	0.91416
892.69815	0.91444
890.64124	0.91495
888.58434	0.91591
886.52743	0.91709
884.47052	0.91844
882.41361	0.92038
880.35670	0.92272
878.29979	0.92469
876.24289	0.92673
874.18598	0.92910
872.12907	0.93094
870.07216	0.93198
868.01525	0.93278
865.95835	0.93397
863.90144	0.93549
861.84453	0.93687
859.78762	0.93793
857.73071	0.93883
855.67380	0.93965
853.61690	0.94035
851.55999	0.94069
849.50308	0.94052
847.44617	0.94040
845.38926	0.94070
843.33236	0.94095
841.27545	0.94107
839.21854	0.94146
837.16163	0.94191
835.10472	0.94209
833.04781	0.94223
830.99091	0.94238
828.93400	0.94263
826.87709	0.94273
824.82018	0.94217
822.76327	0.94158
820.70637	0.94176
818.64946	0.94226
816.59255	0.94277
814.53564	0.94362
812.47873	0.94412
810.42182	0.94401
808.36492	0.94388
806.30801	0.94367
804.25110	0.94341
802.19419	0.94359
800.13728	0.94405
798.08038	0.94420
796.02347	0.94421
793.96656	0.94436
791.90965	0.94431
789.85274	0.94440
787.79583	0.94505
785.73893	0.94553
783.68202	0.94565
781.62511	0.94560
779.56820	0.94543
777.51129	0.94537
775.45439	0.94536
773.39748	0.94565
771.34057	0.94608
769.28366	0.94606
767.22675	0.94589
765.16984	0.94609
763.11294	0.94645
761.05603	0.94654
758.99912	0.94644
756.94221	0.94666
754.88530	0.94712
752.82839	0.94737
750.77149	0.94726
748.71458	0.94675
746.65767	0.94610
744.60076	0.94553
742.54385	0.94519
740.48695	0.94518
738.43004	0.94544
736.37313	0.94555
734.31622	0.94520
732.25931	0.94495
730.20240	0.94497
728.14550	0.94475
726.08859	0.94426
724.03168	0.94356
721.97477	0.94286
719.91786	0.94275
717.86096	0.94311
715.80405	0.94333
713.74714	0.94299
711.69023	0.94176
709.63332	0.94025
707.57641	0.93960
705.51951	0.93974
703.46260	0.93992
701.40569	0.94003
699.34878	0.93969
697.29187	0.93875
695.23497	0.93790
693.17806	0.93751
691.12115	0.93741
689.06424	0.93716
687.00733	0.93676
684.95042	0.93638
682.89352	0.93545
680.83661	0.93396
678.77970	0.93266
676.72279	0.93100
674.66588	0.92848
672.60898	0.92603
670.55207	0.92463
668.49516	0.92392
666.43825	0.92288
664.38134	0.92205
662.32443	0.92181
660.26753	0.92211
658.21062	0.92279
656.15371	0.92315
654.09680	0.92300
652.03989	0.92264
649.98299	0.92190
647.92608	0.92119
645.86917	0.92106
643.81226	0.92071
641.75535	0.91974
639.69844	0.91848
637.64154	0.91700
635.58463	0.91610
633.52772	0.91621
631.47081	0.91595
629.41390	0.91471
627.35700	0.91368
625.30009	0.91323
623.24318	0.91258
621.18627	0.91100
619.12936	0.90919
617.07245	0.90868
615.01555	0.90861
612.95864	0.90722
610.90173	0.90517
608.84482	0.90395
606.78791	0.90338
604.73101	0.90255
602.67410	0.90149
600.61719	0.90060
598.56028	0.90039
596.50337	0.90142
594.44646	0.90287
592.38956	0.90274
590.33265	0.90141
588.27574	0.90147
586.21883	0.90300
584.16192	0.90339
582.10502	0.90202
580.04811	0.90099
577.99120	0.90026
575.93429	0.89938
573.87738	0.89893
571.82047	0.89800
569.76357	0.89632
567.70666	0.89536
565.64975	0.89610
563.59284	0.89699
561.53593	0.89596
559.47903	0.89433
557.42212	0.89428
555.36521	0.89547
553.30830	0.89700
551.25139	0.89787
549.19448	0.89768
547.13758	0.89721
545.08067	0.89612
543.02376	0.89452
540.96685	0.89415
538.90994	0.89487
536.85304	0.89508
534.79613	0.89447
532.73922	0.89285
530.68231	0.89035
528.62540	0.88902
526.56849	0.88983
524.51159	0.89101
522.45468	0.89164
520.39777	0.89187
518.34086	0.89065
516.28395	0.88827
514.22705	0.88688
512.17014	0.88617
510.11323	0.88414
508.05632	0.88183
505.99941	0.88118
503.94250	0.88104
501.88560	0.88069
499.82869	0.88127
497.77178	0.88241
495.71487	0.88252
493.65796	0.88163
491.60106	0.88101
489.54415	0.88096
487.48724	0.88035
485.43033	0.87803
483.37342	0.87609
481.31651	0.87572
479.25961	0.87470
477.20270	0.87430
475.14579	0.87586
473.08888	0.87564
471.03197	0.87227
468.97507	0.86827
466.91816	0.86497
464.86125	0.86426
462.80434	0.86608
460.74743	0.86711
458.69052	0.86523
456.63362	0.86368
454.57671	0.86505
452.51980	0.86570
450.46289	0.86543
448.40598	0.86580
446.34908	0.86392
444.29217	0.86074
442.23526	0.86104
440.17835	0.86347
438.12144	0.86521
436.06453	0.86703
434.00763	0.86736
431.95072	0.86435
429.89381	0.86239
427.83690	0.86411
425.77999	0.86559
423.72309	0.86540
421.66618	0.86368
419.60927	0.85990
417.55236	0.85917
415.49545	0.86172
413.43854	0.86211
411.38164	0.85917
409.32473	0.85611
407.26782	0.85907
405.21091	0.86825
403.15400	0.87387
401.09710	0.87277
399.04019	0.87063
