3996.57260	0.97392
3994.51569	0.97399
3992.45878	0.97409
3990.40188	0.97459
3988.34497	0.97485
3986.28806	0.97444
3984.23115	0.97386
3982.17424	0.97370
3980.11733	0.97404
3978.06043	0.97459
3976.00352	0.97509
3973.94661	0.97511
3971.88970	0.97486
3969.83279	0.97479
3967.77589	0.97472
3965.71898	0.97476
3963.66207	0.97503
3961.60516	0.97536
3959.54825	0.97541
3957.49134	0.97484
3955.43444	0.97410
3953.37753	0.97389
3951.32062	0.97416
3949.26371	0.97478
3947.20680	0.97548
3945.14990	0.97519
3943.09299	0.97422
3941.03608	0.97406
3938.97917	0.97465
3936.92226	0.97503
3934.86535	0.97478
3932.80845	0.97428
3930.75154	0.97429
3928.69463	0.97440
3926.63772	0.97416
3924.58081	0.97457
3922.52391	0.97571
3920.46700	0.97611
3918.41009	0.97530
3916.35318	0.97423
3914.29627	0.97398
3912.23936	0.97472
3910.18246	0.97564
3908.12555	0.97580
3906.06864	0.97532
3904.01173	0.97493
3901.95482	0.97483
3899.89792	0.97445
3897.84101	0.97385
3895.78410	0.97373
3893.72719	0.97400
3891.67028	0.97429
3889.61337	0.97469
3887.55647	0.97502
3885.49956	0.97484
3883.44265	0.97458
3881.38574	0.97452
3879.32883	0.97424
3877.27193	0.97418
3875.21502	0.97428
3873.15811	0.97445
3871.10120	0.97492
3869.04429	0.97538
3866.98738	0.97609
3864.93048	0.97660
3862.87357	0.97560
3860.81666	0.97384
3858.75975	0.97334
3856.70284	0.97466
3854.64594	0.97685
3852.58903	0.97681
3850.53212	0.97492
3848.47521	0.97411
3846.41830	0.97401
3844.36139	0.97447
3842.30449	0.97571
3840.24758	0.97655
3838.19067	0.97592
3836.13376	0.97501
3834.07685	0.97481
3832.01995	0.97482
3829.96304	0.97509
3827.90613	0.97546
3825.84922	0.97538
3823.79231	0.97521
3821.73540	0.97501
3819.67850	0.97452
3817.62159	0.97456
3815.56468	0.97530
3813.50777	0.97616
3811.45086	0.97660
3809.39396	0.97644
3807.33705	0.97580
3805.28014	0.97546
3803.22323	0.97576
3801.16632	0.97553
3799.10941	0.97458
3797.05251	0.97419
3794.99560	0.97449
3792.93869	0.97483
3790.88178	0.97490
3788.82487	0.97526
3786.76796	0.97612
3784.71106	0.97682
3782.65415	0.97677
3780.59724	0.97568
3778.54033	0.97440
3776.48342	0.97397
3774.42652	0.97394
3772.36961	0.97429
3770.31270	0.97512
3768.25579	0.97552
3766.19888	0.97544
3764.14197	0.97549
3762.08507	0.97555
3760.02816	0.97523
3757.97125	0.97511
3755.91434	0.97572
3753.85743	0.97608
3751.80053	0.97544
3749.74362	0.97497
3747.68671	0.97581
3745.62980	0.97613
3743.57289	0.97518
3741.51598	0.97469
3739.45908	0.97485
3737.40217	0.97532
3735.34526	0.97536
3733.28835	0.97482
3731.23144	0.97517
3729.17454	0.97607
3727.11763	0.97614
3725.06072	0.97512
3723.00381	0.97461
3720.94690	0.97486
3718.88999	0.97465
3716.83309	0.97451
3714.77618	0.97509
3712.71927	0.97539
3710.66236	0.97482
3708.60545	0.97448
3706.54855	0.97460
3704.49164	0.97495
3702.43473	0.97508
3700.37782	0.97457
3698.32091	0.97433
3696.26400	0.97478
3694.20710	0.97521
3692.15019	0.97572
3690.09328	0.97614
3688.03637	0.97544
3685.97946	0.97455
3683.92256	0.97431
3681.86565	0.97454
3679.80874	0.97511
3677.75183	0.97585
3675.69492	0.97590
3673.63801	0.97536
3671.58111	0.97541
3669.52420	0.97571
3667.46729	0.97592
3665.41038	0.97584
3663.35347	0.97580
3661.29657	0.97614
3659.23966	0.97631
3657.18275	0.97594
3655.12584	0.97540
3653.06893	0.97569
3651.01202	0.97646
3648.95512	0.97535
3646.89821	0.97370
3644.84130	0.97434
3642.78439	0.97499
3640.72748	0.97428
3638.67058	0.97374
3636.61367	0.97410
3634.55676	0.97456
3632.49985	0.97526
3630.44294	0.97668
3628.38603	0.97762
3626.32913	0.97695
3624.27222	0.97593
3622.21531	0.97530
3620.15840	0.97523
3618.10149	0.97519
3616.04459	0.97469
3613.98768	0.97383
3611.93077	0.97272
3609.87386	0.97216
3607.81695	0.97233
3605.76004	0.97279
3603.70314	0.97368
3601.64623	0.97447
3599.58932	0.97444
3597.53241	0.97408
3595.47550	0.97367
3593.41860	0.97312
3591.36169	0.97341
3589.30478	0.97454
3587.24787	0.97458
3585.19096	0.97353
3583.13405	0.97319
3581.07715	0.97303
3579.02024	0.97223
3576.96333	0.97165
3574.90642	0.97203
3572.84951	0.97226
3570.79261	0.97177
3568.73570	0.97145
3566.67879	0.97120
3564.62188	0.97058
3562.56497	0.97032
3560.50806	0.97019
3558.45116	0.96960
3556.39425	0.96882
3554.33734	0.96808
3552.28043	0.96724
3550.22352	0.96642
3548.16662	0.96604
3546.10971	0.96610
3544.05280	0.96602
3541.99589	0.96586
3539.93898	0.96621
3537.88207	0.96675
3535.82517	0.96674
3533.76826	0.96609
3531.71135	0.96554
3529.65444	0.96541
3527.59753	0.96534
3525.54063	0.96478
3523.48372	0.96386
3521.42681	0.96343
3519.36990	0.96370
3517.31299	0.96362
3515.25608	0.96272
3513.19918	0.96208
3511.14227	0.96226
3509.08536	0.96222
3507.02845	0.96153
3504.97154	0.96078
3502.91464	0.96018
3500.85773	0.95999
3498.80082	0.96011
3496.74391	0.96011
3494.68700	0.96006
3492.63009	0.96003
3490.57319	0.95965
3488.51628	0.95912
3486.45937	0.95919
3484.40246	0.95967
3482.34555	0.95991
3480.28865	0.95965
3478.23174	0.95919
3476.17483	0.95884
3474.11792	0.95828
3472.06101	0.95816
3470.00410	0.95904
3467.94720	0.95975
3465.89029	0.95967
3463.83338	0.95973
3461.77647	0.96027
3459.71956	0.96032
3457.66266	0.95991
3455.60575	0.96020
3453.54884	0.96078
3451.49193	0.96084
3449.43502	0.96101
3447.37811	0.96167
3445.32121	0.96221
3443.26430	0.96220
3441.20739	0.96203
3439.15048	0.96218
3437.09357	0.96267
3435.03667	0.96338
3432.97976	0.96396
3430.92285	0.96425
3428.86594	0.96426
3426.80903	0.96437
3424.75212	0.96491
3422.69522	0.96545
3420.63831	0.96530
3418.58140	0.96461
3416.52449	0.96439
3414.46758	0.96504
3412.41068	0.96583
3410.35377	0.96606
3408.29686	0.96624
3406.23995	0.96658
3404.18304	0.96662
3402.12613	0.96645
3400.06923	0.96657
3398.01232	0.96712
3395.95541	0.96766
3393.89850	0.96766
3391.84159	0.96703
3389.78469	0.96657
3387.72778	0.96723
3385.67087	0.96829
3383.61396	0.96851
3381.55705	0.96807
3379.50014	0.96766
3377.44324	0.96760
3375.38633	0.96806
3373.32942	0.96854
3371.27251	0.96860
3369.21560	0.96847
3367.15870	0.96845
3365.10179	0.96860
3363.04488	0.96864
3360.98797	0.96862
3358.93106	0.96869
3356.87415	0.96865
3354.81725	0.96858
3352.76034	0.96887
3350.70343	0.96933
3348.64652	0.96971
3346.58961	0.96997
3344.53271	0.96983
3342.47580	0.96955
3340.41889	0.96981
3338.36198	0.97049
3336.30507	0.97074
3334.24816	0.97045
3332.19126	0.97038
3330.13435	0.97068
3328.07744	0.97073
3326.02053	0.97067
3323.96362	0.97077
3321.90672	0.97076
3319.84981	0.97055
3317.79290	0.97025
3315.73599	0.97029
3313.67908	0.97098
3311.62217	0.97153
3309.56527	0.97133
3307.50836	0.97109
3305.45145	0.97131
3303.39454	0.97143
3301.33763	0.97113
3299.28073	0.97092
3297.22382	0.97109
3295.16691	0.97148
3293.11000	0.97163
3291.05309	0.97133
3288.99618	0.97114
3286.93928	0.97130
3284.88237	0.97171
3282.82546	0.97237
3280.76855	0.97288
3278.71164	0.97270
3276.65474	0.97206
3274.59783	0.97184
3272.54092	0.97224
3270.48401	0.97260
3268.42710	0.97238
3266.37019	0.97188
3264.31329	0.97190
3262.25638	0.97214
3260.19947	0.97170
3258.14256	0.97118
3256.08565	0.97141
3254.02875	0.97191
3251.97184	0.97220
3249.91493	0.97258
3247.85802	0.97333
3245.80111	0.97380
3243.74420	0.97340
3241.68730	0.97281
3239.63039	0.97256
3237.57348	0.97263
3235.51657	0.97299
3233.45966	0.97323
3231.40276	0.97327
3229.34585	0.97331
3227.28894	0.97298
3225.23203	0.97245
3223.17512	0.97236
3221.11821	0.97281
3219.06131	0.97334
3217.00440	0.97339
3214.94749	0.97303
3212.89058	0.97295
3210.83367	0.97306
3208.77677	0.97244
3206.71986	0.97157
3204.66295	0.97180
3202.60604	0.97293
3200.54913	0.97350
3198.49222	0.97323
3196.43532	0.97286
3194.37841	0.97293
3192.32150	0.97343
3190.26459	0.97375
3188.20768	0.97358
3186.15078	0.97342
3184.09387	0.97343
3182.03696	0.97332
3179.98005	0.97333
3177.92314	0.97385
3175.86623	0.97447
3173.80933	0.97447
3171.75242	0.97396
3169.69551	0.97361
3167.63860	0.97347
3165.58169	0.97313
3163.52479	0.97281
3161.46788	0.97290
3159.41097	0.97307
3157.35406	0.97311
3155.29715	0.97318
3153.24024	0.97315
3151.18334	0.97306
3149.12643	0.97334
3147.06952	0.97365
3145.01261	0.97362
3142.95570	0.97369
3140.89880	0.97366
3138.84189	0.97309
3136.78498	0.97261
3134.72807	0.97265
3132.67116	0.97299
3130.61425	0.97342
3128.55735	0.97385
3126.50044	0.97414
3124.44353	0.97398
3122.38662	0.97361
3120.32971	0.97365
3118.27281	0.97389
3116.21590	0.97381
3114.15899	0.97371
3112.10208	0.97413
3110.04517	0.97423
3107.98826	0.97353
3105.93136	0.97323
3103.87445	0.97361
3101.81754	0.97373
3099.76063	0.97370
3097.70372	0.97380
3095.64682	0.97359
3093.58991	0.97321
3091.53300	0.97315
3089.47609	0.97330
3087.41918	0.97318
3085.36227	0.97286
3083.30537	0.97302
3081.24846	0.97351
3079.19155	0.97356
3077.13464	0.97364
3075.07773	0.97405
3073.02083	0.97404
3070.96392	0.97345
3068.90701	0.97303
3066.85010	0.97305
3064.79319	0.97298
3062.73628	0.97276
3060.67938	0.97268
3058.62247	0.97278
3056.56556	0.97281
3054.50865	0.97285
3052.45174	0.97312
3050.39484	0.97304
3048.33793	0.97253
3046.28102	0.97232
3044.22411	0.97230
3042.16720	0.97212
3040.11029	0.97184
3038.05339	0.97165
3035.99648	0.97168
3033.93957	0.97185
3031.88266	0.97204
3029.82575	0.97190
3027.76885	0.97142
3025.71194	0.97112
3023.65503	0.97100
3021.59812	0.97065
3019.54121	0.97028
3017.48430	0.97018
3015.42740	0.97028
3013.37049	0.97061
3011.31358	0.97088
3009.25667	0.97080
3007.19976	0.97063
3005.14286	0.97064
3003.08595	0.97091
3001.02904	0.97101
2998.97213	0.97056
2996.91522	0.96965
2994.85831	0.96885
2992.80141	0.96866
2990.74450	0.96879
2988.68759	0.96878
2986.63068	0.96860
2984.57377	0.96856
2982.51687	0.96865
2980.45996	0.96865
2978.40305	0.96869
2976.34614	0.96849
2974.28923	0.96782
2972.23232	0.96697
2970.17542	0.96640
2968.11851	0.96628
2966.06160	0.96618
2964.00469	0.96576
2961.94778	0.96530
2959.89088	0.96517
2957.83397	0.96498
2955.77706	0.96449
2953.72015	0.96423
2951.66324	0.96418
2949.60633	0.96385
2947.54943	0.96325
2945.49252	0.96275
2943.43561	0.96258
2941.37870	0.96278
2939.32179	0.96311
2937.26489	0.96335
2935.20798	0.96357
2933.15107	0.96390
2931.09416	0.96432
2929.03725	0.96478
2926.98034	0.96527
2924.92344	0.96573
2922.86653	0.96580
2920.80962	0.96560
2918.75271	0.96553
2916.69580	0.96545
2914.63890	0.96530
2912.58199	0.96532
2910.52508	0.96513
2908.46817	0.96468
2906.41126	0.96472
2904.35435	0.96501
2902.29745	0.96488
2900.24054	0.96462
2898.18363	0.96464
2896.12672	0.96466
2894.06981	0.96443
2892.01291	0.96435
2889.95600	0.96436
2887.89909	0.96432
2885.84218	0.96460
2883.78527	0.96511
2881.72836	0.96544
2879.67146	0.96537
2877.61455	0.96512
2875.55764	0.96522
2873.50073	0.96563
2871.44382	0.96583
2869.38692	0.96580
2867.33001	0.96599
2865.27310	0.96641
2863.21619	0.96662
2861.15928	0.96662
2859.10237	0.96687
2857.04547	0.96752
2854.98856	0.96795
2852.93165	0.96817
2850.87474	0.96858
2848.81783	0.96920
2846.76093	0.96999
2844.70402	0.97056
2842.64711	0.97075
2840.59020	0.97078
2838.53329	0.97094
2836.47638	0.97111
2834.41948	0.97102
2832.36257	0.97102
2830.30566	0.97133
2828.24875	0.97171
2826.19184	0.97187
2824.13494	0.97152
2822.07803	0.97114
2820.02112	0.97139
2817.96421	0.97181
2815.90730	0.97185
2813.85039	0.97168
2811.79349	0.97143
2809.73658	0.97134
2807.67967	0.97162
2805.62276	0.97192
2803.56585	0.97216
2801.50895	0.97227
2799.45204	0.97212
2797.39513	0.97208
2795.33822	0.97233
2793.28131	0.97269
2791.22440	0.97299
2789.16750	0.97301
2787.11059	0.97286
2785.05368	0.97296
2782.99677	0.97321
2780.93986	0.97317
2778.88296	0.97285
2776.82605	0.97258
2774.76914	0.97253
2772.71223	0.97263
2770.65532	0.97291
2768.59841	0.97331
2766.54151	0.97337
2764.48460	0.97297
2762.42769	0.97246
2760.37078	0.97226
2758.31387	0.97252
2756.25697	0.97278
2754.20006	0.97287
2752.14315	0.97308
2750.08624	0.97337
2748.02933	0.97344
2745.97242	0.97320
2743.91552	0.97284
2741.85861	0.97261
2739.80170	0.97276
2737.74479	0.97316
2735.68788	0.97338
2733.63098	0.97333
2731.57407	0.97318
2729.51716	0.97299
2727.46025	0.97281
2725.40334	0.97281
2723.34643	0.97294
2721.28953	0.97296
2719.23262	0.97303
2717.17571	0.97307
2715.11880	0.97282
2713.06189	0.97255
2711.00499	0.97260
2708.94808	0.97295
2706.89117	0.97312
2704.83426	0.97299
2702.77735	0.97295
2700.72044	0.97284
2698.66354	0.97256
2696.60663	0.97252
2694.54972	0.97297
2692.49281	0.97356
2690.43590	0.97375
2688.37900	0.97363
2686.32209	0.97339
2684.26518	0.97310
2682.20827	0.97315
2680.15136	0.97351
2678.09445	0.97371
2676.03755	0.97349
2673.98064	0.97306
2671.92373	0.97267
2669.86682	0.97241
2667.80991	0.97238
2665.75301	0.97272
2663.69610	0.97323
2661.63919	0.97343
2659.58228	0.97323
2657.52537	0.97314
2655.46846	0.97321
2653.41156	0.97292
2651.35465	0.97254
2649.29774	0.97250
2647.24083	0.97268
2645.18392	0.97287
2643.12702	0.97311
2641.07011	0.97357
2639.01320	0.97393
2636.95629	0.97386
2634.89938	0.97373
2632.84247	0.97355
2630.78557	0.97328
2628.72866	0.97346
2626.67175	0.97391
2624.61484	0.97414
2622.55793	0.97434
2620.50103	0.97469
2618.44412	0.97502
2616.38721	0.97492
2614.33030	0.97442
2612.27339	0.97403
2610.21648	0.97389
2608.15958	0.97391
2606.10267	0.97404
2604.04576	0.97443
2601.98885	0.97492
2599.93194	0.97521
2597.87504	0.97525
2595.81813	0.97513
2593.76122	0.97489
2591.70431	0.97438
2589.64740	0.97380
2587.59049	0.97347
2585.53359	0.97378
2583.47668	0.97458
2581.41977	0.97503
2579.36286	0.97502
2577.30595	0.97481
2575.24905	0.97450
2573.19214	0.97410
2571.13523	0.97393
2569.07832	0.97443
2567.02141	0.97534
2564.96450	0.97585
2562.90760	0.97546
2560.85069	0.97449
2558.79378	0.97392
2556.73687	0.97418
2554.67996	0.97456
2552.62306	0.97482
2550.56615	0.97508
2548.50924	0.97529
2546.45233	0.97531
2544.39542	0.97523
2542.33851	0.97533
2540.28161	0.97507
2538.22470	0.97470
2536.16779	0.97503
2534.11088	0.97536
2532.05397	0.97494
2529.99707	0.97434
2527.94016	0.97431
2525.88325	0.97475
2523.82634	0.97541
2521.76943	0.97595
2519.71252	0.97608
2517.65562	0.97603
2515.59871	0.97576
2513.54180	0.97553
2511.48489	0.97571
2509.42798	0.97614
2507.37108	0.97662
2505.31417	0.97664
2503.25726	0.97630
2501.20035	0.97642
2499.14344	0.97667
2497.08653	0.97633
2495.02963	0.97596
2492.97272	0.97617
2490.91581	0.97639
2488.85890	0.97647
2486.80199	0.97658
2484.74509	0.97615
2482.68818	0.97556
2480.63127	0.97588
2478.57436	0.97622
2476.51745	0.97573
2474.46054	0.97543
2472.40364	0.97564
2470.34673	0.97573
2468.28982	0.97571
2466.23291	0.97621
2464.17600	0.97703
2462.11910	0.97717
2460.06219	0.97660
2458.00528	0.97587
2455.94837	0.97542
2453.89146	0.97570
2451.83455	0.97642
2449.77765	0.97692
2447.72074	0.97697
2445.66383	0.97651
2443.60692	0.97589
2441.55001	0.97572
2439.49311	0.97606
2437.43620	0.97662
2435.37929	0.97698
2433.32238	0.97665
2431.26547	0.97616
2429.20856	0.97617
2427.15166	0.97624
2425.09475	0.97586
2423.03784	0.97517
2420.98093	0.97469
2418.92402	0.97460
2416.86712	0.97491
2414.81021	0.97538
2412.75330	0.97584
2410.69639	0.97605
2408.63948	0.97584
2406.58257	0.97600
2404.52567	0.97648
2402.46876	0.97654
2400.41185	0.97623
2398.35494	0.97575
2396.29803	0.97567
2394.24113	0.97609
2392.18422	0.97632
2390.12731	0.97629
2388.07040	0.97645
2386.01349	0.97659
2383.95658	0.97631
2381.89968	0.97598
2379.84277	0.97613
2377.78586	0.97689
2375.72895	0.97739
2373.67204	0.97665
2371.61514	0.97562
2369.55823	0.97562
2367.50132	0.97630
2365.44441	0.97688
2363.38750	0.97723
2361.33059	0.97728
2359.27369	0.97732
2357.21678	0.97744
2355.15987	0.97714
2353.10296	0.97677
2351.04605	0.97672
2348.98915	0.97655
2346.93224	0.97618
2344.87533	0.97611
2342.81842	0.97621
2340.76151	0.97631
2338.70460	0.97666
2336.64770	0.97667
2334.59079	0.97632
2332.53388	0.97595
2330.47697	0.97565
2328.42006	0.97519
2326.36316	0.97452
2324.30625	0.97462
2322.24934	0.97551
2320.19243	0.97597
2318.13552	0.97569
2316.07861	0.97549
2314.02171	0.97582
2311.96480	0.97602
2309.90789	0.97581
2307.85098	0.97552
2305.79407	0.97511
2303.73717	0.97459
2301.68026	0.97444
2299.62335	0.97502
2297.56644	0.97597
2295.50953	0.97637
2293.45262	0.97603
2291.39572	0.97580
2289.33881	0.97587
2287.28190	0.97589
2285.22499	0.97594
2283.16808	0.97570
2281.11117	0.97530
2279.05427	0.97559
2276.99736	0.97612
2274.94045	0.97565
2272.88354	0.97497
2270.82663	0.97546
2268.76973	0.97631
2266.71282	0.97669
2264.65591	0.97698
2262.59900	0.97708
2260.54209	0.97688
2258.48518	0.97668
2256.42828	0.97694
2254.37137	0.97787
2252.31446	0.97801
2250.25755	0.97705
2248.20064	0.97605
2246.14374	0.97553
2244.08683	0.97622
2242.02992	0.97765
2239.97301	0.97864
2237.91610	0.97878
2235.85919	0.97867
2233.80229	0.97858
2231.74538	0.97787
2229.68847	0.97723
2227.63156	0.97797
2225.57465	0.97937
2223.51775	0.97959
2221.46084	0.97909
2219.40393	0.97947
2217.34702	0.98056
2215.29011	0.98117
2213.23320	0.98089
2211.17630	0.98023
2209.11939	0.97910
2207.06248	0.97766
2205.00557	0.97686
2202.94866	0.97712
2200.89176	0.97808
2198.83485	0.97909
2196.77794	0.98025
2194.72103	0.98091
2192.66412	0.98010
2190.60721	0.97923
2188.55031	0.97890
2186.49340	0.97869
2184.43649	0.97875
2182.37958	0.97897
2180.32267	0.97948
2178.26577	0.98019
2176.20886	0.98104
2174.15195	0.98074
2172.09504	0.97853
2170.03813	0.97708
2167.98122	0.97772
2165.92432	0.97779
2163.86741	0.97599
2161.81050	0.97408
2159.75359	0.97386
2157.69668	0.97675
2155.63978	0.98096
2153.58287	0.98218
2151.52596	0.98027
2149.46905	0.97897
2147.41214	0.97863
2145.35523	0.97769
2143.29833	0.97780
2141.24142	0.97891
2139.18451	0.97888
2137.12760	0.97797
2135.07069	0.97729
2133.01379	0.97748
2130.95688	0.97781
2128.89997	0.97678
2126.84306	0.97589
2124.78615	0.97703
2122.72924	0.97840
2120.67234	0.97835
2118.61543	0.97730
2116.55852	0.97638
2114.50161	0.97665
2112.44470	0.97725
2110.38780	0.97691
2108.33089	0.97656
2106.27398	0.97684
2104.21707	0.97741
2102.16016	0.97841
2100.10325	0.97885
2098.04635	0.97833
2095.98944	0.97832
2093.93253	0.97910
2091.87562	0.97952
2089.81871	0.97969
2087.76181	0.97953
2085.70490	0.97849
2083.64799	0.97742
2081.59108	0.97678
2079.53417	0.97654
2077.47726	0.97676
2075.42036	0.97756
2073.36345	0.97847
2071.30654	0.97937
2069.24963	0.98008
2067.19272	0.97978
2065.13582	0.97930
2063.07891	0.97890
2061.02200	0.97872
2058.96509	0.97964
2056.90818	0.98084
2054.85127	0.98061
2052.79437	0.97894
2050.73746	0.97752
2048.68055	0.97683
2046.62364	0.97631
2044.56673	0.97703
2042.50983	0.97905
2040.45292	0.97994
2038.39601	0.98020
2036.33910	0.98153
2034.28219	0.98248
2032.22528	0.98141
2030.16838	0.97805
2028.11147	0.97538
2026.05456	0.97664
2023.99765	0.97990
2021.94074	0.98249
2019.88384	0.98426
2017.82693	0.98566
2015.77002	0.98631
2013.71311	0.98485
2011.65620	0.98224
2009.59929	0.98149
2007.54239	0.98259
2005.48548	0.98248
2003.42857	0.98119
2001.37166	0.98054
1999.31475	0.97918
1997.25785	0.97734
1995.20094	0.97774
1993.14403	0.97975
1991.08712	0.98095
1989.03021	0.98143
1986.97330	0.98152
1984.91640	0.98122
1982.85949	0.98119
1980.80258	0.98115
1978.74567	0.98186
1976.68876	0.98361
1974.63186	0.98433
1972.57495	0.98348
1970.51804	0.98230
1968.46113	0.98136
1966.40422	0.98046
1964.34731	0.98020
1962.29041	0.98052
1960.23350	0.98108
1958.17659	0.98134
1956.11968	0.98140
1954.06277	0.98256
1952.00587	0.98351
1949.94896	0.98241
1947.89205	0.98119
1945.83514	0.98187
1943.77823	0.98341
1941.72132	0.98435
1939.66442	0.98390
1937.60751	0.98199
1935.55060	0.98039
1933.49369	0.98057
1931.43678	0.98167
1929.37988	0.98239
1927.32297	0.98204
1925.26606	0.98145
1923.20915	0.98108
1921.15224	0.98086
1919.09533	0.98130
1917.03843	0.98144
1914.98152	0.98111
1912.92461	0.98105
1910.86770	0.98097
1908.81079	0.98074
1906.75389	0.98034
1904.69698	0.98004
1902.64007	0.98073
1900.58316	0.98169
1898.52625	0.98150
1896.46934	0.98093
1894.41244	0.98143
1892.35553	0.98255
1890.29862	0.98283
1888.24171	0.98214
1886.18480	0.98172
1884.12790	0.98190
1882.07099	0.98205
1880.01408	0.98237
1877.95717	0.98288
1875.90026	0.98270
1873.84335	0.98191
1871.78645	0.98143
1869.72954	0.98173
1867.67263	0.98253
1865.61572	0.98301
1863.55881	0.98261
1861.50191	0.98202
1859.44500	0.98202
1857.38809	0.98252
1855.33118	0.98315
1853.27427	0.98331
1851.21736	0.98303
1849.16046	0.98283
1847.10355	0.98265
1845.04664	0.98249
1842.98973	0.98267
1840.93282	0.98274
1838.87592	0.98255
1836.81901	0.98241
1834.76210	0.98248
1832.70519	0.98263
1830.64828	0.98238
1828.59137	0.98165
1826.53447	0.98150
1824.47756	0.98196
1822.42065	0.98207
1820.36374	0.98192
1818.30683	0.98219
1816.24993	0.98261
1814.19302	0.98255
1812.13611	0.98207
1810.07920	0.98141
1808.02229	0.98092
1805.96538	0.98043
1803.90848	0.97993
1801.85157	0.97950
1799.79466	0.97898
1797.73775	0.97848
1795.68084	0.97819
1793.62394	0.97792
1791.56703	0.97719
1789.51012	0.97608
1787.45321	0.97489
1785.39630	0.97367
1783.33939	0.97189
1781.28249	0.96925
1779.22558	0.96588
1777.16867	0.96215
1775.11176	0.95792
1773.05485	0.95167
1770.99795	0.94220
1768.94104	0.93057
1766.88413	0.91688
1764.82722	0.90196
1762.77031	0.88429
1760.71340	0.86379
1758.65650	0.84552
1756.59959	0.82837
1754.54268	0.81365
1752.48577	0.80171
1750.42886	0.78838
1748.37196	0.77481
1746.31505	0.76416
1744.25814	0.75589
1742.20123	0.75008
1740.14432	0.74679
1738.08741	0.74647
1736.03051	0.74971
1733.97360	0.75585
1731.91669	0.76456
1729.85978	0.77557
1727.80287	0.78829
1725.74597	0.80163
1723.68906	0.81553
1721.63215	0.82886
1719.57524	0.84177
1717.51833	0.85621
1715.46142	0.87021
1713.40452	0.88135
1711.34761	0.89093
1709.29070	0.89955
1707.23379	0.90741
1705.17688	0.91453
1703.11998	0.92030
1701.06307	0.92561
1699.00616	0.93054
1696.94925	0.93404
1694.89234	0.93744
1692.83543	0.94080
1690.77853	0.94362
1688.72162	0.94586
1686.66471	0.94746
1684.60780	0.94885
1682.55089	0.95034
1680.49399	0.95194
1678.43708	0.95345
1676.38017	0.95464
1674.32326	0.95538
1672.26635	0.95601
1670.20944	0.95677
1668.15254	0.95762
1666.09563	0.95841
1664.03872	0.95860
1661.98181	0.95857
1659.92490	0.95906
1657.86800	0.95977
1655.81109	0.96041
1653.75418	0.96061
1651.69727	0.96043
1649.64036	0.96076
1647.58345	0.96117
1645.52655	0.96147
1643.46964	0.96184
1641.41273	0.96233
1639.35582	0.96285
1637.29891	0.96315
1635.24201	0.96320
1633.18510	0.96352
1631.12819	0.96417
1629.07128	0.96484
1627.01437	0.96534
1624.95746	0.96600
1622.90056	0.96689
1620.84365	0.96747
1618.78674	0.96763
1616.72983	0.96761
1614.67292	0.96800
1612.61602	0.96901
1610.55911	0.97004
1608.50220	0.97053
1606.44529	0.97056
1604.38838	0.97060
1602.33147	0.97078
1600.27457	0.97100
1598.21766	0.97132
1596.16075	0.97176
1594.10384	0.97191
1592.04693	0.97163
1589.99003	0.97146
1587.93312	0.97173
1585.87621	0.97206
1583.81930	0.97214
1581.76239	0.97237
1579.70548	0.97277
1577.64858	0.97277
1575.59167	0.97216
1573.53476	0.97203
1571.47785	0.97260
1569.42094	0.97302
1567.36404	0.97292
1565.30713	0.97298
1563.25022	0.97351
1561.19331	0.97407
1559.13640	0.97413
1557.07949	0.97392
1555.02259	0.97389
1552.96568	0.97379
1550.90877	0.97373
1548.85186	0.97365
1546.79495	0.97356
1544.73805	0.97364
1542.68114	0.97394
1540.62423	0.97418
1538.56732	0.97399
1536.51041	0.97399
1534.45350	0.97420
1532.39660	0.97430
1530.33969	0.97435
1528.28278	0.97449
1526.22587	0.97456
1524.16896	0.97448
1522.11206	0.97442
1520.05515	0.97458
1517.99824	0.97481
1515.94133	0.97486
1513.88442	0.97491
1511.82751	0.97514
1509.77061	0.97558
1507.71370	0.97559
1505.65679	0.97491
1503.59988	0.97503
1501.54297	0.97533
1499.48607	0.97528
1497.42916	0.97525
1495.37225	0.97545
1493.31534	0.97560
1491.25843	0.97549
1489.20152	0.97519
1487.14462	0.97504
1485.08771	0.97492
1483.03080	0.97460
1480.97389	0.97414
1478.91698	0.97385
1476.86008	0.97356
1474.80317	0.97272
1472.74626	0.97111
1470.68935	0.96957
1468.63244	0.96857
1466.57553	0.96715
1464.51863	0.96478
1462.46172	0.96266
1460.40481	0.96136
1458.34790	0.95970
1456.29099	0.95696
1454.23409	0.95494
1452.17718	0.95379
1450.12027	0.95286
1448.06336	0.95157
1446.00645	0.94958
1443.94954	0.94757
1441.89264	0.94589
1439.83573	0.94435
1437.77882	0.94236
1435.72191	0.94008
1433.66500	0.93903
1431.60810	0.93888
1429.55119	0.93927
1427.49428	0.94058
1425.43737	0.94229
1423.38046	0.94365
1421.32355	0.94468
1419.26665	0.94594
1417.20974	0.94761
1415.15283	0.94933
1413.09592	0.95073
1411.03901	0.95150
1408.98211	0.95193
1406.92520	0.95239
1404.86829	0.95276
1402.81138	0.95302
1400.75447	0.95285
1398.69756	0.95177
1396.64066	0.94975
1394.58375	0.94619
1392.52684	0.94140
1390.46993	0.93611
1388.41302	0.92912
1386.35612	0.92004
1384.29921	0.91065
1382.24230	0.90137
1380.18539	0.89181
1378.12848	0.88228
1376.07157	0.87298
1374.01467	0.86365
1371.95776	0.85576
1369.90085	0.85071
1367.84394	0.84881
1365.78703	0.85128
1363.73013	0.85914
1361.67322	0.87247
1359.61631	0.88837
1357.55940	0.90400
1355.50249	0.91801
1353.44558	0.92907
1351.38868	0.93681
1349.33177	0.94208
1347.27486	0.94570
1345.21795	0.94822
1343.16104	0.95006
1341.10414	0.95141
1339.04723	0.95249
1336.99032	0.95322
1334.93341	0.95333
1332.87650	0.95317
1330.81959	0.95310
1328.76269	0.95294
1326.70578	0.95252
1324.64887	0.95202
1322.59196	0.95167
1320.53505	0.95168
1318.47815	0.95192
1316.42124	0.95203
1314.36433	0.95225
1312.30742	0.95277
1310.25051	0.95336
1308.19360	0.95383
1306.13670	0.95397
1304.07979	0.95369
1302.02288	0.95311
1299.96597	0.95246
1297.90906	0.95173
1295.85216	0.95059
1293.79525	0.94889
1291.73834	0.94689
1289.68143	0.94478
1287.62452	0.94237
1285.56761	0.93979
1283.51071	0.93704
1281.45380	0.93362
1279.39689	0.92934
1277.33998	0.92462
1275.28307	0.91954
1273.22617	0.91373
1271.16926	0.90712
1269.11235	0.90015
1267.05544	0.89297
1264.99853	0.88506
1262.94162	0.87603
1260.88472	0.86582
1258.82781	0.85490
1256.77090	0.84362
1254.71399	0.83171
1252.65708	0.81912
1250.60018	0.80612
1248.54327	0.79284
1246.48636	0.77913
1244.42945	0.76485
1242.37254	0.75035
1240.31563	0.73611
1238.25873	0.72230
1236.20182	0.70893
1234.14491	0.69631
1232.08800	0.68480
1230.03109	0.67470
1227.97419	0.66637
1225.91728	0.65985
1223.86037	0.65528
1221.80346	0.65286
1219.74655	0.65242
1217.68964	0.65405
1215.63274	0.65817
1213.57583	0.66539
1211.51892	0.67636
1209.46201	0.69120
1207.40510	0.70974
1205.34820	0.73137
1203.29129	0.75501
1201.23438	0.77935
1199.17747	0.80285
1197.12056	0.82388
1195.06365	0.84165
1193.00675	0.85618
1190.94984	0.86740
1188.89293	0.87524
1186.83602	0.88027
1184.77911	0.88308
1182.72221	0.88399
1180.66530	0.88343
1178.60839	0.88166
1176.55148	0.87894
1174.49457	0.87593
1172.43766	0.87331
1170.38076	0.87105
1168.32385	0.86912
1166.26694	0.86810
1164.21003	0.86813
1162.15312	0.86880
1160.09622	0.87016
1158.03931	0.87247
1155.98240	0.87554
1153.92549	0.87903
1151.86858	0.88265
1149.81167	0.88583
1147.75477	0.88806
1145.69786	0.88946
1143.64095	0.89018
1141.58404	0.88972
1139.52713	0.88791
1137.47023	0.88524
1135.41332	0.88212
1133.35641	0.87878
1131.29950	0.87547
1129.24259	0.87253
1127.18568	0.87000
1125.12878	0.86767
1123.07187	0.86595
1121.01496	0.86549
1118.95805	0.86572
1116.90114	0.86560
1114.84424	0.86509
1112.78733	0.86453
1110.73042	0.86388
1108.67351	0.86296
1106.61660	0.86151
1104.55969	0.85945
1102.50279	0.85665
1100.44588	0.85309
1098.38897	0.84886
1096.33206	0.84410
1094.27515	0.83866
1092.21825	0.83257
1090.16134	0.82616
1088.10443	0.81904
1086.04752	0.81097
1083.99061	0.80277
1081.93370	0.79507
1079.87680	0.78764
1077.81989	0.78029
1075.76298	0.77313
1073.70607	0.76619
1071.64916	0.75922
1069.59226	0.75206
1067.53535	0.74533
1065.47844	0.73933
1063.42153	0.73319
1061.36462	0.72654
1059.30771	0.71948
1057.25081	0.71171
1055.19390	0.70338
1053.13699	0.69507
1051.08008	0.68716
1049.02317	0.67977
1046.96627	0.67291
1044.90936	0.66655
1042.85245	0.66067
1040.79554	0.65516
1038.73863	0.64997
1036.68172	0.64552
1034.62482	0.64227
1032.56791	0.64058
1030.51100	0.64135
1028.45409	0.64556
1026.39718	0.65290
1024.34028	0.66257
1022.28337	0.67395
1020.22646	0.68617
1018.16955	0.69847
1016.11264	0.71042
1014.05573	0.72212
1011.99883	0.73355
1009.94192	0.74458
1007.88501	0.75541
1005.82810	0.76581
1003.77119	0.77555
1001.71429	0.78465
999.65738	0.79262
997.60047	0.79959
995.54356	0.80632
993.48665	0.81240
991.42974	0.81730
989.37284	0.82152
987.31593	0.82549
985.25902	0.82919
983.20211	0.83277
981.14520	0.83658
979.08830	0.84074
977.03139	0.84530
974.97448	0.85030
972.91757	0.85561
970.86066	0.86114
968.80375	0.86679
966.74685	0.87198
964.68994	0.87597
962.63303	0.87889
960.57612	0.88121
958.51921	0.88306
956.46231	0.88449
954.40540	0.88561
952.34849	0.88689
950.29158	0.88880
948.23467	0.89103
946.17776	0.89316
944.12086	0.89533
942.06395	0.89738
940.00704	0.89905
937.95013	0.90028
935.89322	0.90104
933.83632	0.90127
931.77941	0.90057
929.72250	0.89929
927.66559	0.89833
925.60868	0.89756
923.55177	0.89609
921.49487	0.89377
919.43796	0.89151
917.38105	0.88995
915.32414	0.88884
913.26723	0.88768
911.21033	0.88610
909.15342	0.88369
907.09651	0.88087
905.03960	0.87880
902.98269	0.87775
900.92578	0.87730
898.86888	0.87758
896.81197	0.87913
894.75506	0.88203
892.69815	0.88581
890.64124	0.88960
888.58434	0.89243
886.52743	0.89461
884.47052	0.89695
882.41361	0.89912
880.35670	0.90090
878.29979	0.90308
876.24289	0.90593
874.18598	0.90910
872.12907	0.91284
870.07216	0.91661
868.01525	0.91983
865.95835	0.92308
863.90144	0.92615
861.84453	0.92840
859.78762	0.93015
857.73071	0.93175
855.67380	0.93302
853.61690	0.93379
851.55999	0.93410
849.50308	0.93387
847.44617	0.93295
845.38926	0.93166
843.33236	0.93051
841.27545	0.92979
839.21854	0.92944
837.16163	0.92977
835.10472	0.93103
833.04781	0.93263
830.99091	0.93400
828.93400	0.93551
826.87709	0.93790
824.82018	0.94052
822.76327	0.94246
820.70637	0.94412
818.64946	0.94571
816.59255	0.94675
814.53564	0.94719
812.47873	0.94768
810.42182	0.94862
808.36492	0.94945
806.30801	0.94976
804.25110	0.94967
802.19419	0.94928
800.13728	0.94925
798.08038	0.94996
796.02347	0.95067
793.96656	0.95096
791.90965	0.95143
789.85274	0.95218
787.79583	0.95299
785.73893	0.95365
783.68202	0.95344
781.62511	0.95298
779.56820	0.95357
777.51129	0.95415
775.45439	0.95412
773.39748	0.95446
771.34057	0.95509
769.28366	0.95537
767.22675	0.95510
765.16984	0.95464
763.11294	0.95446
761.05603	0.95464
758.99912	0.95510
756.94221	0.95555
754.88530	0.95593
752.82839	0.95661
750.77149	0.95699
748.71458	0.95667
746.65767	0.95682
744.60076	0.95719
742.54385	0.95678
740.48695	0.95666
738.43004	0.95719
736.37313	0.95707
734.31622	0.95631
732.25931	0.95562
730.20240	0.95452
728.14550	0.95342
726.08859	0.95314
724.03168	0.95275
721.97477	0.95194
719.91786	0.95139
717.86096	0.95072
715.80405	0.94986
713.74714	0.94938
711.69023	0.94919
709.63332	0.94884
707.57641	0.94816
705.51951	0.94752
703.46260	0.94710
701.40569	0.94656
699.34878	0.94617
697.29187	0.94596
695.23497	0.94474
693.17806	0.94233
691.12115	0.94027
689.06424	0.93977
687.00733	0.94053
684.95042	0.94150
682.89352	0.94159
680.83661	0.94062
678.77970	0.93973
676.72279	0.93978
674.66588	0.94072
672.60898	0.94214
670.55207	0.94305
668.49516	0.94262
666.43825	0.94158
664.38134	0.94096
662.32443	0.94048
660.26753	0.93978
658.21062	0.93854
656.15371	0.93720
654.09680	0.93620
652.03989	0.93518
649.98299	0.93389
647.92608	0.93241
645.86917	0.93065
643.81226	0.92896
641.75535	0.92824
639.69844	0.92765
637.64154	0.92567
635.58463	0.92291
633.52772	0.92099
631.47081	0.91949
629.41390	0.91784
627.35700	0.91737
625.30009	0.91743
623.24318	0.91674
621.18627	0.91553
619.12936	0.91260
617.07245	0.90799
615.01555	0.90368
612.95864	0.89977
610.90173	0.89463
608.84482	0.88695
606.78791	0.87805
604.73101	0.87099
602.67410	0.86800
600.61719	0.86983
598.56028	0.87531
596.50337	0.88214
594.44646	0.88879
592.38956	0.89450
590.33265	0.89976
588.27574	0.90543
586.21883	0.91032
584.16192	0.91374
582.10502	0.91725
580.04811	0.92000
577.99120	0.92026
575.93429	0.92000
573.87738	0.92040
571.82047	0.92072
569.76357	0.92058
567.70666	0.91880
565.64975	0.91510
563.59284	0.91240
561.53593	0.91178
559.47903	0.91122
557.42212	0.91100
555.36521	0.91237
553.30830	0.91455
551.25139	0.91622
549.19448	0.91701
547.13758	0.91789
545.08067	0.91978
543.02376	0.92180
540.96685	0.92200
538.90994	0.92123
536.85304	0.92181
534.79613	0.92317
532.73922	0.92370
530.68231	0.92348
528.62540	0.92330
526.56849	0.92247
524.51159	0.92025
522.45468	0.91826
520.39777	0.91756
518.34086	0.91767
516.28395	0.91799
514.22705	0.91747
512.17014	0.91618
510.11323	0.91560
508.05632	0.91528
505.99941	0.91515
503.94250	0.91600
501.88560	0.91541
499.82869	0.91215
497.77178	0.90902
495.71487	0.90775
493.65796	0.90733
491.60106	0.90622
489.54415	0.90594
487.48724	0.90754
485.43033	0.90813
483.37342	0.90716
481.31651	0.90624
479.25961	0.90513
477.20270	0.90349
475.14579	0.90155
473.08888	0.90031
471.03197	0.90004
468.97507	0.89949
466.91816	0.89857
464.86125	0.89774
462.80434	0.89642
460.74743	0.89444
458.69052	0.89316
456.63362	0.89394
454.57671	0.89444
452.51980	0.89267
450.46289	0.89089
448.40598	0.89069
446.34908	0.89081
444.29217	0.89025
442.23526	0.88970
440.17835	0.89032
438.12144	0.89303
436.06453	0.89672
434.00763	0.89804
431.95072	0.89683
429.89381	0.89778
427.83690	0.90350
425.77999	0.91021
423.72309	0.91346
421.66618	0.91370
419.60927	0.91245
417.55236	0.90769
415.49545	0.90274
413.43854	0.90065
411.38164	0.90061
409.32473	0.90228
407.26782	0.90491
405.21091	0.90600
403.15400	0.90422
401.09710	0.90087
399.04019	0.89811
