3996.57260	0.98061
3994.51569	0.98113
3992.45878	0.98082
3990.40188	0.98037
3988.34497	0.98023
3986.28806	0.98041
3984.23115	0.98056
3982.17424	0.98010
3980.11733	0.97938
3978.06043	0.97946
3976.00352	0.98045
3973.94661	0.98119
3971.88970	0.98108
3969.83279	0.98070
3967.77589	0.98046
3965.71898	0.98046
3963.66207	0.98076
3961.60516	0.98095
3959.54825	0.98062
3957.49134	0.98049
3955.43444	0.98100
3953.37753	0.98140
3951.32062	0.98167
3949.26371	0.98184
3947.20680	0.98136
3945.14990	0.98101
3943.09299	0.98109
3941.03608	0.98076
3938.97917	0.98024
3936.92226	0.98010
3934.86535	0.98017
3932.80845	0.98017
3930.75154	0.98024
3928.69463	0.98050
3926.63772	0.98059
3924.58081	0.98012
3922.52391	0.97947
3920.46700	0.97947
3918.41009	0.98012
3916.35318	0.98068
3914.29627	0.98093
3912.23936	0.98096
3910.18246	0.98061
3908.12555	0.98035
3906.06864	0.98114
3904.01173	0.98251
3901.95482	0.98240
3899.89792	0.98124
3897.84101	0.98081
3895.78410	0.98081
3893.72719	0.98093
3891.67028	0.98084
3889.61337	0.98011
3887.55647	0.97936
3885.49956	0.97884
3883.44265	0.97900
3881.38574	0.98027
3879.32883	0.98132
3877.27193	0.98158
3875.21502	0.98158
3873.15811	0.98120
3871.10120	0.98083
3869.04429	0.98098
3866.98738	0.98143
3864.93048	0.98123
3862.87357	0.98059
3860.81666	0.98055
3858.75975	0.98071
3856.70284	0.98106
3854.64594	0.98159
3852.58903	0.98175
3850.53212	0.98198
3848.47521	0.98205
3846.41830	0.98179
3844.36139	0.98151
3842.30449	0.98135
3840.24758	0.98163
3838.19067	0.98231
3836.13376	0.98221
3834.07685	0.98155
3832.01995	0.98146
3829.96304	0.98186
3827.90613	0.98206
3825.84922	0.98155
3823.79231	0.98082
3821.73540	0.98049
3819.67850	0.98074
3817.62159	0.98127
3815.56468	0.98066
3813.50777	0.97916
3811.45086	0.97869
3809.39396	0.97947
3807.33705	0.98037
3805.28014	0.98051
3803.22323	0.98091
3801.16632	0.98188
3799.10941	0.98195
3797.05251	0.98100
3794.99560	0.98058
3792.93869	0.98120
3790.88178	0.98155
3788.82487	0.98137
3786.76796	0.98147
3784.71106	0.98177
3782.65415	0.98197
3780.59724	0.98211
3778.54033	0.98150
3776.48342	0.98044
3774.42652	0.97979
3772.36961	0.97960
3770.31270	0.98017
3768.25579	0.98110
3766.19888	0.98134
3764.14197	0.98120
3762.08507	0.98125
3760.02816	0.98105
3757.97125	0.98055
3755.91434	0.98053
3753.85743	0.98117
3751.80053	0.98216
3749.74362	0.98211
3747.68671	0.98134
3745.62980	0.98162
3743.57289	0.98190
3741.51598	0.98136
3739.45908	0.98100
3737.40217	0.98076
3735.34526	0.98088
3733.28835	0.98176
3731.23144	0.98221
3729.17454	0.98227
3727.11763	0.98257
3725.06072	0.98226
3723.00381	0.98171
3720.94690	0.98177
3718.88999	0.98137
3716.83309	0.98078
3714.77618	0.98094
3712.71927	0.98169
3710.66236	0.98220
3708.60545	0.98202
3706.54855	0.98203
3704.49164	0.98257
3702.43473	0.98270
3700.37782	0.98187
3698.32091	0.98138
3696.26400	0.98197
3694.20710	0.98271
3692.15019	0.98256
3690.09328	0.98173
3688.03637	0.98112
3685.97946	0.98085
3683.92256	0.98056
3681.86565	0.98040
3679.80874	0.98060
3677.75183	0.98134
3675.69492	0.98238
3673.63801	0.98285
3671.58111	0.98271
3669.52420	0.98239
3667.46729	0.98195
3665.41038	0.98145
3663.35347	0.98102
3661.29657	0.98084
3659.23966	0.98122
3657.18275	0.98156
3655.12584	0.98111
3653.06893	0.98075
3651.01202	0.98087
3648.95512	0.98089
3646.89821	0.98087
3644.84130	0.98128
3642.78439	0.98135
3640.72748	0.98084
3638.67058	0.98069
3636.61367	0.98093
3634.55676	0.98076
3632.49985	0.98093
3630.44294	0.98184
3628.38603	0.98198
3626.32913	0.98178
3624.27222	0.98188
3622.21531	0.98141
3620.15840	0.98091
3618.10149	0.98108
3616.04459	0.98149
3613.98768	0.98173
3611.93077	0.98138
3609.87386	0.98041
3607.81695	0.97931
3605.76004	0.97848
3603.70314	0.97805
3601.64623	0.97788
3599.58932	0.97784
3597.53241	0.97789
3595.47550	0.97743
3593.41860	0.97666
3591.36169	0.97717
3589.30478	0.97857
3587.24787	0.97903
3585.19096	0.97811
3583.13405	0.97698
3581.07715	0.97635
3579.02024	0.97609
3576.96333	0.97559
3574.90642	0.97442
3572.84951	0.97326
3570.79261	0.97315
3568.73570	0.97353
3566.67879	0.97341
3564.62188	0.97303
3562.56497	0.97257
3560.50806	0.97164
3558.45116	0.97035
3556.39425	0.96913
3554.33734	0.96831
3552.28043	0.96779
3550.22352	0.96747
3548.16662	0.96788
3546.10971	0.96896
3544.05280	0.96931
3541.99589	0.96867
3539.93898	0.96793
3537.88207	0.96669
3535.82517	0.96522
3533.76826	0.96447
3531.71135	0.96407
3529.65444	0.96366
3527.59753	0.96343
3525.54063	0.96329
3523.48372	0.96292
3521.42681	0.96240
3519.36990	0.96210
3517.31299	0.96189
3515.25608	0.96159
3513.19918	0.96144
3511.14227	0.96097
3509.08536	0.95990
3507.02845	0.95930
3504.97154	0.95917
3502.91464	0.95878
3500.85773	0.95835
3498.80082	0.95821
3496.74391	0.95819
3494.68700	0.95821
3492.63009	0.95819
3490.57319	0.95801
3488.51628	0.95780
3486.45937	0.95762
3484.40246	0.95697
3482.34555	0.95592
3480.28865	0.95515
3478.23174	0.95500
3476.17483	0.95547
3474.11792	0.95581
3472.06101	0.95533
3470.00410	0.95461
3467.94720	0.95441
3465.89029	0.95477
3463.83338	0.95521
3461.77647	0.95523
3459.71956	0.95478
3457.66266	0.95444
3455.60575	0.95444
3453.54884	0.95449
3451.49193	0.95480
3449.43502	0.95530
3447.37811	0.95564
3445.32121	0.95586
3443.26430	0.95580
3441.20739	0.95558
3439.15048	0.95577
3437.09357	0.95615
3435.03667	0.95654
3432.97976	0.95710
3430.92285	0.95738
3428.86594	0.95702
3426.80903	0.95638
3424.75212	0.95614
3422.69522	0.95666
3420.63831	0.95723
3418.58140	0.95737
3416.52449	0.95783
3414.46758	0.95860
3412.41068	0.95862
3410.35377	0.95827
3408.29686	0.95862
3406.23995	0.95891
3404.18304	0.95873
3402.12613	0.95874
3400.06923	0.95898
3398.01232	0.95931
3395.95541	0.95969
3393.89850	0.96001
3391.84159	0.96016
3389.78469	0.96044
3387.72778	0.96111
3385.67087	0.96160
3383.61396	0.96167
3381.55705	0.96151
3379.50014	0.96107
3377.44324	0.96082
3375.38633	0.96129
3373.32942	0.96186
3371.27251	0.96230
3369.21560	0.96287
3367.15870	0.96312
3365.10179	0.96273
3363.04488	0.96260
3360.98797	0.96309
3358.93106	0.96369
3356.87415	0.96424
3354.81725	0.96441
3352.76034	0.96425
3350.70343	0.96421
3348.64652	0.96424
3346.58961	0.96445
3344.53271	0.96515
3342.47580	0.96592
3340.41889	0.96630
3338.36198	0.96634
3336.30507	0.96621
3334.24816	0.96606
3332.19126	0.96601
3330.13435	0.96630
3328.07744	0.96655
3326.02053	0.96656
3323.96362	0.96676
3321.90672	0.96705
3319.84981	0.96750
3317.79290	0.96828
3315.73599	0.96855
3313.67908	0.96800
3311.62217	0.96738
3309.56527	0.96732
3307.50836	0.96756
3305.45145	0.96780
3303.39454	0.96826
3301.33763	0.96880
3299.28073	0.96912
3297.22382	0.96912
3295.16691	0.96906
3293.11000	0.96925
3291.05309	0.96964
3288.99618	0.97008
3286.93928	0.97027
3284.88237	0.97024
3282.82546	0.97031
3280.76855	0.97059
3278.71164	0.97045
3276.65474	0.96971
3274.59783	0.96931
3272.54092	0.96942
3270.48401	0.96973
3268.42710	0.97031
3266.37019	0.97065
3264.31329	0.97055
3262.25638	0.97074
3260.19947	0.97145
3258.14256	0.97183
3256.08565	0.97144
3254.02875	0.97122
3251.97184	0.97179
3249.91493	0.97246
3247.85802	0.97283
3245.80111	0.97306
3243.74420	0.97291
3241.68730	0.97249
3239.63039	0.97218
3237.57348	0.97198
3235.51657	0.97208
3233.45966	0.97250
3231.40276	0.97345
3229.34585	0.97466
3227.28894	0.97486
3225.23203	0.97419
3223.17512	0.97358
3221.11821	0.97321
3219.06131	0.97337
3217.00440	0.97386
3214.94749	0.97397
3212.89058	0.97371
3210.83367	0.97357
3208.77677	0.97363
3206.71986	0.97379
3204.66295	0.97416
3202.60604	0.97454
3200.54913	0.97458
3198.49222	0.97458
3196.43532	0.97510
3194.37841	0.97564
3192.32150	0.97560
3190.26459	0.97531
3188.20768	0.97508
3186.15078	0.97493
3184.09387	0.97471
3182.03696	0.97471
3179.98005	0.97528
3177.92314	0.97563
3175.86623	0.97559
3173.80933	0.97533
3171.75242	0.97458
3169.69551	0.97441
3167.63860	0.97511
3165.58169	0.97533
3163.52479	0.97519
3161.46788	0.97547
3159.41097	0.97587
3157.35406	0.97618
3155.29715	0.97650
3153.24024	0.97664
3151.18334	0.97663
3149.12643	0.97657
3147.06952	0.97654
3145.01261	0.97663
3142.95570	0.97652
3140.89880	0.97618
3138.84189	0.97596
3136.78498	0.97620
3134.72807	0.97666
3132.67116	0.97679
3130.61425	0.97666
3128.55735	0.97674
3126.50044	0.97691
3124.44353	0.97704
3122.38662	0.97721
3120.32971	0.97711
3118.27281	0.97676
3116.21590	0.97682
3114.15899	0.97711
3112.10208	0.97679
3110.04517	0.97637
3107.98826	0.97667
3105.93136	0.97699
3103.87445	0.97679
3101.81754	0.97672
3099.76063	0.97698
3097.70372	0.97705
3095.64682	0.97692
3093.58991	0.97681
3091.53300	0.97687
3089.47609	0.97690
3087.41918	0.97673
3085.36227	0.97680
3083.30537	0.97713
3081.24846	0.97740
3079.19155	0.97736
3077.13464	0.97700
3075.07773	0.97683
3073.02083	0.97715
3070.96392	0.97749
3068.90701	0.97759
3066.85010	0.97752
3064.79319	0.97716
3062.73628	0.97687
3060.67938	0.97720
3058.62247	0.97767
3056.56556	0.97739
3054.50865	0.97657
3052.45174	0.97592
3050.39484	0.97579
3048.33793	0.97627
3046.28102	0.97663
3044.22411	0.97659
3042.16720	0.97690
3040.11029	0.97756
3038.05339	0.97765
3035.99648	0.97704
3033.93957	0.97660
3031.88266	0.97678
3029.82575	0.97720
3027.76885	0.97743
3025.71194	0.97731
3023.65503	0.97704
3021.59812	0.97671
3019.54121	0.97654
3017.48430	0.97668
3015.42740	0.97677
3013.37049	0.97666
3011.31358	0.97677
3009.25667	0.97718
3007.19976	0.97707
3005.14286	0.97648
3003.08595	0.97602
3001.02904	0.97550
2998.97213	0.97528
2996.91522	0.97551
2994.85831	0.97542
2992.80141	0.97492
2990.74450	0.97480
2988.68759	0.97508
2986.63068	0.97481
2984.57377	0.97431
2982.51687	0.97438
2980.45996	0.97462
2978.40305	0.97439
2976.34614	0.97374
2974.28923	0.97332
2972.23232	0.97306
2970.17542	0.97256
2968.11851	0.97184
2966.06160	0.97120
2964.00469	0.97116
2961.94778	0.97137
2959.89088	0.97104
2957.83397	0.97036
2955.77706	0.96991
2953.72015	0.96988
2951.66324	0.96983
2949.60633	0.96966
2947.54943	0.96985
2945.49252	0.97006
2943.43561	0.96977
2941.37870	0.96936
2939.32179	0.96906
2937.26489	0.96878
2935.20798	0.96847
2933.15107	0.96826
2931.09416	0.96842
2929.03725	0.96868
2926.98034	0.96860
2924.92344	0.96825
2922.86653	0.96810
2920.80962	0.96843
2918.75271	0.96882
2916.69580	0.96889
2914.63890	0.96886
2912.58199	0.96870
2910.52508	0.96846
2908.46817	0.96849
2906.41126	0.96869
2904.35435	0.96886
2902.29745	0.96888
2900.24054	0.96848
2898.18363	0.96768
2896.12672	0.96709
2894.06981	0.96702
2892.01291	0.96690
2889.95600	0.96661
2887.89909	0.96659
2885.84218	0.96633
2883.78527	0.96591
2881.72836	0.96642
2879.67146	0.96741
2877.61455	0.96793
2875.55764	0.96809
2873.50073	0.96823
2871.44382	0.96824
2869.38692	0.96798
2867.33001	0.96785
2865.27310	0.96818
2863.21619	0.96869
2861.15928	0.96911
2859.10237	0.96943
2857.04547	0.96986
2854.98856	0.97046
2852.93165	0.97098
2850.87474	0.97142
2848.81783	0.97198
2846.76093	0.97240
2844.70402	0.97247
2842.64711	0.97241
2840.59020	0.97247
2838.53329	0.97301
2836.47638	0.97380
2834.41948	0.97416
2832.36257	0.97435
2830.30566	0.97464
2828.24875	0.97465
2826.19184	0.97441
2824.13494	0.97432
2822.07803	0.97437
2820.02112	0.97441
2817.96421	0.97458
2815.90730	0.97475
2813.85039	0.97487
2811.79349	0.97515
2809.73658	0.97556
2807.67967	0.97583
2805.62276	0.97581
2803.56585	0.97563
2801.50895	0.97539
2799.45204	0.97537
2797.39513	0.97566
2795.33822	0.97584
2793.28131	0.97586
2791.22440	0.97606
2789.16750	0.97633
2787.11059	0.97632
2785.05368	0.97599
2782.99677	0.97567
2780.93986	0.97581
2778.88296	0.97637
2776.82605	0.97675
2774.76914	0.97663
2772.71223	0.97622
2770.65532	0.97591
2768.59841	0.97579
2766.54151	0.97572
2764.48460	0.97572
2762.42769	0.97585
2760.37078	0.97626
2758.31387	0.97677
2756.25697	0.97693
2754.20006	0.97676
2752.14315	0.97653
2750.08624	0.97625
2748.02933	0.97596
2745.97242	0.97594
2743.91552	0.97634
2741.85861	0.97666
2739.80170	0.97634
2737.74479	0.97590
2735.68788	0.97599
2733.63098	0.97640
2731.57407	0.97662
2729.51716	0.97654
2727.46025	0.97644
2725.40334	0.97640
2723.34643	0.97632
2721.28953	0.97623
2719.23262	0.97620
2717.17571	0.97643
2715.11880	0.97686
2713.06189	0.97700
2711.00499	0.97677
2708.94808	0.97684
2706.89117	0.97701
2704.83426	0.97686
2702.77735	0.97670
2700.72044	0.97668
2698.66354	0.97667
2696.60663	0.97666
2694.54972	0.97667
2692.49281	0.97690
2690.43590	0.97722
2688.37900	0.97723
2686.32209	0.97712
2684.26518	0.97698
2682.20827	0.97676
2680.15136	0.97677
2678.09445	0.97715
2676.03755	0.97754
2673.98064	0.97773
2671.92373	0.97776
2669.86682	0.97761
2667.80991	0.97721
2665.75301	0.97670
2663.69610	0.97656
2661.63919	0.97676
2659.58228	0.97674
2657.52537	0.97661
2655.46846	0.97669
2653.41156	0.97674
2651.35465	0.97672
2649.29774	0.97690
2647.24083	0.97698
2645.18392	0.97662
2643.12702	0.97620
2641.07011	0.97605
2639.01320	0.97600
2636.95629	0.97606
2634.89938	0.97621
2632.84247	0.97638
2630.78557	0.97648
2628.72866	0.97647
2626.67175	0.97654
2624.61484	0.97687
2622.55793	0.97729
2620.50103	0.97740
2618.44412	0.97718
2616.38721	0.97698
2614.33030	0.97687
2612.27339	0.97683
2610.21648	0.97694
2608.15958	0.97708
2606.10267	0.97722
2604.04576	0.97756
2601.98885	0.97782
2599.93194	0.97764
2597.87504	0.97750
2595.81813	0.97779
2593.76122	0.97810
2591.70431	0.97805
2589.64740	0.97790
2587.59049	0.97796
2585.53359	0.97825
2583.47668	0.97842
2581.41977	0.97817
2579.36286	0.97805
2577.30595	0.97828
2575.24905	0.97821
2573.19214	0.97793
2571.13523	0.97788
2569.07832	0.97799
2567.02141	0.97822
2564.96450	0.97835
2562.90760	0.97807
2560.85069	0.97785
2558.79378	0.97805
2556.73687	0.97835
2554.67996	0.97868
2552.62306	0.97891
2550.56615	0.97892
2548.50924	0.97852
2546.45233	0.97808
2544.39542	0.97828
2542.33851	0.97862
2540.28161	0.97868
2538.22470	0.97864
2536.16779	0.97853
2534.11088	0.97864
2532.05397	0.97938
2529.99707	0.98008
2527.94016	0.97972
2525.88325	0.97898
2523.82634	0.97898
2521.76943	0.97892
2519.71252	0.97804
2517.65562	0.97764
2515.59871	0.97833
2513.54180	0.97915
2511.48489	0.97947
2509.42798	0.97926
2507.37108	0.97901
2505.31417	0.97913
2503.25726	0.97921
2501.20035	0.97900
2499.14344	0.97869
2497.08653	0.97855
2495.02963	0.97884
2492.97272	0.97900
2490.91581	0.97873
2488.85890	0.97873
2486.80199	0.97913
2484.74509	0.97932
2482.68818	0.97903
2480.63127	0.97891
2478.57436	0.97934
2476.51745	0.97985
2474.46054	0.97997
2472.40364	0.97965
2470.34673	0.97916
2468.28982	0.97882
2466.23291	0.97863
2464.17600	0.97850
2462.11910	0.97848
2460.06219	0.97880
2458.00528	0.97950
2455.94837	0.98002
2453.89146	0.97999
2451.83455	0.97972
2449.77765	0.97977
2447.72074	0.98005
2445.66383	0.97991
2443.60692	0.97941
2441.55001	0.97919
2439.49311	0.97927
2437.43620	0.97905
2435.37929	0.97868
2433.32238	0.97862
2431.26547	0.97889
2429.20856	0.97909
2427.15166	0.97878
2425.09475	0.97848
2423.03784	0.97861
2420.98093	0.97889
2418.92402	0.97908
2416.86712	0.97928
2414.81021	0.97951
2412.75330	0.97934
2410.69639	0.97899
2408.63948	0.97906
2406.58257	0.97959
2404.52567	0.98023
2402.46876	0.98039
2400.41185	0.98001
2398.35494	0.97949
2396.29803	0.97897
2394.24113	0.97893
2392.18422	0.97927
2390.12731	0.97938
2388.07040	0.97927
2386.01349	0.97922
2383.95658	0.97954
2381.89968	0.98009
2379.84277	0.98020
2377.78586	0.97991
2375.72895	0.97994
2373.67204	0.98000
2371.61514	0.97969
2369.55823	0.97961
2367.50132	0.97993
2365.44441	0.97993
2363.38750	0.97940
2361.33059	0.97923
2359.27369	0.98001
2357.21678	0.98054
2355.15987	0.98003
2353.10296	0.97968
2351.04605	0.97978
2348.98915	0.98010
2346.93224	0.98073
2344.87533	0.98073
2342.81842	0.97969
2340.76151	0.97919
2338.70460	0.97944
2336.64770	0.97937
2334.59079	0.97903
2332.53388	0.97914
2330.47697	0.97916
2328.42006	0.97861
2326.36316	0.97785
2324.30625	0.97724
2322.24934	0.97749
2320.19243	0.97838
2318.13552	0.97897
2316.07861	0.97949
2314.02171	0.97997
2311.96480	0.97961
2309.90789	0.97869
2307.85098	0.97866
2305.79407	0.97934
2303.73717	0.97937
2301.68026	0.97880
2299.62335	0.97840
2297.56644	0.97807
2295.50953	0.97783
2293.45262	0.97793
2291.39572	0.97789
2289.33881	0.97742
2287.28190	0.97714
2285.22499	0.97746
2283.16808	0.97791
2281.11117	0.97796
2279.05427	0.97814
2276.99736	0.97864
2274.94045	0.97888
2272.88354	0.97880
2270.82663	0.97873
2268.76973	0.97922
2266.71282	0.98001
2264.65591	0.98075
2262.59900	0.98127
2260.54209	0.98021
2258.48518	0.97802
2256.42828	0.97739
2254.37137	0.97877
2252.31446	0.98005
2250.25755	0.98023
2248.20064	0.97995
2246.14374	0.98007
2244.08683	0.98045
2242.02992	0.98017
2239.97301	0.97950
2237.91610	0.97987
2235.85919	0.98122
2233.80229	0.98154
2231.74538	0.98072
2229.68847	0.98026
2227.63156	0.98021
2225.57465	0.98048
2223.51775	0.98130
2221.46084	0.98150
2219.40393	0.98061
2217.34702	0.97960
2215.29011	0.97832
2213.23320	0.97770
2211.17630	0.97976
2209.11939	0.98283
2207.06248	0.98360
2205.00557	0.98236
2202.94866	0.98064
2200.89176	0.97949
2198.83485	0.97994
2196.77794	0.98103
2194.72103	0.98101
2192.66412	0.97955
2190.60721	0.97923
2188.55031	0.98116
2186.49340	0.98205
2184.43649	0.98088
2182.37958	0.98003
2180.32267	0.98093
2178.26577	0.98179
2176.20886	0.98106
2174.15195	0.98035
2172.09504	0.97948
2170.03813	0.97872
2167.98122	0.98032
2165.92432	0.98170
2163.86741	0.98092
2161.81050	0.98123
2159.75359	0.98298
2157.69668	0.98358
2155.63978	0.98304
2153.58287	0.98193
2151.52596	0.98135
2149.46905	0.98303
2147.41214	0.98532
2145.35523	0.98543
2143.29833	0.98440
2141.24142	0.98355
2139.18451	0.98235
2137.12760	0.98125
2135.07069	0.98145
2133.01379	0.98283
2130.95688	0.98350
2128.89997	0.98253
2126.84306	0.98096
2124.78615	0.97999
2122.72924	0.97994
2120.67234	0.97972
2118.61543	0.97909
2116.55852	0.97894
2114.50161	0.97992
2112.44470	0.98134
2110.38780	0.98125
2108.33089	0.98007
2106.27398	0.97974
2104.21707	0.98008
2102.16016	0.98035
2100.10325	0.98091
2098.04635	0.98248
2095.98944	0.98407
2093.93253	0.98351
2091.87562	0.98150
2089.81871	0.98049
2087.76181	0.98082
2085.70490	0.98212
2083.64799	0.98363
2081.59108	0.98355
2079.53417	0.98231
2077.47726	0.98152
2075.42036	0.98169
2073.36345	0.98229
2071.30654	0.98212
2069.24963	0.98193
2067.19272	0.98264
2065.13582	0.98252
2063.07891	0.98193
2061.02200	0.98297
2058.96509	0.98422
2056.90818	0.98333
2054.85127	0.98136
2052.79437	0.98063
2050.73746	0.98189
2048.68055	0.98398
2046.62364	0.98466
2044.56673	0.98373
2042.50983	0.98264
2040.45292	0.98219
2038.39601	0.98273
2036.33910	0.98404
2034.28219	0.98523
2032.22528	0.98531
2030.16838	0.98428
2028.11147	0.98371
2026.05456	0.98488
2023.99765	0.98495
2021.94074	0.98337
2019.88384	0.98415
2017.82693	0.98601
2015.77002	0.98581
2013.71311	0.98538
2011.65620	0.98658
2009.59929	0.98835
2007.54239	0.98984
2005.48548	0.99034
2003.42857	0.98873
2001.37166	0.98616
1999.31475	0.98414
1997.25785	0.98334
1995.20094	0.98388
1993.14403	0.98482
1991.08712	0.98591
1989.03021	0.98681
1986.97330	0.98624
1984.91640	0.98413
1982.85949	0.98153
1980.80258	0.98042
1978.74567	0.98175
1976.68876	0.98369
1974.63186	0.98401
1972.57495	0.98257
1970.51804	0.98189
1968.46113	0.98393
1966.40422	0.98697
1964.34731	0.98677
1962.29041	0.98397
1960.23350	0.98299
1958.17659	0.98413
1956.11968	0.98529
1954.06277	0.98548
1952.00587	0.98542
1949.94896	0.98551
1947.89205	0.98446
1945.83514	0.98231
1943.77823	0.98141
1941.72132	0.98334
1939.66442	0.98531
1937.60751	0.98492
1935.55060	0.98410
1933.49369	0.98455
1931.43678	0.98536
1929.37988	0.98534
1927.32297	0.98467
1925.26606	0.98392
1923.20915	0.98351
1921.15224	0.98372
1919.09533	0.98382
1917.03843	0.98355
1914.98152	0.98374
1912.92461	0.98417
1910.86770	0.98408
1908.81079	0.98328
1906.75389	0.98247
1904.69698	0.98274
1902.64007	0.98416
1900.58316	0.98495
1898.52625	0.98418
1896.46934	0.98318
1894.41244	0.98293
1892.35553	0.98344
1890.29862	0.98409
1888.24171	0.98419
1886.18480	0.98420
1884.12790	0.98422
1882.07099	0.98365
1880.01408	0.98316
1877.95717	0.98345
1875.90026	0.98423
1873.84335	0.98524
1871.78645	0.98572
1869.72954	0.98519
1867.67263	0.98470
1865.61572	0.98518
1863.55881	0.98580
1861.50191	0.98540
1859.44500	0.98445
1857.38809	0.98413
1855.33118	0.98444
1853.27427	0.98503
1851.21736	0.98538
1849.16046	0.98529
1847.10355	0.98489
1845.04664	0.98420
1842.98973	0.98409
1840.93282	0.98453
1838.87592	0.98459
1836.81901	0.98462
1834.76210	0.98506
1832.70519	0.98522
1830.64828	0.98487
1828.59137	0.98454
1826.53447	0.98434
1824.47756	0.98427
1822.42065	0.98443
1820.36374	0.98440
1818.30683	0.98409
1816.24993	0.98387
1814.19302	0.98365
1812.13611	0.98352
1810.07920	0.98362
1808.02229	0.98392
1805.96538	0.98377
1803.90848	0.98310
1801.85157	0.98267
1799.79466	0.98248
1797.73775	0.98236
1795.68084	0.98263
1793.62394	0.98267
1791.56703	0.98179
1789.51012	0.98090
1787.45321	0.98048
1785.39630	0.98025
1783.33939	0.98001
1781.28249	0.97949
1779.22558	0.97819
1777.16867	0.97636
1775.11176	0.97462
1773.05485	0.97209
1770.99795	0.96787
1768.94104	0.96290
1766.88413	0.95667
1764.82722	0.94923
1762.77031	0.94005
1760.71340	0.92880
1758.65650	0.91804
1756.59959	0.90760
1754.54268	0.89819
1752.48577	0.88973
1750.42886	0.88007
1748.37196	0.87079
1746.31505	0.86412
1744.25814	0.85889
1742.20123	0.85421
1740.14432	0.85018
1738.08741	0.84808
1736.03051	0.84779
1733.97360	0.84736
1731.91669	0.84780
1729.85978	0.84970
1727.80287	0.85237
1725.74597	0.85593
1723.68906	0.86029
1721.63215	0.86514
1719.57524	0.87067
1717.51833	0.87756
1715.46142	0.88563
1713.40452	0.89377
1711.34761	0.90148
1709.29070	0.90866
1707.23379	0.91567
1705.17688	0.92256
1703.11998	0.92833
1701.06307	0.93369
1699.00616	0.93902
1696.94925	0.94307
1694.89234	0.94649
1692.83543	0.94917
1690.77853	0.95141
1688.72162	0.95365
1686.66471	0.95579
1684.60780	0.95771
1682.55089	0.95900
1680.49399	0.96004
1678.43708	0.96109
1676.38017	0.96197
1674.32326	0.96268
1672.26635	0.96334
1670.20944	0.96397
1668.15254	0.96449
1666.09563	0.96493
1664.03872	0.96542
1661.98181	0.96579
1659.92490	0.96594
1657.86800	0.96619
1655.81109	0.96656
1653.75418	0.96658
1651.69727	0.96633
1649.64036	0.96656
1647.58345	0.96675
1645.52655	0.96699
1643.46964	0.96767
1641.41273	0.96830
1639.35582	0.96861
1637.29891	0.96880
1635.24201	0.96914
1633.18510	0.96942
1631.12819	0.96961
1629.07128	0.96988
1627.01437	0.97014
1624.95746	0.97035
1622.90056	0.97050
1620.84365	0.97071
1618.78674	0.97122
1616.72983	0.97215
1614.67292	0.97303
1612.61602	0.97345
1610.55911	0.97348
1608.50220	0.97342
1606.44529	0.97365
1604.38838	0.97406
1602.33147	0.97436
1600.27457	0.97459
1598.21766	0.97480
1596.16075	0.97478
1594.10384	0.97485
1592.04693	0.97521
1589.99003	0.97551
1587.93312	0.97560
1585.87621	0.97567
1583.81930	0.97577
1581.76239	0.97584
1579.70548	0.97606
1577.64858	0.97625
1575.59167	0.97604
1573.53476	0.97593
1571.47785	0.97614
1569.42094	0.97651
1567.36404	0.97691
1565.30713	0.97705
1563.25022	0.97683
1561.19331	0.97633
1559.13640	0.97563
1557.07949	0.97615
1555.02259	0.97719
1552.96568	0.97758
1550.90877	0.97756
1548.85186	0.97766
1546.79495	0.97782
1544.73805	0.97779
1542.68114	0.97766
1540.62423	0.97729
1538.56732	0.97685
1536.51041	0.97699
1534.45350	0.97731
1532.39660	0.97748
1530.33969	0.97766
1528.28278	0.97797
1526.22587	0.97814
1524.16896	0.97788
1522.11206	0.97747
1520.05515	0.97740
1517.99824	0.97762
1515.94133	0.97773
1513.88442	0.97772
1511.82751	0.97779
1509.77061	0.97801
1507.71370	0.97798
1505.65679	0.97762
1503.59988	0.97792
1501.54297	0.97843
1499.48607	0.97858
1497.42916	0.97844
1495.37225	0.97824
1493.31534	0.97820
1491.25843	0.97817
1489.20152	0.97783
1487.14462	0.97752
1485.08771	0.97747
1483.03080	0.97735
1480.97389	0.97699
1478.91698	0.97644
1476.86008	0.97581
1474.80317	0.97526
1472.74626	0.97444
1470.68935	0.97325
1468.63244	0.97227
1466.57553	0.97120
1464.51863	0.96961
1462.46172	0.96809
1460.40481	0.96708
1458.34790	0.96586
1456.29099	0.96410
1454.23409	0.96291
1452.17718	0.96194
1450.12027	0.96065
1448.06336	0.95907
1446.00645	0.95750
1443.94954	0.95615
1441.89264	0.95494
1439.83573	0.95396
1437.77882	0.95264
1435.72191	0.95069
1433.66500	0.94957
1431.60810	0.94934
1429.55119	0.94943
1427.49428	0.94982
1425.43737	0.95040
1423.38046	0.95092
1421.32355	0.95173
1419.26665	0.95268
1417.20974	0.95311
1415.15283	0.95344
1413.09592	0.95403
1411.03901	0.95478
1408.98211	0.95541
1406.92520	0.95551
1404.86829	0.95520
1402.81138	0.95512
1400.75447	0.95527
1398.69756	0.95517
1396.64066	0.95440
1394.58375	0.95249
1392.52684	0.94970
1390.46993	0.94654
1388.41302	0.94237
1386.35612	0.93684
1384.29921	0.93116
1382.24230	0.92515
1380.18539	0.91842
1378.12848	0.91196
1376.07157	0.90629
1374.01467	0.90105
1371.95776	0.89707
1369.90085	0.89529
1367.84394	0.89580
1365.78703	0.89871
1363.73013	0.90420
1361.67322	0.91220
1359.61631	0.92093
1357.55940	0.92900
1355.50249	0.93599
1353.44558	0.94165
1351.38868	0.94603
1349.33177	0.94906
1347.27486	0.95089
1345.21795	0.95219
1343.16104	0.95324
1341.10414	0.95396
1339.04723	0.95457
1336.99032	0.95515
1334.93341	0.95539
1332.87650	0.95530
1330.81959	0.95519
1328.76269	0.95513
1326.70578	0.95495
1324.64887	0.95468
1322.59196	0.95454
1320.53505	0.95456
1318.47815	0.95437
1316.42124	0.95399
1314.36433	0.95402
1312.30742	0.95436
1310.25051	0.95465
1308.19360	0.95492
1306.13670	0.95515
1304.07979	0.95524
1302.02288	0.95514
1299.96597	0.95482
1297.90906	0.95430
1295.85216	0.95349
1293.79525	0.95240
1291.73834	0.95106
1289.68143	0.94946
1287.62452	0.94759
1285.56761	0.94553
1283.51071	0.94329
1281.45380	0.94074
1279.39689	0.93782
1277.33998	0.93442
1275.28307	0.93051
1273.22617	0.92635
1271.16926	0.92192
1269.11235	0.91685
1267.05544	0.91130
1264.99853	0.90552
1262.94162	0.89928
1260.88472	0.89237
1258.82781	0.88517
1256.77090	0.87813
1254.71399	0.87103
1252.65708	0.86349
1250.60018	0.85552
1248.54327	0.84750
1246.48636	0.83978
1244.42945	0.83218
1242.37254	0.82430
1240.31563	0.81642
1238.25873	0.80910
1236.20182	0.80202
1234.14491	0.79497
1232.08800	0.78848
1230.03109	0.78283
1227.97419	0.77825
1225.91728	0.77528
1223.86037	0.77425
1221.80346	0.77527
1219.74655	0.77857
1217.68964	0.78440
1215.63274	0.79271
1213.57583	0.80309
1211.51892	0.81502
1209.46201	0.82787
1207.40510	0.84077
1205.34820	0.85335
1203.29129	0.86564
1201.23438	0.87740
1199.17747	0.88822
1197.12056	0.89792
1195.06365	0.90645
1193.00675	0.91357
1190.94984	0.91901
1188.89293	0.92287
1186.83602	0.92537
1184.77911	0.92661
1182.72221	0.92674
1180.66530	0.92605
1178.60839	0.92470
1176.55148	0.92274
1174.49457	0.92007
1172.43766	0.91692
1170.38076	0.91380
1168.32385	0.91100
1166.26694	0.90858
1164.21003	0.90636
1162.15312	0.90473
1160.09622	0.90437
1158.03931	0.90503
1155.98240	0.90634
1153.92549	0.90849
1151.86858	0.91105
1149.81167	0.91306
1147.75477	0.91454
1145.69786	0.91585
1143.64095	0.91672
1141.58404	0.91678
1139.52713	0.91592
1137.47023	0.91426
1135.41332	0.91194
1133.35641	0.90899
1131.29950	0.90571
1129.24259	0.90266
1127.18568	0.90015
1125.12878	0.89791
1123.07187	0.89562
1121.01496	0.89338
1118.95805	0.89164
1116.90114	0.89063
1114.84424	0.88975
1112.78733	0.88847
1110.73042	0.88706
1108.67351	0.88575
1106.61660	0.88436
1104.55969	0.88275
1102.50279	0.88097
1100.44588	0.87906
1098.38897	0.87685
1096.33206	0.87392
1094.27515	0.87021
1092.21825	0.86591
1090.16134	0.86106
1088.10443	0.85571
1086.04752	0.84983
1083.99061	0.84365
1081.93370	0.83758
1079.87680	0.83164
1077.81989	0.82577
1075.76298	0.82026
1073.70607	0.81498
1071.64916	0.80956
1069.59226	0.80454
1067.53535	0.80051
1065.47844	0.79678
1063.42153	0.79279
1061.36462	0.78868
1059.30771	0.78444
1057.25081	0.77994
1055.19390	0.77523
1053.13699	0.77053
1051.08008	0.76583
1049.02317	0.76094
1046.96627	0.75617
1044.90936	0.75154
1042.85245	0.74688
1040.79554	0.74245
1038.73863	0.73832
1036.68172	0.73426
1034.62482	0.73050
1032.56791	0.72766
1030.51100	0.72591
1028.45409	0.72551
1026.39718	0.72671
1024.34028	0.72930
1022.28337	0.73309
1020.22646	0.73783
1018.16955	0.74330
1016.11264	0.74942
1014.05573	0.75593
1011.99883	0.76266
1009.94192	0.76952
1007.88501	0.77599
1005.82810	0.78187
1003.77119	0.78781
1001.71429	0.79407
999.65738	0.80027
997.60047	0.80639
995.54356	0.81249
993.48665	0.81791
991.42974	0.82259
989.37284	0.82715
987.31593	0.83161
985.25902	0.83561
983.20211	0.83911
981.14520	0.84261
979.08830	0.84657
977.03139	0.85084
974.97448	0.85508
972.91757	0.85932
970.86066	0.86406
968.80375	0.86890
966.74685	0.87325
964.68994	0.87755
962.63303	0.88184
960.57612	0.88568
958.51921	0.88891
956.46231	0.89162
954.40540	0.89419
952.34849	0.89663
950.29158	0.89871
948.23467	0.90061
946.17776	0.90243
944.12086	0.90374
942.06395	0.90469
940.00704	0.90599
937.95013	0.90749
935.89322	0.90841
933.83632	0.90869
931.77941	0.90887
929.72250	0.90913
927.66559	0.90918
925.60868	0.90905
923.55177	0.90879
921.49487	0.90799
919.43796	0.90673
917.38105	0.90563
915.32414	0.90462
913.26723	0.90352
911.21033	0.90255
909.15342	0.90167
907.09651	0.90039
905.03960	0.89865
902.98269	0.89735
900.92578	0.89710
898.86888	0.89730
896.81197	0.89760
894.75506	0.89849
892.69815	0.90000
890.64124	0.90165
888.58434	0.90322
886.52743	0.90505
884.47052	0.90719
882.41361	0.90942
880.35670	0.91167
878.29979	0.91382
876.24289	0.91602
874.18598	0.91888
872.12907	0.92228
870.07216	0.92518
868.01525	0.92735
865.95835	0.92932
863.90144	0.93117
861.84453	0.93254
859.78762	0.93351
857.73071	0.93440
855.67380	0.93478
853.61690	0.93466
851.55999	0.93495
849.50308	0.93551
847.44617	0.93566
845.38926	0.93549
843.33236	0.93549
841.27545	0.93538
839.21854	0.93484
837.16163	0.93470
835.10472	0.93549
833.04781	0.93678
830.99091	0.93826
828.93400	0.93946
826.87709	0.94032
824.82018	0.94167
822.76327	0.94330
820.70637	0.94448
818.64946	0.94507
816.59255	0.94523
814.53564	0.94514
812.47873	0.94500
810.42182	0.94545
808.36492	0.94670
806.30801	0.94766
804.25110	0.94744
802.19419	0.94752
800.13728	0.94877
798.08038	0.94953
796.02347	0.94950
793.96656	0.94968
791.90965	0.94974
789.85274	0.94958
787.79583	0.94952
785.73893	0.94933
783.68202	0.94927
781.62511	0.94984
779.56820	0.95093
777.51129	0.95152
775.45439	0.95114
773.39748	0.95087
771.34057	0.95147
769.28366	0.95201
767.22675	0.95190
765.16984	0.95191
763.11294	0.95215
761.05603	0.95218
758.99912	0.95215
756.94221	0.95234
754.88530	0.95274
752.82839	0.95322
750.77149	0.95318
748.71458	0.95234
746.65767	0.95171
744.60076	0.95191
742.54385	0.95222
740.48695	0.95193
738.43004	0.95144
736.37313	0.95163
734.31622	0.95237
732.25931	0.95246
730.20240	0.95152
728.14550	0.95041
726.08859	0.94997
724.03168	0.95024
721.97477	0.95019
719.91786	0.94939
717.86096	0.94885
715.80405	0.94889
713.74714	0.94835
711.69023	0.94727
709.63332	0.94688
707.57641	0.94709
705.51951	0.94699
703.46260	0.94633
701.40569	0.94541
699.34878	0.94427
697.29187	0.94278
695.23497	0.94134
693.17806	0.94009
691.12115	0.93881
689.06424	0.93745
687.00733	0.93611
684.95042	0.93512
682.89352	0.93412
680.83661	0.93336
678.77970	0.93382
676.72279	0.93504
674.66588	0.93543
672.60898	0.93518
670.55207	0.93565
668.49516	0.93590
666.43825	0.93492
664.38134	0.93421
662.32443	0.93397
660.26753	0.93377
658.21062	0.93311
656.15371	0.93161
654.09680	0.93008
652.03989	0.92901
649.98299	0.92781
647.92608	0.92668
645.86917	0.92574
643.81226	0.92473
641.75535	0.92299
639.69844	0.92087
637.64154	0.91901
635.58463	0.91701
633.52772	0.91569
631.47081	0.91510
629.41390	0.91436
627.35700	0.91319
625.30009	0.91156
623.24318	0.91011
621.18627	0.90894
619.12936	0.90754
617.07245	0.90574
615.01555	0.90315
612.95864	0.89963
610.90173	0.89530
608.84482	0.89080
606.78791	0.88734
604.73101	0.88436
602.67410	0.88209
600.61719	0.88241
598.56028	0.88484
596.50337	0.88828
594.44646	0.89230
592.38956	0.89619
590.33265	0.89919
588.27574	0.90111
586.21883	0.90258
584.16192	0.90340
582.10502	0.90400
580.04811	0.90488
577.99120	0.90457
575.93429	0.90294
573.87738	0.90175
571.82047	0.90151
569.76357	0.90134
567.70666	0.90061
565.64975	0.90007
563.59284	0.90009
561.53593	0.89956
559.47903	0.89817
557.42212	0.89672
555.36521	0.89657
553.30830	0.89826
551.25139	0.89990
549.19448	0.90037
547.13758	0.90064
545.08067	0.90090
543.02376	0.90047
540.96685	0.89990
538.90994	0.90041
536.85304	0.90175
534.79613	0.90206
532.73922	0.90059
530.68231	0.89873
528.62540	0.89743
526.56849	0.89686
524.51159	0.89687
522.45468	0.89688
520.39777	0.89675
518.34086	0.89637
516.28395	0.89643
514.22705	0.89666
512.17014	0.89547
510.11323	0.89414
508.05632	0.89395
505.99941	0.89325
503.94250	0.89103
501.88560	0.88913
499.82869	0.88912
497.77178	0.88944
495.71487	0.88940
493.65796	0.89002
491.60106	0.89031
489.54415	0.88899
487.48724	0.88709
485.43033	0.88620
483.37342	0.88710
481.31651	0.88794
479.25961	0.88745
477.20270	0.88683
475.14579	0.88615
473.08888	0.88528
471.03197	0.88496
468.97507	0.88548
466.91816	0.88590
464.86125	0.88398
462.80434	0.88016
460.74743	0.87868
458.69052	0.88069
456.63362	0.88196
454.57671	0.88077
452.51980	0.87970
450.46289	0.87955
448.40598	0.87911
446.34908	0.87860
444.29217	0.87889
442.23526	0.87961
440.17835	0.88048
438.12144	0.88200
436.06453	0.88366
434.00763	0.88258
431.95072	0.87981
429.89381	0.87934
427.83690	0.88015
425.77999	0.88195
423.72309	0.88495
421.66618	0.88523
419.60927	0.88431
417.55236	0.88797
415.49545	0.89264
413.43854	0.89275
411.38164	0.88816
409.32473	0.88432
407.26782	0.88456
405.21091	0.88774
403.15400	0.89195
401.09710	0.89316
399.04019	0.88668
