3996.57260	0.98942
3994.51569	0.99001
3992.45878	0.99090
3990.40188	0.99107
3988.34497	0.99076
3986.28806	0.99041
3984.23115	0.99024
3982.17424	0.99013
3980.11733	0.98979
3978.06043	0.98958
3976.00352	0.98996
3973.94661	0.99085
3971.88970	0.99162
3969.83279	0.99174
3967.77589	0.99130
3965.71898	0.99074
3963.66207	0.99060
3961.60516	0.99069
3959.54825	0.99081
3957.49134	0.99106
3955.43444	0.99111
3953.37753	0.99121
3951.32062	0.99153
3949.26371	0.99131
3947.20680	0.99049
3945.14990	0.98980
3943.09299	0.98951
3941.03608	0.98980
3938.97917	0.99046
3936.92226	0.99071
3934.86535	0.99036
3932.80845	0.98996
3930.75154	0.98993
3928.69463	0.99001
3926.63772	0.99001
3924.58081	0.99013
3922.52391	0.99016
3920.46700	0.99025
3918.41009	0.99070
3916.35318	0.99108
3914.29627	0.99101
3912.23936	0.99065
3910.18246	0.99077
3908.12555	0.99133
3906.06864	0.99111
3904.01173	0.98999
3901.95482	0.98924
3899.89792	0.98952
3897.84101	0.99048
3895.78410	0.99094
3893.72719	0.99064
3891.67028	0.99032
3889.61337	0.99010
3887.55647	0.99001
3885.49956	0.99061
3883.44265	0.99155
3881.38574	0.99145
3879.32883	0.99027
3877.27193	0.98978
3875.21502	0.99021
3873.15811	0.99060
3871.10120	0.99056
3869.04429	0.99030
3866.98738	0.98968
3864.93048	0.98925
3862.87357	0.98985
3860.81666	0.99024
3858.75975	0.98974
3856.70284	0.98923
3854.64594	0.98912
3852.58903	0.98895
3850.53212	0.98927
3848.47521	0.99020
3846.41830	0.99064
3844.36139	0.99033
3842.30449	0.98971
3840.24758	0.98905
3838.19067	0.98893
3836.13376	0.98966
3834.07685	0.99048
3832.01995	0.99088
3829.96304	0.99110
3827.90613	0.99149
3825.84922	0.99162
3823.79231	0.99114
3821.73540	0.99083
3819.67850	0.99118
3817.62159	0.99139
3815.56468	0.99121
3813.50777	0.99140
3811.45086	0.99194
3809.39396	0.99241
3807.33705	0.99278
3805.28014	0.99251
3803.22323	0.99186
3801.16632	0.99176
3799.10941	0.99140
3797.05251	0.99042
3794.99560	0.99006
3792.93869	0.99053
3790.88178	0.99116
3788.82487	0.99124
3786.76796	0.99063
3784.71106	0.99035
3782.65415	0.99055
3780.59724	0.99064
3778.54033	0.99069
3776.48342	0.99087
3774.42652	0.99071
3772.36961	0.99057
3770.31270	0.99165
3768.25579	0.99266
3766.19888	0.99202
3764.14197	0.99135
3762.08507	0.99139
3760.02816	0.99150
3757.97125	0.99166
3755.91434	0.99188
3753.85743	0.99190
3751.80053	0.99214
3749.74362	0.99228
3747.68671	0.99177
3745.62980	0.99161
3743.57289	0.99149
3741.51598	0.99098
3739.45908	0.99061
3737.40217	0.99051
3735.34526	0.99078
3733.28835	0.99103
3731.23144	0.99125
3729.17454	0.99112
3727.11763	0.99045
3725.06072	0.99058
3723.00381	0.99122
3720.94690	0.99131
3718.88999	0.99170
3716.83309	0.99225
3714.77618	0.99250
3712.71927	0.99260
3710.66236	0.99228
3708.60545	0.99191
3706.54855	0.99188
3704.49164	0.99216
3702.43473	0.99248
3700.37782	0.99252
3698.32091	0.99233
3696.26400	0.99190
3694.20710	0.99163
3692.15019	0.99193
3690.09328	0.99242
3688.03637	0.99239
3685.97946	0.99157
3683.92256	0.99092
3681.86565	0.99106
3679.80874	0.99155
3677.75183	0.99177
3675.69492	0.99133
3673.63801	0.99060
3671.58111	0.99010
3669.52420	0.99031
3667.46729	0.99105
3665.41038	0.99094
3663.35347	0.99029
3661.29657	0.99012
3659.23966	0.99045
3657.18275	0.99081
3655.12584	0.99091
3653.06893	0.99087
3651.01202	0.99025
3648.95512	0.98913
3646.89821	0.98927
3644.84130	0.98966
3642.78439	0.98966
3640.72748	0.99001
3638.67058	0.99042
3636.61367	0.99034
3634.55676	0.98973
3632.49985	0.98887
3630.44294	0.98850
3628.38603	0.98902
3626.32913	0.98978
3624.27222	0.99033
3622.21531	0.99033
3620.15840	0.98901
3618.10149	0.98742
3616.04459	0.98766
3613.98768	0.98892
3611.93077	0.98949
3609.87386	0.98909
3607.81695	0.98869
3605.76004	0.98861
3603.70314	0.98818
3601.64623	0.98761
3599.58932	0.98761
3597.53241	0.98743
3595.47550	0.98661
3593.41860	0.98611
3591.36169	0.98592
3589.30478	0.98522
3587.24787	0.98459
3585.19096	0.98511
3583.13405	0.98569
3581.07715	0.98540
3579.02024	0.98478
3576.96333	0.98473
3574.90642	0.98495
3572.84951	0.98452
3570.79261	0.98334
3568.73570	0.98265
3566.67879	0.98314
3564.62188	0.98340
3562.56497	0.98274
3560.50806	0.98175
3558.45116	0.98128
3556.39425	0.98121
3554.33734	0.98125
3552.28043	0.98145
3550.22352	0.98089
3548.16662	0.97933
3546.10971	0.97784
3544.05280	0.97717
3541.99589	0.97716
3539.93898	0.97760
3537.88207	0.97793
3535.82517	0.97757
3533.76826	0.97676
3531.71135	0.97630
3529.65444	0.97656
3527.59753	0.97693
3525.54063	0.97681
3523.48372	0.97602
3521.42681	0.97482
3519.36990	0.97374
3517.31299	0.97319
3515.25608	0.97310
3513.19918	0.97265
3511.14227	0.97190
3509.08536	0.97148
3507.02845	0.97099
3504.97154	0.97031
3502.91464	0.97004
3500.85773	0.97032
3498.80082	0.97050
3496.74391	0.96988
3494.68700	0.96897
3492.63009	0.96873
3490.57319	0.96904
3488.51628	0.96896
3486.45937	0.96830
3484.40246	0.96757
3482.34555	0.96689
3480.28865	0.96672
3478.23174	0.96671
3476.17483	0.96601
3474.11792	0.96514
3472.06101	0.96480
3470.00410	0.96467
3467.94720	0.96411
3465.89029	0.96362
3463.83338	0.96369
3461.77647	0.96368
3459.71956	0.96320
3457.66266	0.96281
3455.60575	0.96314
3453.54884	0.96379
3451.49193	0.96371
3449.43502	0.96293
3447.37811	0.96241
3445.32121	0.96221
3443.26430	0.96192
3441.20739	0.96134
3439.15048	0.96064
3437.09357	0.96065
3435.03667	0.96135
3432.97976	0.96181
3430.92285	0.96153
3428.86594	0.96059
3426.80903	0.95970
3424.75212	0.95964
3422.69522	0.95988
3420.63831	0.95996
3418.58140	0.96041
3416.52449	0.96065
3414.46758	0.96035
3412.41068	0.96049
3410.35377	0.96091
3408.29686	0.96085
3406.23995	0.96041
3404.18304	0.96008
3402.12613	0.96014
3400.06923	0.96029
3398.01232	0.96020
3395.95541	0.96007
3393.89850	0.95990
3391.84159	0.95964
3389.78469	0.95934
3387.72778	0.95936
3385.67087	0.95975
3383.61396	0.95989
3381.55705	0.95959
3379.50014	0.95920
3377.44324	0.95912
3375.38633	0.95935
3373.32942	0.95965
3371.27251	0.95976
3369.21560	0.95979
3367.15870	0.96021
3365.10179	0.96064
3363.04488	0.96051
3360.98797	0.96045
3358.93106	0.96081
3356.87415	0.96097
3354.81725	0.96048
3352.76034	0.95979
3350.70343	0.95946
3348.64652	0.95956
3346.58961	0.95972
3344.53271	0.95996
3342.47580	0.96033
3340.41889	0.96060
3338.36198	0.96089
3336.30507	0.96101
3334.24816	0.96070
3332.19126	0.96045
3330.13435	0.96048
3328.07744	0.96060
3326.02053	0.96071
3323.96362	0.96087
3321.90672	0.96106
3319.84981	0.96086
3317.79290	0.96092
3315.73599	0.96182
3313.67908	0.96243
3311.62217	0.96264
3309.56527	0.96305
3307.50836	0.96322
3305.45145	0.96325
3303.39454	0.96360
3301.33763	0.96363
3299.28073	0.96290
3297.22382	0.96239
3295.16691	0.96282
3293.11000	0.96370
3291.05309	0.96443
3288.99618	0.96498
3286.93928	0.96534
3284.88237	0.96524
3282.82546	0.96470
3280.76855	0.96432
3278.71164	0.96448
3276.65474	0.96502
3274.59783	0.96554
3272.54092	0.96556
3270.48401	0.96545
3268.42710	0.96562
3266.37019	0.96563
3264.31329	0.96577
3262.25638	0.96626
3260.19947	0.96657
3258.14256	0.96634
3256.08565	0.96601
3254.02875	0.96612
3251.97184	0.96667
3249.91493	0.96753
3247.85802	0.96808
3245.80111	0.96807
3243.74420	0.96831
3241.68730	0.96907
3239.63039	0.96956
3237.57348	0.96962
3235.51657	0.96986
3233.45966	0.97015
3231.40276	0.97004
3229.34585	0.96978
3227.28894	0.96981
3225.23203	0.96994
3223.17512	0.97012
3221.11821	0.97030
3219.06131	0.97033
3217.00440	0.97045
3214.94749	0.97067
3212.89058	0.97095
3210.83367	0.97132
3208.77677	0.97139
3206.71986	0.97104
3204.66295	0.97061
3202.60604	0.97030
3200.54913	0.97044
3198.49222	0.97117
3196.43532	0.97208
3194.37841	0.97283
3192.32150	0.97307
3190.26459	0.97273
3188.20768	0.97231
3186.15078	0.97231
3184.09387	0.97272
3182.03696	0.97283
3179.98005	0.97281
3177.92314	0.97337
3175.86623	0.97431
3173.80933	0.97478
3171.75242	0.97448
3169.69551	0.97459
3167.63860	0.97528
3165.58169	0.97537
3163.52479	0.97501
3161.46788	0.97481
3159.41097	0.97480
3157.35406	0.97523
3155.29715	0.97576
3153.24024	0.97599
3151.18334	0.97619
3149.12643	0.97612
3147.06952	0.97573
3145.01261	0.97579
3142.95570	0.97620
3140.89880	0.97626
3138.84189	0.97641
3136.78498	0.97694
3134.72807	0.97773
3132.67116	0.97877
3130.61425	0.97920
3128.55735	0.97892
3126.50044	0.97896
3124.44353	0.97941
3122.38662	0.97946
3120.32971	0.97897
3118.27281	0.97839
3116.21590	0.97799
3114.15899	0.97780
3112.10208	0.97823
3110.04517	0.97930
3107.98826	0.97999
3105.93136	0.97981
3103.87445	0.97956
3101.81754	0.97988
3099.76063	0.98052
3097.70372	0.98080
3095.64682	0.98047
3093.58991	0.98019
3091.53300	0.98053
3089.47609	0.98097
3087.41918	0.98101
3085.36227	0.98099
3083.30537	0.98103
3081.24846	0.98093
3079.19155	0.98099
3077.13464	0.98123
3075.07773	0.98117
3073.02083	0.98113
3070.96392	0.98148
3068.90701	0.98163
3066.85010	0.98141
3064.79319	0.98136
3062.73628	0.98157
3060.67938	0.98201
3058.62247	0.98248
3056.56556	0.98235
3054.50865	0.98188
3052.45174	0.98211
3050.39484	0.98262
3048.33793	0.98253
3046.28102	0.98210
3044.22411	0.98190
3042.16720	0.98203
3040.11029	0.98215
3038.05339	0.98215
3035.99648	0.98238
3033.93957	0.98286
3031.88266	0.98318
3029.82575	0.98318
3027.76885	0.98307
3025.71194	0.98269
3023.65503	0.98216
3021.59812	0.98218
3019.54121	0.98257
3017.48430	0.98289
3015.42740	0.98295
3013.37049	0.98273
3011.31358	0.98298
3009.25667	0.98361
3007.19976	0.98358
3005.14286	0.98294
3003.08595	0.98251
3001.02904	0.98267
2998.97213	0.98306
2996.91522	0.98315
2994.85831	0.98289
2992.80141	0.98273
2990.74450	0.98292
2988.68759	0.98295
2986.63068	0.98270
2984.57377	0.98269
2982.51687	0.98273
2980.45996	0.98231
2978.40305	0.98180
2976.34614	0.98162
2974.28923	0.98136
2972.23232	0.98080
2970.17542	0.98014
2968.11851	0.97947
2966.06160	0.97893
2964.00469	0.97886
2961.94778	0.97892
2959.89088	0.97868
2957.83397	0.97833
2955.77706	0.97801
2953.72015	0.97759
2951.66324	0.97702
2949.60633	0.97650
2947.54943	0.97619
2945.49252	0.97593
2943.43561	0.97541
2941.37870	0.97443
2939.32179	0.97328
2937.26489	0.97240
2935.20798	0.97188
2933.15107	0.97155
2931.09416	0.97097
2929.03725	0.96988
2926.98034	0.96855
2924.92344	0.96754
2922.86653	0.96752
2920.80962	0.96833
2918.75271	0.96888
2916.69580	0.96891
2914.63890	0.96916
2912.58199	0.96969
2910.52508	0.97006
2908.46817	0.97028
2906.41126	0.97044
2904.35435	0.97050
2902.29745	0.97056
2900.24054	0.97056
2898.18363	0.97043
2896.12672	0.97036
2894.06981	0.97032
2892.01291	0.97018
2889.95600	0.97002
2887.89909	0.96970
2885.84218	0.96926
2883.78527	0.96940
2881.72836	0.97016
2879.67146	0.97062
2877.61455	0.97071
2875.55764	0.97091
2873.50073	0.97091
2871.44382	0.97084
2869.38692	0.97107
2867.33001	0.97128
2865.27310	0.97151
2863.21619	0.97187
2861.15928	0.97176
2859.10237	0.97132
2857.04547	0.97142
2854.98856	0.97209
2852.93165	0.97241
2850.87474	0.97240
2848.81783	0.97282
2846.76093	0.97374
2844.70402	0.97503
2842.64711	0.97629
2840.59020	0.97701
2838.53329	0.97752
2836.47638	0.97819
2834.41948	0.97882
2832.36257	0.97921
2830.30566	0.97941
2828.24875	0.97955
2826.19184	0.97976
2824.13494	0.97986
2822.07803	0.97958
2820.02112	0.97938
2817.96421	0.97968
2815.90730	0.98017
2813.85039	0.98045
2811.79349	0.98055
2809.73658	0.98079
2807.67967	0.98099
2805.62276	0.98081
2803.56585	0.98043
2801.50895	0.98036
2799.45204	0.98080
2797.39513	0.98136
2795.33822	0.98181
2793.28131	0.98209
2791.22440	0.98213
2789.16750	0.98210
2787.11059	0.98217
2785.05368	0.98234
2782.99677	0.98248
2780.93986	0.98244
2778.88296	0.98222
2776.82605	0.98208
2774.76914	0.98216
2772.71223	0.98217
2770.65532	0.98207
2768.59841	0.98202
2766.54151	0.98205
2764.48460	0.98223
2762.42769	0.98260
2760.37078	0.98291
2758.31387	0.98286
2756.25697	0.98260
2754.20006	0.98249
2752.14315	0.98256
2750.08624	0.98258
2748.02933	0.98251
2745.97242	0.98268
2743.91552	0.98303
2741.85861	0.98309
2739.80170	0.98308
2737.74479	0.98340
2735.68788	0.98360
2733.63098	0.98333
2731.57407	0.98303
2729.51716	0.98327
2727.46025	0.98364
2725.40334	0.98349
2723.34643	0.98305
2721.28953	0.98289
2719.23262	0.98321
2717.17571	0.98374
2715.11880	0.98373
2713.06189	0.98307
2711.00499	0.98273
2708.94808	0.98300
2706.89117	0.98335
2704.83426	0.98366
2702.77735	0.98377
2700.72044	0.98355
2698.66354	0.98326
2696.60663	0.98324
2694.54972	0.98342
2692.49281	0.98338
2690.43590	0.98320
2688.37900	0.98331
2686.32209	0.98370
2684.26518	0.98391
2682.20827	0.98393
2680.15136	0.98398
2678.09445	0.98403
2676.03755	0.98405
2673.98064	0.98393
2671.92373	0.98362
2669.86682	0.98352
2667.80991	0.98385
2665.75301	0.98428
2663.69610	0.98446
2661.63919	0.98433
2659.58228	0.98414
2657.52537	0.98414
2655.46846	0.98409
2653.41156	0.98357
2651.35465	0.98299
2649.29774	0.98309
2647.24083	0.98352
2645.18392	0.98348
2643.12702	0.98339
2641.07011	0.98364
2639.01320	0.98387
2636.95629	0.98400
2634.89938	0.98432
2632.84247	0.98444
2630.78557	0.98401
2628.72866	0.98394
2626.67175	0.98458
2624.61484	0.98486
2622.55793	0.98448
2620.50103	0.98421
2618.44412	0.98418
2616.38721	0.98399
2614.33030	0.98380
2612.27339	0.98382
2610.21648	0.98393
2608.15958	0.98406
2606.10267	0.98415
2604.04576	0.98437
2601.98885	0.98488
2599.93194	0.98535
2597.87504	0.98566
2595.81813	0.98567
2593.76122	0.98515
2591.70431	0.98482
2589.64740	0.98515
2587.59049	0.98572
2585.53359	0.98609
2583.47668	0.98615
2581.41977	0.98638
2579.36286	0.98667
2577.30595	0.98623
2575.24905	0.98570
2573.19214	0.98578
2571.13523	0.98556
2569.07832	0.98498
2567.02141	0.98507
2564.96450	0.98544
2562.90760	0.98535
2560.85069	0.98542
2558.79378	0.98585
2556.73687	0.98595
2554.67996	0.98605
2552.62306	0.98630
2550.56615	0.98577
2548.50924	0.98473
2546.45233	0.98452
2544.39542	0.98494
2542.33851	0.98537
2540.28161	0.98607
2538.22470	0.98711
2536.16779	0.98766
2534.11088	0.98733
2532.05397	0.98695
2529.99707	0.98684
2527.94016	0.98702
2525.88325	0.98728
2523.82634	0.98704
2521.76943	0.98655
2519.71252	0.98608
2517.65562	0.98592
2515.59871	0.98615
2513.54180	0.98635
2511.48489	0.98661
2509.42798	0.98701
2507.37108	0.98721
2505.31417	0.98719
2503.25726	0.98737
2501.20035	0.98728
2499.14344	0.98641
2497.08653	0.98609
2495.02963	0.98684
2492.97272	0.98716
2490.91581	0.98674
2488.85890	0.98686
2486.80199	0.98732
2484.74509	0.98693
2482.68818	0.98634
2480.63127	0.98632
2478.57436	0.98636
2476.51745	0.98658
2474.46054	0.98700
2472.40364	0.98731
2470.34673	0.98784
2468.28982	0.98820
2466.23291	0.98785
2464.17600	0.98705
2462.11910	0.98606
2460.06219	0.98566
2458.00528	0.98629
2455.94837	0.98687
2453.89146	0.98699
2451.83455	0.98693
2449.77765	0.98657
2447.72074	0.98636
2445.66383	0.98661
2443.60692	0.98720
2441.55001	0.98800
2439.49311	0.98839
2437.43620	0.98778
2435.37929	0.98684
2433.32238	0.98676
2431.26547	0.98732
2429.20856	0.98735
2427.15166	0.98672
2425.09475	0.98627
2423.03784	0.98603
2420.98093	0.98582
2418.92402	0.98605
2416.86712	0.98636
2414.81021	0.98662
2412.75330	0.98705
2410.69639	0.98743
2408.63948	0.98756
2406.58257	0.98750
2404.52567	0.98731
2402.46876	0.98694
2400.41185	0.98681
2398.35494	0.98705
2396.29803	0.98721
2394.24113	0.98740
2392.18422	0.98767
2390.12731	0.98758
2388.07040	0.98745
2386.01349	0.98772
2383.95658	0.98785
2381.89968	0.98779
2379.84277	0.98794
2377.78586	0.98793
2375.72895	0.98739
2373.67204	0.98681
2371.61514	0.98694
2369.55823	0.98791
2367.50132	0.98839
2365.44441	0.98764
2363.38750	0.98691
2361.33059	0.98691
2359.27369	0.98798
2357.21678	0.98946
2355.15987	0.98958
2353.10296	0.98852
2351.04605	0.98764
2348.98915	0.98726
2346.93224	0.98730
2344.87533	0.98749
2342.81842	0.98728
2340.76151	0.98657
2338.70460	0.98618
2336.64770	0.98715
2334.59079	0.98810
2332.53388	0.98775
2330.47697	0.98732
2328.42006	0.98654
2326.36316	0.98493
2324.30625	0.98413
2322.24934	0.98490
2320.19243	0.98610
2318.13552	0.98713
2316.07861	0.98761
2314.02171	0.98727
2311.96480	0.98684
2309.90789	0.98673
2307.85098	0.98689
2305.79407	0.98719
2303.73717	0.98756
2301.68026	0.98784
2299.62335	0.98722
2297.56644	0.98640
2295.50953	0.98651
2293.45262	0.98677
2291.39572	0.98636
2289.33881	0.98563
2287.28190	0.98547
2285.22499	0.98605
2283.16808	0.98675
2281.11117	0.98693
2279.05427	0.98616
2276.99736	0.98557
2274.94045	0.98624
2272.88354	0.98733
2270.82663	0.98816
2268.76973	0.98854
2266.71282	0.98835
2264.65591	0.98823
2262.59900	0.98826
2260.54209	0.98778
2258.48518	0.98690
2256.42828	0.98657
2254.37137	0.98667
2252.31446	0.98634
2250.25755	0.98610
2248.20064	0.98646
2246.14374	0.98683
2244.08683	0.98684
2242.02992	0.98704
2239.97301	0.98755
2237.91610	0.98749
2235.85919	0.98661
2233.80229	0.98653
2231.74538	0.98828
2229.68847	0.99006
2227.63156	0.98985
2225.57465	0.98837
2223.51775	0.98803
2221.46084	0.98838
2219.40393	0.98837
2217.34702	0.98878
2215.29011	0.98899
2213.23320	0.98896
2211.17630	0.98921
2209.11939	0.98992
2207.06248	0.99127
2205.00557	0.99142
2202.94866	0.98954
2200.89176	0.98781
2198.83485	0.98832
2196.77794	0.99003
2194.72103	0.98958
2192.66412	0.98696
2190.60721	0.98601
2188.55031	0.98874
2186.49340	0.99297
2184.43649	0.99435
2182.37958	0.99230
2180.32267	0.99001
2178.26577	0.98863
2176.20886	0.98796
2174.15195	0.98778
2172.09504	0.98690
2170.03813	0.98541
2167.98122	0.98485
2165.92432	0.98574
2163.86741	0.98679
2161.81050	0.98748
2159.75359	0.98909
2157.69668	0.99066
2155.63978	0.99192
2153.58287	0.99386
2151.52596	0.99445
2149.46905	0.99332
2147.41214	0.99234
2145.35523	0.99167
2143.29833	0.99126
2141.24142	0.99118
2139.18451	0.99135
2137.12760	0.99247
2135.07069	0.99337
2133.01379	0.99244
2130.95688	0.99097
2128.89997	0.99025
2126.84306	0.99008
2124.78615	0.98990
2122.72924	0.98940
2120.67234	0.98865
2118.61543	0.98814
2116.55852	0.98799
2114.50161	0.98804
2112.44470	0.98840
2110.38780	0.98879
2108.33089	0.98881
2106.27398	0.98838
2104.21707	0.98795
2102.16016	0.98794
2100.10325	0.98832
2098.04635	0.98926
2095.98944	0.98995
2093.93253	0.98927
2091.87562	0.98842
2089.81871	0.98830
2087.76181	0.98764
2085.70490	0.98625
2083.64799	0.98601
2081.59108	0.98730
2079.53417	0.98820
2077.47726	0.98811
2075.42036	0.98778
2073.36345	0.98743
2071.30654	0.98751
2069.24963	0.98749
2067.19272	0.98668
2065.13582	0.98699
2063.07891	0.98900
2061.02200	0.99023
2058.96509	0.98997
2056.90818	0.98971
2054.85127	0.99056
2052.79437	0.99084
2050.73746	0.98936
2048.68055	0.98865
2046.62364	0.98944
2044.56673	0.98947
2042.50983	0.98775
2040.45292	0.98610
2038.39601	0.98610
2036.33910	0.98665
2034.28219	0.98662
2032.22528	0.98648
2030.16838	0.98664
2028.11147	0.98684
2026.05456	0.98822
2023.99765	0.99060
2021.94074	0.99056
2019.88384	0.98813
2017.82693	0.98792
2015.77002	0.99179
2013.71311	0.99643
2011.65620	0.99724
2009.59929	0.99349
2007.54239	0.98938
2005.48548	0.98917
2003.42857	0.99189
2001.37166	0.99233
1999.31475	0.98994
1997.25785	0.98825
1995.20094	0.98822
1993.14403	0.98931
1991.08712	0.98988
1989.03021	0.98868
1986.97330	0.98803
1984.91640	0.98861
1982.85949	0.98811
1980.80258	0.98773
1978.74567	0.99016
1976.68876	0.99283
1974.63186	0.99240
1972.57495	0.99077
1970.51804	0.99090
1968.46113	0.99282
1966.40422	0.99373
1964.34731	0.99224
1962.29041	0.99082
1960.23350	0.99016
1958.17659	0.98918
1956.11968	0.98939
1954.06277	0.99047
1952.00587	0.99052
1949.94896	0.99061
1947.89205	0.99133
1945.83514	0.99136
1943.77823	0.99067
1941.72132	0.99015
1939.66442	0.98989
1937.60751	0.98994
1935.55060	0.99017
1933.49369	0.98975
1931.43678	0.98881
1929.37988	0.98824
1927.32297	0.98765
1925.26606	0.98711
1923.20915	0.98835
1921.15224	0.99030
1919.09533	0.99049
1917.03843	0.98971
1914.98152	0.98943
1912.92461	0.98935
1910.86770	0.98899
1908.81079	0.98844
1906.75389	0.98793
1904.69698	0.98793
1902.64007	0.98902
1900.58316	0.99031
1898.52625	0.99051
1896.46934	0.98989
1894.41244	0.98940
1892.35553	0.98901
1890.29862	0.98832
1888.24171	0.98812
1886.18480	0.98867
1884.12790	0.98913
1882.07099	0.98943
1880.01408	0.98940
1877.95717	0.98893
1875.90026	0.98877
1873.84335	0.98917
1871.78645	0.98958
1869.72954	0.98971
1867.67263	0.98974
1865.61572	0.98975
1863.55881	0.98968
1861.50191	0.98957
1859.44500	0.98937
1857.38809	0.98884
1855.33118	0.98821
1853.27427	0.98826
1851.21736	0.98909
1849.16046	0.98994
1847.10355	0.99016
1845.04664	0.98989
1842.98973	0.98969
1840.93282	0.98949
1838.87592	0.98944
1836.81901	0.98978
1834.76210	0.98984
1832.70519	0.98937
1830.64828	0.98880
1828.59137	0.98851
1826.53447	0.98857
1824.47756	0.98854
1822.42065	0.98828
1820.36374	0.98841
1818.30683	0.98904
1816.24993	0.98956
1814.19302	0.98938
1812.13611	0.98891
1810.07920	0.98890
1808.02229	0.98915
1805.96538	0.98911
1803.90848	0.98915
1801.85157	0.98948
1799.79466	0.98938
1797.73775	0.98893
1795.68084	0.98903
1793.62394	0.98949
1791.56703	0.98955
1789.51012	0.98924
1787.45321	0.98890
1785.39630	0.98878
1783.33939	0.98892
1781.28249	0.98905
1779.22558	0.98879
1777.16867	0.98807
1775.11176	0.98765
1773.05485	0.98755
1770.99795	0.98696
1768.94104	0.98583
1766.88413	0.98442
1764.82722	0.98288
1762.77031	0.98105
1760.71340	0.97901
1758.65650	0.97683
1756.59959	0.97389
1754.54268	0.97099
1752.48577	0.96839
1750.42886	0.96498
1748.37196	0.96126
1746.31505	0.95855
1744.25814	0.95620
1742.20123	0.95346
1740.14432	0.95076
1738.08741	0.94865
1736.03051	0.94686
1733.97360	0.94503
1731.91669	0.94403
1729.85978	0.94373
1727.80287	0.94344
1725.74597	0.94318
1723.68906	0.94326
1721.63215	0.94371
1719.57524	0.94451
1717.51833	0.94579
1715.46142	0.94765
1713.40452	0.94988
1711.34761	0.95225
1709.29070	0.95444
1707.23379	0.95651
1705.17688	0.95889
1703.11998	0.96091
1701.06307	0.96277
1699.00616	0.96518
1696.94925	0.96739
1694.89234	0.96956
1692.83543	0.97125
1690.77853	0.97240
1688.72162	0.97340
1686.66471	0.97425
1684.60780	0.97515
1682.55089	0.97576
1680.49399	0.97600
1678.43708	0.97645
1676.38017	0.97704
1674.32326	0.97747
1672.26635	0.97767
1670.20944	0.97772
1668.15254	0.97791
1666.09563	0.97811
1664.03872	0.97799
1661.98181	0.97764
1659.92490	0.97743
1657.86800	0.97737
1655.81109	0.97729
1653.75418	0.97693
1651.69727	0.97640
1649.64036	0.97613
1647.58345	0.97595
1645.52655	0.97600
1643.46964	0.97629
1641.41273	0.97647
1639.35582	0.97631
1637.29891	0.97605
1635.24201	0.97619
1633.18510	0.97673
1631.12819	0.97706
1629.07128	0.97684
1627.01437	0.97646
1624.95746	0.97644
1622.90056	0.97669
1620.84365	0.97693
1618.78674	0.97689
1616.72983	0.97655
1614.67292	0.97628
1612.61602	0.97627
1610.55911	0.97643
1608.50220	0.97644
1606.44529	0.97596
1604.38838	0.97543
1602.33147	0.97521
1600.27457	0.97517
1598.21766	0.97529
1596.16075	0.97548
1594.10384	0.97541
1592.04693	0.97517
1589.99003	0.97506
1587.93312	0.97505
1585.87621	0.97520
1583.81930	0.97541
1581.76239	0.97536
1579.70548	0.97511
1577.64858	0.97480
1575.59167	0.97478
1573.53476	0.97519
1571.47785	0.97566
1569.42094	0.97608
1567.36404	0.97608
1565.30713	0.97572
1563.25022	0.97553
1561.19331	0.97573
1559.13640	0.97630
1557.07949	0.97668
1555.02259	0.97673
1552.96568	0.97684
1550.90877	0.97691
1548.85186	0.97684
1546.79495	0.97685
1544.73805	0.97714
1542.68114	0.97754
1540.62423	0.97785
1538.56732	0.97816
1536.51041	0.97820
1534.45350	0.97828
1532.39660	0.97866
1530.33969	0.97892
1528.28278	0.97904
1526.22587	0.97923
1524.16896	0.97917
1522.11206	0.97885
1520.05515	0.97871
1517.99824	0.97880
1515.94133	0.97894
1513.88442	0.97924
1511.82751	0.97963
1509.77061	0.97979
1507.71370	0.97987
1505.65679	0.98012
1503.59988	0.98006
1501.54297	0.98002
1499.48607	0.98010
1497.42916	0.97989
1495.37225	0.97948
1493.31534	0.97930
1491.25843	0.97913
1489.20152	0.97888
1487.14462	0.97886
1485.08771	0.97886
1483.03080	0.97846
1480.97389	0.97767
1478.91698	0.97701
1476.86008	0.97666
1474.80317	0.97607
1472.74626	0.97479
1470.68935	0.97340
1468.63244	0.97234
1466.57553	0.97117
1464.51863	0.96996
1462.46172	0.96920
1460.40481	0.96855
1458.34790	0.96759
1456.29099	0.96653
1454.23409	0.96579
1452.17718	0.96516
1450.12027	0.96449
1448.06336	0.96379
1446.00645	0.96303
1443.94954	0.96226
1441.89264	0.96151
1439.83573	0.96065
1437.77882	0.95974
1435.72191	0.95927
1433.66500	0.95919
1431.60810	0.95897
1429.55119	0.95855
1427.49428	0.95824
1425.43737	0.95793
1423.38046	0.95761
1421.32355	0.95762
1419.26665	0.95777
1417.20974	0.95780
1415.15283	0.95774
1413.09592	0.95760
1411.03901	0.95744
1408.98211	0.95733
1406.92520	0.95751
1404.86829	0.95778
1402.81138	0.95770
1400.75447	0.95756
1398.69756	0.95766
1396.64066	0.95764
1394.58375	0.95707
1392.52684	0.95619
1390.46993	0.95535
1388.41302	0.95433
1386.35612	0.95301
1384.29921	0.95165
1382.24230	0.95005
1380.18539	0.94799
1378.12848	0.94580
1376.07157	0.94397
1374.01467	0.94245
1371.95776	0.94126
1369.90085	0.94081
1367.84394	0.94118
1365.78703	0.94223
1363.73013	0.94381
1361.67322	0.94575
1359.61631	0.94748
1357.55940	0.94896
1355.50249	0.95061
1353.44558	0.95236
1351.38868	0.95357
1349.33177	0.95424
1347.27486	0.95483
1345.21795	0.95540
1343.16104	0.95572
1341.10414	0.95591
1339.04723	0.95621
1336.99032	0.95652
1334.93341	0.95677
1332.87650	0.95706
1330.81959	0.95723
1328.76269	0.95732
1326.70578	0.95747
1324.64887	0.95768
1322.59196	0.95790
1320.53505	0.95794
1318.47815	0.95783
1316.42124	0.95772
1314.36433	0.95768
1312.30742	0.95779
1310.25051	0.95811
1308.19360	0.95861
1306.13670	0.95909
1304.07979	0.95925
1302.02288	0.95918
1299.96597	0.95921
1297.90906	0.95934
1295.85216	0.95940
1293.79525	0.95929
1291.73834	0.95895
1289.68143	0.95860
1287.62452	0.95822
1285.56761	0.95737
1283.51071	0.95603
1281.45380	0.95458
1279.39689	0.95325
1277.33998	0.95209
1275.28307	0.95072
1273.22617	0.94891
1271.16926	0.94704
1269.11235	0.94529
1267.05544	0.94351
1264.99853	0.94150
1262.94162	0.93948
1260.88472	0.93761
1258.82781	0.93541
1256.77090	0.93290
1254.71399	0.93066
1252.65708	0.92850
1250.60018	0.92619
1248.54327	0.92414
1246.48636	0.92233
1244.42945	0.92038
1242.37254	0.91855
1240.31563	0.91722
1238.25873	0.91618
1236.20182	0.91523
1234.14491	0.91447
1232.08800	0.91409
1230.03109	0.91415
1227.97419	0.91485
1225.91728	0.91645
1223.86037	0.91863
1221.80346	0.92117
1219.74655	0.92435
1217.68964	0.92808
1215.63274	0.93164
1213.57583	0.93469
1211.51892	0.93766
1209.46201	0.94052
1207.40510	0.94261
1205.34820	0.94394
1203.29129	0.94494
1201.23438	0.94603
1199.17747	0.94754
1197.12056	0.94930
1195.06365	0.95095
1193.00675	0.95236
1190.94984	0.95365
1188.89293	0.95463
1186.83602	0.95490
1184.77911	0.95475
1182.72221	0.95442
1180.66530	0.95356
1178.60839	0.95227
1176.55148	0.95089
1174.49457	0.94920
1172.43766	0.94686
1170.38076	0.94416
1168.32385	0.94136
1166.26694	0.93842
1164.21003	0.93562
1162.15312	0.93334
1160.09622	0.93161
1158.03931	0.93032
1155.98240	0.92963
1153.92549	0.92981
1151.86858	0.93057
1149.81167	0.93146
1147.75477	0.93225
1145.69786	0.93264
1143.64095	0.93253
1141.58404	0.93209
1139.52713	0.93119
1137.47023	0.92968
1135.41332	0.92785
1133.35641	0.92586
1131.29950	0.92370
1129.24259	0.92140
1127.18568	0.91904
1125.12878	0.91670
1123.07187	0.91455
1121.01496	0.91241
1118.95805	0.90999
1116.90114	0.90777
1114.84424	0.90619
1112.78733	0.90490
1110.73042	0.90378
1108.67351	0.90286
1106.61660	0.90157
1104.55969	0.89999
1102.50279	0.89880
1100.44588	0.89775
1098.38897	0.89629
1096.33206	0.89470
1094.27515	0.89335
1092.21825	0.89225
1090.16134	0.89110
1088.10443	0.88950
1086.04752	0.88746
1083.99061	0.88533
1081.93370	0.88318
1079.87680	0.88070
1077.81989	0.87765
1075.76298	0.87429
1073.70607	0.87103
1071.64916	0.86795
1069.59226	0.86535
1067.53535	0.86350
1065.47844	0.86206
1063.42153	0.86041
1061.36462	0.85843
1059.30771	0.85665
1057.25081	0.85524
1055.19390	0.85382
1053.13699	0.85241
1051.08008	0.85121
1049.02317	0.85001
1046.96627	0.84876
1044.90936	0.84732
1042.85245	0.84551
1040.79554	0.84374
1038.73863	0.84218
1036.68172	0.84048
1034.62482	0.83865
1032.56791	0.83696
1030.51100	0.83532
1028.45409	0.83370
1026.39718	0.83245
1024.34028	0.83172
1022.28337	0.83131
1020.22646	0.83092
1018.16955	0.83065
1016.11264	0.83098
1014.05573	0.83209
1011.99883	0.83360
1009.94192	0.83514
1007.88501	0.83699
1005.82810	0.83895
1003.77119	0.84028
1001.71429	0.84133
999.65738	0.84241
997.60047	0.84309
995.54356	0.84377
993.48665	0.84527
991.42974	0.84737
989.37284	0.84949
987.31593	0.85188
985.25902	0.85467
983.20211	0.85745
981.14520	0.86020
979.08830	0.86307
977.03139	0.86600
974.97448	0.86894
972.91757	0.87192
970.86066	0.87500
968.80375	0.87808
966.74685	0.88108
964.68994	0.88406
962.63303	0.88670
960.57612	0.88889
958.51921	0.89130
956.46231	0.89426
954.40540	0.89723
952.34849	0.89974
950.29158	0.90218
948.23467	0.90448
946.17776	0.90610
944.12086	0.90746
942.06395	0.90908
940.00704	0.91061
937.95013	0.91163
935.89322	0.91235
933.83632	0.91311
931.77941	0.91398
929.72250	0.91483
927.66559	0.91542
925.60868	0.91586
923.55177	0.91648
921.49487	0.91716
919.43796	0.91767
917.38105	0.91825
915.32414	0.91867
913.26723	0.91837
911.21033	0.91769
909.15342	0.91701
907.09651	0.91625
905.03960	0.91560
902.98269	0.91536
900.92578	0.91524
898.86888	0.91497
896.81197	0.91497
894.75506	0.91537
892.69815	0.91594
890.64124	0.91661
888.58434	0.91759
886.52743	0.91890
884.47052	0.92057
882.41361	0.92259
880.35670	0.92447
878.29979	0.92596
876.24289	0.92721
874.18598	0.92843
872.12907	0.93010
870.07216	0.93211
868.01525	0.93386
865.95835	0.93525
863.90144	0.93654
861.84453	0.93756
859.78762	0.93838
857.73071	0.93940
855.67380	0.94034
853.61690	0.94081
851.55999	0.94092
849.50308	0.94085
847.44617	0.94086
845.38926	0.94131
843.33236	0.94216
841.27545	0.94295
839.21854	0.94326
837.16163	0.94292
835.10472	0.94238
833.04781	0.94214
830.99091	0.94225
828.93400	0.94259
826.87709	0.94300
824.82018	0.94347
822.76327	0.94398
820.70637	0.94431
818.64946	0.94481
816.59255	0.94545
814.53564	0.94535
812.47873	0.94442
810.42182	0.94350
808.36492	0.94318
806.30801	0.94320
804.25110	0.94347
802.19419	0.94386
800.13728	0.94394
798.08038	0.94397
796.02347	0.94413
793.96656	0.94432
791.90965	0.94444
789.85274	0.94429
787.79583	0.94407
785.73893	0.94405
783.68202	0.94433
781.62511	0.94493
779.56820	0.94556
777.51129	0.94573
775.45439	0.94528
773.39748	0.94468
771.34057	0.94458
769.28366	0.94476
767.22675	0.94499
765.16984	0.94537
763.11294	0.94580
761.05603	0.94614
758.99912	0.94634
756.94221	0.94622
754.88530	0.94590
752.82839	0.94592
750.77149	0.94613
748.71458	0.94558
746.65767	0.94423
744.60076	0.94319
742.54385	0.94323
740.48695	0.94388
738.43004	0.94414
736.37313	0.94396
734.31622	0.94379
732.25931	0.94361
730.20240	0.94342
728.14550	0.94333
726.08859	0.94288
724.03168	0.94167
721.97477	0.94071
719.91786	0.94063
717.86096	0.94068
715.80405	0.94036
713.74714	0.93957
711.69023	0.93870
709.63332	0.93846
707.57641	0.93854
705.51951	0.93803
703.46260	0.93728
701.40569	0.93701
699.34878	0.93700
697.29187	0.93675
695.23497	0.93618
693.17806	0.93552
691.12115	0.93507
689.06424	0.93507
687.00733	0.93531
684.95042	0.93482
682.89352	0.93332
680.83661	0.93151
678.77970	0.93009
676.72279	0.92897
674.66588	0.92736
672.60898	0.92590
670.55207	0.92525
668.49516	0.92444
666.43825	0.92297
664.38134	0.92165
662.32443	0.92088
660.26753	0.92060
658.21062	0.92022
656.15371	0.91977
654.09680	0.91987
652.03989	0.92027
649.98299	0.91971
647.92608	0.91825
645.86917	0.91736
643.81226	0.91716
641.75535	0.91669
639.69844	0.91609
637.64154	0.91578
635.58463	0.91513
633.52772	0.91387
631.47081	0.91260
629.41390	0.91132
627.35700	0.90986
625.30009	0.90814
623.24318	0.90631
621.18627	0.90506
619.12936	0.90426
617.07245	0.90335
615.01555	0.90253
612.95864	0.90206
610.90173	0.90163
608.84482	0.90103
606.78791	0.90047
604.73101	0.89993
602.67410	0.89884
600.61719	0.89645
598.56028	0.89398
596.50337	0.89401
594.44646	0.89567
592.38956	0.89649
590.33265	0.89674
588.27574	0.89731
586.21883	0.89781
584.16192	0.89779
582.10502	0.89754
580.04811	0.89755
577.99120	0.89751
575.93429	0.89671
573.87738	0.89534
571.82047	0.89397
569.76357	0.89306
567.70666	0.89287
565.64975	0.89260
563.59284	0.89224
561.53593	0.89179
559.47903	0.89112
557.42212	0.89182
555.36521	0.89376
553.30830	0.89472
551.25139	0.89433
549.19448	0.89399
547.13758	0.89429
545.08067	0.89403
543.02376	0.89239
540.96685	0.89051
538.90994	0.88924
536.85304	0.88856
534.79613	0.88856
532.73922	0.88951
530.68231	0.89080
528.62540	0.89124
526.56849	0.89107
524.51159	0.89077
522.45468	0.89031
520.39777	0.88936
518.34086	0.88786
516.28395	0.88636
514.22705	0.88457
512.17014	0.88261
510.11323	0.88130
508.05632	0.88032
505.99941	0.87909
503.94250	0.87837
501.88560	0.87842
499.82869	0.87798
497.77178	0.87686
495.71487	0.87614
493.65796	0.87615
491.60106	0.87610
489.54415	0.87543
487.48724	0.87370
485.43033	0.87147
483.37342	0.87062
481.31651	0.87073
479.25961	0.86932
477.20270	0.86763
475.14579	0.86926
473.08888	0.87168
471.03197	0.87003
468.97507	0.86712
466.91816	0.86707
464.86125	0.86842
462.80434	0.86798
460.74743	0.86648
458.69052	0.86495
456.63362	0.86249
454.57671	0.86118
452.51980	0.86170
450.46289	0.86301
448.40598	0.86527
446.34908	0.86659
444.29217	0.86536
442.23526	0.86294
440.17835	0.86094
438.12144	0.86039
436.06453	0.86153
434.00763	0.86353
431.95072	0.86517
429.89381	0.86382
427.83690	0.85688
425.77999	0.84909
423.72309	0.84765
421.66618	0.85134
419.60927	0.85712
417.55236	0.86247
415.49545	0.86397
413.43854	0.86425
411.38164	0.86372
409.32473	0.86143
407.26782	0.85995
405.21091	0.86041
403.15400	0.86315
401.09710	0.86996
399.04019	0.87447
