3996.57260	0.99532
3994.51569	0.99486
3992.45878	0.99460
3990.40188	0.99494
3988.34497	0.99530
3986.28806	0.99537
3984.23115	0.99539
3982.17424	0.99547
3980.11733	0.99521
3978.06043	0.99469
3976.00352	0.99441
3973.94661	0.99442
3971.88970	0.99450
3969.83279	0.99480
3967.77589	0.99526
3965.71898	0.99511
3963.66207	0.99477
3961.60516	0.99529
3959.54825	0.99567
3957.49134	0.99497
3955.43444	0.99450
3953.37753	0.99488
3951.32062	0.99542
3949.26371	0.99542
3947.20680	0.99458
3945.14990	0.99386
3943.09299	0.99444
3941.03608	0.99555
3938.97917	0.99589
3936.92226	0.99588
3934.86535	0.99621
3932.80845	0.99636
3930.75154	0.99573
3928.69463	0.99533
3926.63772	0.99548
3924.58081	0.99553
3922.52391	0.99560
3920.46700	0.99575
3918.41009	0.99554
3916.35318	0.99505
3914.29627	0.99512
3912.23936	0.99537
3910.18246	0.99536
3908.12555	0.99570
3906.06864	0.99655
3904.01173	0.99687
3901.95482	0.99563
3899.89792	0.99458
3897.84101	0.99529
3895.78410	0.99623
3893.72719	0.99649
3891.67028	0.99692
3889.61337	0.99720
3887.55647	0.99672
3885.49956	0.99594
3883.44265	0.99528
3881.38574	0.99502
3879.32883	0.99512
3877.27193	0.99523
3875.21502	0.99507
3873.15811	0.99471
3871.10120	0.99447
3869.04429	0.99456
3866.98738	0.99482
3864.93048	0.99526
3862.87357	0.99612
3860.81666	0.99679
3858.75975	0.99652
3856.70284	0.99582
3854.64594	0.99543
3852.58903	0.99515
3850.53212	0.99465
3848.47521	0.99419
3846.41830	0.99431
3844.36139	0.99517
3842.30449	0.99542
3840.24758	0.99447
3838.19067	0.99411
3836.13376	0.99510
3834.07685	0.99579
3832.01995	0.99554
3829.96304	0.99488
3827.90613	0.99465
3825.84922	0.99514
3823.79231	0.99530
3821.73540	0.99448
3819.67850	0.99417
3817.62159	0.99464
3815.56468	0.99486
3813.50777	0.99486
3811.45086	0.99464
3809.39396	0.99450
3807.33705	0.99516
3805.28014	0.99614
3803.22323	0.99636
3801.16632	0.99584
3799.10941	0.99539
3797.05251	0.99529
3794.99560	0.99525
3792.93869	0.99521
3790.88178	0.99522
3788.82487	0.99528
3786.76796	0.99512
3784.71106	0.99449
3782.65415	0.99401
3780.59724	0.99438
3778.54033	0.99481
3776.48342	0.99446
3774.42652	0.99418
3772.36961	0.99386
3770.31270	0.99346
3768.25579	0.99365
3766.19888	0.99418
3764.14197	0.99492
3762.08507	0.99560
3760.02816	0.99586
3757.97125	0.99587
3755.91434	0.99607
3753.85743	0.99618
3751.80053	0.99595
3749.74362	0.99533
3747.68671	0.99481
3745.62980	0.99525
3743.57289	0.99662
3741.51598	0.99710
3739.45908	0.99596
3737.40217	0.99426
3735.34526	0.99385
3733.28835	0.99506
3731.23144	0.99610
3729.17454	0.99625
3727.11763	0.99587
3725.06072	0.99551
3723.00381	0.99532
3720.94690	0.99518
3718.88999	0.99524
3716.83309	0.99514
3714.77618	0.99466
3712.71927	0.99428
3710.66236	0.99421
3708.60545	0.99420
3706.54855	0.99471
3704.49164	0.99571
3702.43473	0.99599
3700.37782	0.99558
3698.32091	0.99528
3696.26400	0.99471
3694.20710	0.99433
3692.15019	0.99467
3690.09328	0.99502
3688.03637	0.99494
3685.97946	0.99474
3683.92256	0.99487
3681.86565	0.99552
3679.80874	0.99611
3677.75183	0.99639
3675.69492	0.99683
3673.63801	0.99662
3671.58111	0.99573
3669.52420	0.99574
3667.46729	0.99625
3665.41038	0.99608
3663.35347	0.99526
3661.29657	0.99435
3659.23966	0.99429
3657.18275	0.99496
3655.12584	0.99512
3653.06893	0.99484
3651.01202	0.99494
3648.95512	0.99538
3646.89821	0.99553
3644.84130	0.99559
3642.78439	0.99606
3640.72748	0.99630
3638.67058	0.99612
3636.61367	0.99593
3634.55676	0.99538
3632.49985	0.99480
3630.44294	0.99466
3628.38603	0.99426
3626.32913	0.99354
3624.27222	0.99363
3622.21531	0.99442
3620.15840	0.99525
3618.10149	0.99570
3616.04459	0.99529
3613.98768	0.99438
3611.93077	0.99368
3609.87386	0.99331
3607.81695	0.99310
3605.76004	0.99326
3603.70314	0.99387
3601.64623	0.99410
3599.58932	0.99348
3597.53241	0.99249
3595.47550	0.99173
3593.41860	0.99138
3591.36169	0.99081
3589.30478	0.98997
3587.24787	0.98944
3585.19096	0.98944
3583.13405	0.98982
3581.07715	0.99009
3579.02024	0.98980
3576.96333	0.98925
3574.90642	0.98882
3572.84951	0.98876
3570.79261	0.98921
3568.73570	0.98940
3566.67879	0.98859
3564.62188	0.98749
3562.56497	0.98668
3560.50806	0.98625
3558.45116	0.98626
3556.39425	0.98653
3554.33734	0.98671
3552.28043	0.98627
3550.22352	0.98514
3548.16662	0.98390
3546.10971	0.98279
3544.05280	0.98203
3541.99589	0.98190
3539.93898	0.98189
3537.88207	0.98135
3535.82517	0.98039
3533.76826	0.97973
3531.71135	0.97983
3529.65444	0.98009
3527.59753	0.97966
3525.54063	0.97918
3523.48372	0.97923
3521.42681	0.97882
3519.36990	0.97778
3517.31299	0.97670
3515.25608	0.97584
3513.19918	0.97531
3511.14227	0.97486
3509.08536	0.97444
3507.02845	0.97461
3504.97154	0.97535
3502.91464	0.97577
3500.85773	0.97541
3498.80082	0.97510
3496.74391	0.97523
3494.68700	0.97510
3492.63009	0.97465
3490.57319	0.97439
3488.51628	0.97417
3486.45937	0.97369
3484.40246	0.97376
3482.34555	0.97465
3480.28865	0.97526
3478.23174	0.97519
3476.17483	0.97485
3474.11792	0.97432
3472.06101	0.97364
3470.00410	0.97323
3467.94720	0.97333
3465.89029	0.97394
3463.83338	0.97470
3461.77647	0.97545
3459.71956	0.97603
3457.66266	0.97593
3455.60575	0.97588
3453.54884	0.97646
3451.49193	0.97694
3449.43502	0.97691
3447.37811	0.97647
3445.32121	0.97647
3443.26430	0.97730
3441.20739	0.97786
3439.15048	0.97798
3437.09357	0.97857
3435.03667	0.97957
3432.97976	0.98026
3430.92285	0.98047
3428.86594	0.98028
3426.80903	0.97993
3424.75212	0.98002
3422.69522	0.98076
3420.63831	0.98159
3418.58140	0.98188
3416.52449	0.98172
3414.46758	0.98194
3412.41068	0.98285
3410.35377	0.98364
3408.29686	0.98386
3406.23995	0.98372
3404.18304	0.98342
3402.12613	0.98342
3400.06923	0.98381
3398.01232	0.98445
3395.95541	0.98531
3393.89850	0.98573
3391.84159	0.98577
3389.78469	0.98601
3387.72778	0.98616
3385.67087	0.98640
3383.61396	0.98683
3381.55705	0.98689
3379.50014	0.98637
3377.44324	0.98567
3375.38633	0.98588
3373.32942	0.98703
3371.27251	0.98751
3369.21560	0.98715
3367.15870	0.98704
3365.10179	0.98709
3363.04488	0.98689
3360.98797	0.98685
3358.93106	0.98744
3356.87415	0.98827
3354.81725	0.98875
3352.76034	0.98885
3350.70343	0.98864
3348.64652	0.98849
3346.58961	0.98849
3344.53271	0.98854
3342.47580	0.98892
3340.41889	0.98928
3338.36198	0.98941
3336.30507	0.98985
3334.24816	0.99034
3332.19126	0.99038
3330.13435	0.99013
3328.07744	0.98999
3326.02053	0.99012
3323.96362	0.99043
3321.90672	0.99060
3319.84981	0.99076
3317.79290	0.99114
3315.73599	0.99149
3313.67908	0.99155
3311.62217	0.99132
3309.56527	0.99097
3307.50836	0.99063
3305.45145	0.99071
3303.39454	0.99127
3301.33763	0.99167
3299.28073	0.99161
3297.22382	0.99164
3295.16691	0.99236
3293.11000	0.99325
3291.05309	0.99295
3288.99618	0.99183
3286.93928	0.99157
3284.88237	0.99197
3282.82546	0.99203
3280.76855	0.99192
3278.71164	0.99235
3276.65474	0.99288
3274.59783	0.99291
3272.54092	0.99273
3270.48401	0.99248
3268.42710	0.99271
3266.37019	0.99339
3264.31329	0.99339
3262.25638	0.99283
3260.19947	0.99259
3258.14256	0.99248
3256.08565	0.99221
3254.02875	0.99226
3251.97184	0.99290
3249.91493	0.99317
3247.85802	0.99277
3245.80111	0.99258
3243.74420	0.99298
3241.68730	0.99356
3239.63039	0.99363
3237.57348	0.99328
3235.51657	0.99310
3233.45966	0.99302
3231.40276	0.99279
3229.34585	0.99235
3227.28894	0.99199
3225.23203	0.99210
3223.17512	0.99241
3221.11821	0.99234
3219.06131	0.99227
3217.00440	0.99270
3214.94749	0.99342
3212.89058	0.99383
3210.83367	0.99378
3208.77677	0.99382
3206.71986	0.99430
3204.66295	0.99464
3202.60604	0.99446
3200.54913	0.99431
3198.49222	0.99442
3196.43532	0.99465
3194.37841	0.99484
3192.32150	0.99503
3190.26459	0.99512
3188.20768	0.99468
3186.15078	0.99415
3184.09387	0.99421
3182.03696	0.99441
3179.98005	0.99437
3177.92314	0.99403
3175.86623	0.99352
3173.80933	0.99328
3171.75242	0.99319
3169.69551	0.99307
3167.63860	0.99298
3165.58169	0.99303
3163.52479	0.99343
3161.46788	0.99384
3159.41097	0.99383
3157.35406	0.99383
3155.29715	0.99417
3153.24024	0.99443
3151.18334	0.99443
3149.12643	0.99437
3147.06952	0.99439
3145.01261	0.99450
3142.95570	0.99455
3140.89880	0.99430
3138.84189	0.99402
3136.78498	0.99416
3134.72807	0.99446
3132.67116	0.99443
3130.61425	0.99390
3128.55735	0.99337
3126.50044	0.99337
3124.44353	0.99348
3122.38662	0.99360
3120.32971	0.99402
3118.27281	0.99416
3116.21590	0.99386
3114.15899	0.99359
3112.10208	0.99352
3110.04517	0.99354
3107.98826	0.99359
3105.93136	0.99371
3103.87445	0.99416
3101.81754	0.99478
3099.76063	0.99468
3097.70372	0.99411
3095.64682	0.99386
3093.58991	0.99362
3091.53300	0.99351
3089.47609	0.99404
3087.41918	0.99487
3085.36227	0.99542
3083.30537	0.99529
3081.24846	0.99442
3079.19155	0.99365
3077.13464	0.99364
3075.07773	0.99368
3073.02083	0.99349
3070.96392	0.99391
3068.90701	0.99452
3066.85010	0.99425
3064.79319	0.99351
3062.73628	0.99306
3060.67938	0.99313
3058.62247	0.99347
3056.56556	0.99366
3054.50865	0.99392
3052.45174	0.99435
3050.39484	0.99452
3048.33793	0.99434
3046.28102	0.99411
3044.22411	0.99371
3042.16720	0.99301
3040.11029	0.99280
3038.05339	0.99313
3035.99648	0.99300
3033.93957	0.99238
3031.88266	0.99201
3029.82575	0.99233
3027.76885	0.99278
3025.71194	0.99257
3023.65503	0.99200
3021.59812	0.99165
3019.54121	0.99165
3017.48430	0.99193
3015.42740	0.99223
3013.37049	0.99257
3011.31358	0.99278
3009.25667	0.99235
3007.19976	0.99165
3005.14286	0.99128
3003.08595	0.99117
3001.02904	0.99105
2998.97213	0.99104
2996.91522	0.99141
2994.85831	0.99173
2992.80141	0.99145
2990.74450	0.99079
2988.68759	0.99025
2986.63068	0.99007
2984.57377	0.99004
2982.51687	0.98989
2980.45996	0.98974
2978.40305	0.98975
2976.34614	0.98960
2974.28923	0.98901
2972.23232	0.98829
2970.17542	0.98775
2968.11851	0.98731
2966.06160	0.98697
2964.00469	0.98674
2961.94778	0.98671
2959.89088	0.98688
2957.83397	0.98704
2955.77706	0.98695
2953.72015	0.98628
2951.66324	0.98552
2949.60633	0.98537
2947.54943	0.98530
2945.49252	0.98515
2943.43561	0.98514
2941.37870	0.98531
2939.32179	0.98571
2937.26489	0.98586
2935.20798	0.98547
2933.15107	0.98517
2931.09416	0.98527
2929.03725	0.98572
2926.98034	0.98637
2924.92344	0.98660
2922.86653	0.98612
2920.80962	0.98556
2918.75271	0.98562
2916.69580	0.98609
2914.63890	0.98621
2912.58199	0.98594
2910.52508	0.98587
2908.46817	0.98607
2906.41126	0.98642
2904.35435	0.98695
2902.29745	0.98710
2900.24054	0.98629
2898.18363	0.98536
2896.12672	0.98529
2894.06981	0.98559
2892.01291	0.98558
2889.95600	0.98537
2887.89909	0.98523
2885.84218	0.98530
2883.78527	0.98547
2881.72836	0.98561
2879.67146	0.98583
2877.61455	0.98607
2875.55764	0.98656
2873.50073	0.98716
2871.44382	0.98711
2869.38692	0.98673
2867.33001	0.98700
2865.27310	0.98775
2863.21619	0.98816
2861.15928	0.98852
2859.10237	0.98926
2857.04547	0.99000
2854.98856	0.99044
2852.93165	0.99068
2850.87474	0.99088
2848.81783	0.99114
2846.76093	0.99158
2844.70402	0.99194
2842.64711	0.99197
2840.59020	0.99210
2838.53329	0.99227
2836.47638	0.99213
2834.41948	0.99215
2832.36257	0.99237
2830.30566	0.99244
2828.24875	0.99256
2826.19184	0.99289
2824.13494	0.99307
2822.07803	0.99289
2820.02112	0.99241
2817.96421	0.99201
2815.90730	0.99222
2813.85039	0.99274
2811.79349	0.99303
2809.73658	0.99323
2807.67967	0.99331
2805.62276	0.99328
2803.56585	0.99356
2801.50895	0.99412
2799.45204	0.99413
2797.39513	0.99341
2795.33822	0.99285
2793.28131	0.99288
2791.22440	0.99318
2789.16750	0.99368
2787.11059	0.99403
2785.05368	0.99390
2782.99677	0.99363
2780.93986	0.99369
2778.88296	0.99384
2776.82605	0.99369
2774.76914	0.99350
2772.71223	0.99358
2770.65532	0.99375
2768.59841	0.99378
2766.54151	0.99384
2764.48460	0.99382
2762.42769	0.99341
2760.37078	0.99310
2758.31387	0.99351
2756.25697	0.99420
2754.20006	0.99443
2752.14315	0.99423
2750.08624	0.99396
2748.02933	0.99384
2745.97242	0.99389
2743.91552	0.99398
2741.85861	0.99416
2739.80170	0.99429
2737.74479	0.99419
2735.68788	0.99412
2733.63098	0.99429
2731.57407	0.99437
2729.51716	0.99409
2727.46025	0.99401
2725.40334	0.99421
2723.34643	0.99403
2721.28953	0.99400
2719.23262	0.99447
2717.17571	0.99458
2715.11880	0.99405
2713.06189	0.99355
2711.00499	0.99346
2708.94808	0.99341
2706.89117	0.99336
2704.83426	0.99365
2702.77735	0.99404
2700.72044	0.99418
2698.66354	0.99403
2696.60663	0.99387
2694.54972	0.99407
2692.49281	0.99438
2690.43590	0.99445
2688.37900	0.99431
2686.32209	0.99407
2684.26518	0.99404
2682.20827	0.99438
2680.15136	0.99455
2678.09445	0.99415
2676.03755	0.99374
2673.98064	0.99370
2671.92373	0.99389
2669.86682	0.99396
2667.80991	0.99380
2665.75301	0.99372
2663.69610	0.99381
2661.63919	0.99403
2659.58228	0.99424
2657.52537	0.99408
2655.46846	0.99364
2653.41156	0.99343
2651.35465	0.99355
2649.29774	0.99368
2647.24083	0.99363
2645.18392	0.99331
2643.12702	0.99317
2641.07011	0.99376
2639.01320	0.99446
2636.95629	0.99463
2634.89938	0.99432
2632.84247	0.99388
2630.78557	0.99365
2628.72866	0.99361
2626.67175	0.99367
2624.61484	0.99382
2622.55793	0.99418
2620.50103	0.99459
2618.44412	0.99463
2616.38721	0.99473
2614.33030	0.99496
2612.27339	0.99483
2610.21648	0.99454
2608.15958	0.99449
2606.10267	0.99442
2604.04576	0.99413
2601.98885	0.99398
2599.93194	0.99431
2597.87504	0.99455
2595.81813	0.99434
2593.76122	0.99440
2591.70431	0.99470
2589.64740	0.99469
2587.59049	0.99477
2585.53359	0.99523
2583.47668	0.99562
2581.41977	0.99575
2579.36286	0.99574
2577.30595	0.99566
2575.24905	0.99554
2573.19214	0.99522
2571.13523	0.99465
2569.07832	0.99454
2567.02141	0.99514
2564.96450	0.99570
2562.90760	0.99573
2560.85069	0.99541
2558.79378	0.99522
2556.73687	0.99527
2554.67996	0.99548
2552.62306	0.99579
2550.56615	0.99586
2548.50924	0.99574
2546.45233	0.99568
2544.39542	0.99551
2542.33851	0.99517
2540.28161	0.99490
2538.22470	0.99479
2536.16779	0.99488
2534.11088	0.99495
2532.05397	0.99471
2529.99707	0.99449
2527.94016	0.99491
2525.88325	0.99576
2523.82634	0.99599
2521.76943	0.99552
2519.71252	0.99510
2517.65562	0.99514
2515.59871	0.99563
2513.54180	0.99636
2511.48489	0.99692
2509.42798	0.99681
2507.37108	0.99622
2505.31417	0.99574
2503.25726	0.99548
2501.20035	0.99521
2499.14344	0.99506
2497.08653	0.99490
2495.02963	0.99444
2492.97272	0.99429
2490.91581	0.99489
2488.85890	0.99541
2486.80199	0.99523
2484.74509	0.99471
2482.68818	0.99432
2480.63127	0.99446
2478.57436	0.99498
2476.51745	0.99559
2474.46054	0.99628
2472.40364	0.99655
2470.34673	0.99620
2468.28982	0.99543
2466.23291	0.99485
2464.17600	0.99483
2462.11910	0.99492
2460.06219	0.99523
2458.00528	0.99563
2455.94837	0.99537
2453.89146	0.99471
2451.83455	0.99456
2449.77765	0.99540
2447.72074	0.99653
2445.66383	0.99678
2443.60692	0.99637
2441.55001	0.99606
2439.49311	0.99594
2437.43620	0.99578
2435.37929	0.99559
2433.32238	0.99556
2431.26547	0.99575
2429.20856	0.99589
2427.15166	0.99532
2425.09475	0.99432
2423.03784	0.99397
2420.98093	0.99439
2418.92402	0.99507
2416.86712	0.99573
2414.81021	0.99605
2412.75330	0.99604
2410.69639	0.99605
2408.63948	0.99613
2406.58257	0.99591
2404.52567	0.99534
2402.46876	0.99512
2400.41185	0.99549
2398.35494	0.99566
2396.29803	0.99525
2394.24113	0.99492
2392.18422	0.99522
2390.12731	0.99573
2388.07040	0.99612
2386.01349	0.99642
2383.95658	0.99639
2381.89968	0.99599
2379.84277	0.99577
2377.78586	0.99586
2375.72895	0.99582
2373.67204	0.99552
2371.61514	0.99481
2369.55823	0.99389
2367.50132	0.99340
2365.44441	0.99326
2363.38750	0.99361
2361.33059	0.99491
2359.27369	0.99614
2357.21678	0.99608
2355.15987	0.99522
2353.10296	0.99445
2351.04605	0.99414
2348.98915	0.99408
2346.93224	0.99399
2344.87533	0.99388
2342.81842	0.99415
2340.76151	0.99475
2338.70460	0.99501
2336.64770	0.99522
2334.59079	0.99521
2332.53388	0.99446
2330.47697	0.99402
2328.42006	0.99444
2326.36316	0.99513
2324.30625	0.99570
2322.24934	0.99597
2320.19243	0.99593
2318.13552	0.99543
2316.07861	0.99499
2314.02171	0.99533
2311.96480	0.99563
2309.90789	0.99521
2307.85098	0.99469
2305.79407	0.99444
2303.73717	0.99419
2301.68026	0.99390
2299.62335	0.99390
2297.56644	0.99412
2295.50953	0.99417
2293.45262	0.99416
2291.39572	0.99437
2289.33881	0.99496
2287.28190	0.99593
2285.22499	0.99659
2283.16808	0.99633
2281.11117	0.99535
2279.05427	0.99488
2276.99736	0.99564
2274.94045	0.99583
2272.88354	0.99488
2270.82663	0.99438
2268.76973	0.99430
2266.71282	0.99417
2264.65591	0.99421
2262.59900	0.99474
2260.54209	0.99559
2258.48518	0.99573
2256.42828	0.99527
2254.37137	0.99554
2252.31446	0.99622
2250.25755	0.99563
2248.20064	0.99441
2246.14374	0.99463
2244.08683	0.99556
2242.02992	0.99565
2239.97301	0.99536
2237.91610	0.99516
2235.85919	0.99548
2233.80229	0.99559
2231.74538	0.99449
2229.68847	0.99380
2227.63156	0.99443
2225.57465	0.99470
2223.51775	0.99448
2221.46084	0.99518
2219.40393	0.99615
2217.34702	0.99611
2215.29011	0.99591
2213.23320	0.99628
2211.17630	0.99666
2209.11939	0.99672
2207.06248	0.99670
2205.00557	0.99652
2202.94866	0.99607
2200.89176	0.99594
2198.83485	0.99592
2196.77794	0.99567
2194.72103	0.99533
2192.66412	0.99473
2190.60721	0.99392
2188.55031	0.99366
2186.49340	0.99458
2184.43649	0.99626
2182.37958	0.99767
2180.32267	0.99716
2178.26577	0.99574
2176.20886	0.99650
2174.15195	0.99860
2172.09504	0.99991
2170.03813	0.99974
2167.98122	0.99689
2165.92432	0.99366
2163.86741	0.99299
2161.81050	0.99450
2159.75359	0.99847
2157.69668	1.00065
2155.63978	0.99941
2153.58287	0.99926
2151.52596	0.99946
2149.46905	0.99831
2147.41214	0.99677
2145.35523	0.99554
2143.29833	0.99463
2141.24142	0.99431
2139.18451	0.99435
2137.12760	0.99439
2135.07069	0.99516
2133.01379	0.99600
2130.95688	0.99605
2128.89997	0.99574
2126.84306	0.99518
2124.78615	0.99508
2122.72924	0.99558
2120.67234	0.99571
2118.61543	0.99529
2116.55852	0.99446
2114.50161	0.99385
2112.44470	0.99347
2110.38780	0.99309
2108.33089	0.99366
2106.27398	0.99533
2104.21707	0.99640
2102.16016	0.99602
2100.10325	0.99548
2098.04635	0.99557
2095.98944	0.99560
2093.93253	0.99498
2091.87562	0.99397
2089.81871	0.99344
2087.76181	0.99430
2085.70490	0.99566
2083.64799	0.99582
2081.59108	0.99509
2079.53417	0.99470
2077.47726	0.99481
2075.42036	0.99481
2073.36345	0.99496
2071.30654	0.99546
2069.24963	0.99537
2067.19272	0.99493
2065.13582	0.99553
2063.07891	0.99696
2061.02200	0.99790
2058.96509	0.99780
2056.90818	0.99715
2054.85127	0.99624
2052.79437	0.99491
2050.73746	0.99378
2048.68055	0.99370
2046.62364	0.99445
2044.56673	0.99514
2042.50983	0.99599
2040.45292	0.99728
2038.39601	0.99766
2036.33910	0.99635
2034.28219	0.99632
2032.22528	0.99819
2030.16838	0.99784
2028.11147	0.99594
2026.05456	0.99598
2023.99765	0.99871
2021.94074	1.00133
2019.88384	1.00138
2017.82693	1.00062
2015.77002	0.99996
2013.71311	0.99873
2011.65620	0.99734
2009.59929	0.99618
2007.54239	0.99570
2005.48548	0.99636
2003.42857	0.99662
2001.37166	0.99649
1999.31475	0.99733
1997.25785	0.99774
1995.20094	0.99748
1993.14403	0.99705
1991.08712	0.99629
1989.03021	0.99606
1986.97330	0.99593
1984.91640	0.99552
1982.85949	0.99570
1980.80258	0.99691
1978.74567	0.99917
1976.68876	1.00012
1974.63186	0.99938
1972.57495	0.99932
1970.51804	0.99946
1968.46113	0.99907
1966.40422	0.99797
1964.34731	0.99713
1962.29041	0.99709
1960.23350	0.99682
1958.17659	0.99619
1956.11968	0.99575
1954.06277	0.99602
1952.00587	0.99637
1949.94896	0.99645
1947.89205	0.99709
1945.83514	0.99736
1943.77823	0.99665
1941.72132	0.99651
1939.66442	0.99714
1937.60751	0.99704
1935.55060	0.99582
1933.49369	0.99496
1931.43678	0.99571
1929.37988	0.99652
1927.32297	0.99592
1925.26606	0.99516
1923.20915	0.99500
1921.15224	0.99494
1919.09533	0.99473
1917.03843	0.99416
1914.98152	0.99389
1912.92461	0.99443
1910.86770	0.99527
1908.81079	0.99583
1906.75389	0.99591
1904.69698	0.99614
1902.64007	0.99697
1900.58316	0.99763
1898.52625	0.99743
1896.46934	0.99665
1894.41244	0.99625
1892.35553	0.99624
1890.29862	0.99591
1888.24171	0.99556
1886.18480	0.99560
1884.12790	0.99592
1882.07099	0.99627
1880.01408	0.99669
1877.95717	0.99699
1875.90026	0.99695
1873.84335	0.99645
1871.78645	0.99598
1869.72954	0.99623
1867.67263	0.99645
1865.61572	0.99620
1863.55881	0.99600
1861.50191	0.99562
1859.44500	0.99526
1857.38809	0.99548
1855.33118	0.99567
1853.27427	0.99554
1851.21736	0.99543
1849.16046	0.99524
1847.10355	0.99490
1845.04664	0.99448
1842.98973	0.99444
1840.93282	0.99482
1838.87592	0.99488
1836.81901	0.99441
1834.76210	0.99424
1832.70519	0.99443
1830.64828	0.99420
1828.59137	0.99366
1826.53447	0.99342
1824.47756	0.99326
1822.42065	0.99324
1820.36374	0.99360
1818.30683	0.99400
1816.24993	0.99381
1814.19302	0.99286
1812.13611	0.99205
1810.07920	0.99183
1808.02229	0.99174
1805.96538	0.99147
1803.90848	0.99097
1801.85157	0.99023
1799.79466	0.98982
1797.73775	0.98964
1795.68084	0.98927
1793.62394	0.98875
1791.56703	0.98803
1789.51012	0.98709
1787.45321	0.98580
1785.39630	0.98427
1783.33939	0.98256
1781.28249	0.98060
1779.22558	0.97819
1777.16867	0.97551
1775.11176	0.97258
1773.05485	0.96808
1770.99795	0.96073
1768.94104	0.95212
1766.88413	0.94268
1764.82722	0.93205
1762.77031	0.91867
1760.71340	0.90293
1758.65650	0.88911
1756.59959	0.87626
1754.54268	0.86506
1752.48577	0.85577
1750.42886	0.84568
1748.37196	0.83622
1746.31505	0.82993
1744.25814	0.82590
1742.20123	0.82346
1740.14432	0.82295
1738.08741	0.82468
1736.03051	0.82852
1733.97360	0.83466
1731.91669	0.84228
1729.85978	0.85057
1727.80287	0.85984
1725.74597	0.86972
1723.68906	0.88037
1721.63215	0.89044
1719.57524	0.89989
1717.51833	0.91111
1715.46142	0.92266
1713.40452	0.93163
1711.34761	0.93906
1709.29070	0.94558
1707.23379	0.95145
1705.17688	0.95698
1703.11998	0.96148
1701.06307	0.96506
1699.00616	0.96831
1696.94925	0.97153
1694.89234	0.97493
1692.83543	0.97703
1690.77853	0.97803
1688.72162	0.97889
1686.66471	0.97976
1684.60780	0.98103
1682.55089	0.98237
1680.49399	0.98304
1678.43708	0.98353
1676.38017	0.98392
1674.32326	0.98398
1672.26635	0.98406
1670.20944	0.98442
1668.15254	0.98494
1666.09563	0.98534
1664.03872	0.98549
1661.98181	0.98564
1659.92490	0.98593
1657.86800	0.98621
1655.81109	0.98638
1653.75418	0.98660
1651.69727	0.98690
1649.64036	0.98689
1647.58345	0.98679
1645.52655	0.98693
1643.46964	0.98704
1641.41273	0.98715
1639.35582	0.98747
1637.29891	0.98752
1635.24201	0.98730
1633.18510	0.98763
1631.12819	0.98807
1629.07128	0.98832
1627.01437	0.98873
1624.95746	0.98930
1622.90056	0.98955
1620.84365	0.98951
1618.78674	0.98945
1616.72983	0.98945
1614.67292	0.98975
1612.61602	0.99017
1610.55911	0.99042
1608.50220	0.99046
1606.44529	0.99052
1604.38838	0.99087
1602.33147	0.99136
1600.27457	0.99174
1598.21766	0.99183
1596.16075	0.99171
1594.10384	0.99172
1592.04693	0.99174
1589.99003	0.99152
1587.93312	0.99138
1585.87621	0.99151
1583.81930	0.99178
1581.76239	0.99202
1579.70548	0.99200
1577.64858	0.99187
1575.59167	0.99191
1573.53476	0.99200
1571.47785	0.99188
1569.42094	0.99151
1567.36404	0.99115
1565.30713	0.99107
1563.25022	0.99142
1561.19331	0.99210
1559.13640	0.99268
1557.07949	0.99237
1555.02259	0.99170
1552.96568	0.99121
1550.90877	0.99099
1548.85186	0.99086
1546.79495	0.99087
1544.73805	0.99124
1542.68114	0.99171
1540.62423	0.99168
1538.56732	0.99128
1536.51041	0.99109
1534.45350	0.99102
1532.39660	0.99095
1530.33969	0.99076
1528.28278	0.99067
1526.22587	0.99078
1524.16896	0.99089
1522.11206	0.99074
1520.05515	0.99044
1517.99824	0.99032
1515.94133	0.99038
1513.88442	0.99057
1511.82751	0.99080
1509.77061	0.99094
1507.71370	0.99068
1505.65679	0.99001
1503.59988	0.98979
1501.54297	0.98989
1499.48607	0.98997
1497.42916	0.99007
1495.37225	0.99008
1493.31534	0.98986
1491.25843	0.98972
1489.20152	0.98969
1487.14462	0.98934
1485.08771	0.98886
1483.03080	0.98847
1480.97389	0.98801
1478.91698	0.98750
1476.86008	0.98714
1474.80317	0.98682
1472.74626	0.98584
1470.68935	0.98412
1468.63244	0.98259
1466.57553	0.98115
1464.51863	0.97950
1462.46172	0.97814
1460.40481	0.97717
1458.34790	0.97591
1456.29099	0.97390
1454.23409	0.97228
1452.17718	0.97121
1450.12027	0.97008
1448.06336	0.96860
1446.00645	0.96708
1443.94954	0.96585
1441.89264	0.96465
1439.83573	0.96327
1437.77882	0.96155
1435.72191	0.95980
1433.66500	0.95906
1431.60810	0.95905
1429.55119	0.95940
1427.49428	0.96012
1425.43737	0.96122
1423.38046	0.96254
1421.32355	0.96373
1419.26665	0.96470
1417.20974	0.96536
1415.15283	0.96582
1413.09592	0.96616
1411.03901	0.96635
1408.98211	0.96659
1406.92520	0.96693
1404.86829	0.96707
1402.81138	0.96692
1400.75447	0.96645
1398.69756	0.96545
1396.64066	0.96376
1394.58375	0.96089
1392.52684	0.95723
1390.46993	0.95345
1388.41302	0.94844
1386.35612	0.94151
1384.29921	0.93427
1382.24230	0.92738
1380.18539	0.92022
1378.12848	0.91308
1376.07157	0.90650
1374.01467	0.90045
1371.95776	0.89593
1369.90085	0.89427
1367.84394	0.89572
1365.78703	0.90010
1363.73013	0.90768
1361.67322	0.91871
1359.61631	0.93069
1357.55940	0.94139
1355.50249	0.95017
1353.44558	0.95662
1351.38868	0.96090
1349.33177	0.96386
1347.27486	0.96589
1345.21795	0.96716
1343.16104	0.96806
1341.10414	0.96873
1339.04723	0.96906
1336.99032	0.96914
1334.93341	0.96912
1332.87650	0.96905
1330.81959	0.96893
1328.76269	0.96858
1326.70578	0.96791
1324.64887	0.96725
1322.59196	0.96695
1320.53505	0.96678
1318.47815	0.96644
1316.42124	0.96602
1314.36433	0.96583
1312.30742	0.96591
1310.25051	0.96613
1308.19360	0.96623
1306.13670	0.96604
1304.07979	0.96576
1302.02288	0.96550
1299.96597	0.96487
1297.90906	0.96381
1295.85216	0.96249
1293.79525	0.96099
1291.73834	0.95926
1289.68143	0.95717
1287.62452	0.95498
1285.56761	0.95290
1283.51071	0.95013
1281.45380	0.94645
1279.39689	0.94271
1277.33998	0.93898
1275.28307	0.93480
1273.22617	0.93012
1271.16926	0.92485
1269.11235	0.91931
1267.05544	0.91370
1264.99853	0.90744
1262.94162	0.90035
1260.88472	0.89286
1258.82781	0.88516
1256.77090	0.87702
1254.71399	0.86845
1252.65708	0.85951
1250.60018	0.85019
1248.54327	0.84082
1246.48636	0.83161
1244.42945	0.82231
1242.37254	0.81284
1240.31563	0.80323
1238.25873	0.79371
1236.20182	0.78497
1234.14491	0.77705
1232.08800	0.76949
1230.03109	0.76277
1227.97419	0.75784
1225.91728	0.75493
1223.86037	0.75404
1221.80346	0.75561
1219.74655	0.75998
1217.68964	0.76734
1215.63274	0.77754
1213.57583	0.79026
1211.51892	0.80538
1209.46201	0.82233
1207.40510	0.84021
1205.34820	0.85834
1203.29129	0.87582
1201.23438	0.89165
1199.17747	0.90507
1197.12056	0.91600
1195.06365	0.92477
1193.00675	0.93138
1190.94984	0.93579
1188.89293	0.93841
1186.83602	0.93953
1184.77911	0.93936
1182.72221	0.93807
1180.66530	0.93591
1178.60839	0.93330
1176.55148	0.93034
1174.49457	0.92707
1172.43766	0.92408
1170.38076	0.92166
1168.32385	0.91957
1166.26694	0.91805
1164.21003	0.91736
1162.15312	0.91745
1160.09622	0.91826
1158.03931	0.91989
1155.98240	0.92242
1153.92549	0.92516
1151.86858	0.92732
1149.81167	0.92892
1147.75477	0.93025
1145.69786	0.93101
1143.64095	0.93075
1141.58404	0.92945
1139.52713	0.92755
1137.47023	0.92530
1135.41332	0.92260
1133.35641	0.91979
1131.29950	0.91712
1129.24259	0.91436
1127.18568	0.91142
1125.12878	0.90854
1123.07187	0.90619
1121.01496	0.90455
1118.95805	0.90375
1116.90114	0.90356
1114.84424	0.90338
1112.78733	0.90295
1110.73042	0.90212
1108.67351	0.90086
1106.61660	0.89918
1104.55969	0.89705
1102.50279	0.89468
1100.44588	0.89206
1098.38897	0.88877
1096.33206	0.88487
1094.27515	0.88085
1092.21825	0.87652
1090.16134	0.87132
1088.10443	0.86557
1086.04752	0.85966
1083.99061	0.85353
1081.93370	0.84737
1079.87680	0.84121
1077.81989	0.83498
1075.76298	0.82913
1073.70607	0.82415
1071.64916	0.81971
1069.59226	0.81538
1067.53535	0.81142
1065.47844	0.80762
1063.42153	0.80338
1061.36462	0.79894
1059.30771	0.79435
1057.25081	0.78945
1055.19390	0.78482
1053.13699	0.78036
1051.08008	0.77562
1049.02317	0.77125
1046.96627	0.76771
1044.90936	0.76433
1042.85245	0.76081
1040.79554	0.75770
1038.73863	0.75516
1036.68172	0.75294
1034.62482	0.75170
1032.56791	0.75268
1030.51100	0.75659
1028.45409	0.76319
1026.39718	0.77177
1024.34028	0.78164
1022.28337	0.79215
1020.22646	0.80266
1018.16955	0.81301
1016.11264	0.82326
1014.05573	0.83349
1011.99883	0.84357
1009.94192	0.85271
1007.88501	0.86061
1005.82810	0.86791
1003.77119	0.87511
1001.71429	0.88197
999.65738	0.88786
997.60047	0.89291
995.54356	0.89770
993.48665	0.90217
991.42974	0.90583
989.37284	0.90867
987.31593	0.91123
985.25902	0.91364
983.20211	0.91586
981.14520	0.91816
979.08830	0.92078
977.03139	0.92383
974.97448	0.92726
972.91757	0.93093
970.86066	0.93442
968.80375	0.93753
966.74685	0.94059
964.68994	0.94343
962.63303	0.94562
960.57612	0.94712
958.51921	0.94805
956.46231	0.94895
954.40540	0.95018
952.34849	0.95102
950.29158	0.95137
948.23467	0.95205
946.17776	0.95310
944.12086	0.95384
942.06395	0.95412
940.00704	0.95450
937.95013	0.95496
935.89322	0.95490
933.83632	0.95462
931.77941	0.95438
929.72250	0.95352
927.66559	0.95215
925.60868	0.95095
923.55177	0.94983
921.49487	0.94864
919.43796	0.94739
917.38105	0.94621
915.32414	0.94505
913.26723	0.94354
911.21033	0.94174
909.15342	0.94025
907.09651	0.93970
905.03960	0.93990
902.98269	0.94007
900.92578	0.94019
898.86888	0.94085
896.81197	0.94218
894.75506	0.94393
892.69815	0.94580
890.64124	0.94753
888.58434	0.94930
886.52743	0.95127
884.47052	0.95320
882.41361	0.95492
880.35670	0.95681
878.29979	0.95894
876.24289	0.96107
874.18598	0.96349
872.12907	0.96571
870.07216	0.96717
868.01525	0.96862
865.95835	0.97027
863.90144	0.97167
861.84453	0.97289
859.78762	0.97358
857.73071	0.97364
855.67380	0.97412
853.61690	0.97507
851.55999	0.97553
849.50308	0.97531
847.44617	0.97467
845.38926	0.97390
843.33236	0.97314
841.27545	0.97258
839.21854	0.97204
837.16163	0.97140
835.10472	0.97143
833.04781	0.97271
830.99091	0.97418
828.93400	0.97514
826.87709	0.97640
824.82018	0.97774
822.76327	0.97851
820.70637	0.97917
818.64946	0.97989
816.59255	0.98048
814.53564	0.98115
812.47873	0.98146
810.42182	0.98109
808.36492	0.98096
806.30801	0.98128
804.25110	0.98141
802.19419	0.98125
800.13728	0.98151
798.08038	0.98259
796.02347	0.98359
793.96656	0.98384
791.90965	0.98384
789.85274	0.98388
787.79583	0.98394
785.73893	0.98389
783.68202	0.98337
781.62511	0.98249
779.56820	0.98217
777.51129	0.98265
775.45439	0.98301
773.39748	0.98317
771.34057	0.98346
769.28366	0.98345
767.22675	0.98310
765.16984	0.98312
763.11294	0.98350
761.05603	0.98386
758.99912	0.98400
756.94221	0.98373
754.88530	0.98343
752.82839	0.98333
750.77149	0.98302
748.71458	0.98235
746.65767	0.98182
744.60076	0.98199
742.54385	0.98266
740.48695	0.98337
738.43004	0.98396
736.37313	0.98378
734.31622	0.98286
732.25931	0.98210
730.20240	0.98153
728.14550	0.98092
726.08859	0.98025
724.03168	0.97942
721.97477	0.97872
719.91786	0.97832
717.86096	0.97782
715.80405	0.97709
713.74714	0.97663
711.69023	0.97650
709.63332	0.97628
707.57641	0.97602
705.51951	0.97561
703.46260	0.97491
701.40569	0.97469
699.34878	0.97478
697.29187	0.97405
695.23497	0.97262
693.17806	0.97105
691.12115	0.96961
689.06424	0.96874
687.00733	0.96814
684.95042	0.96731
682.89352	0.96698
680.83661	0.96750
678.77970	0.96807
676.72279	0.96811
674.66588	0.96821
672.60898	0.96880
670.55207	0.96929
668.49516	0.96891
666.43825	0.96794
664.38134	0.96764
662.32443	0.96756
660.26753	0.96726
658.21062	0.96670
656.15371	0.96570
654.09680	0.96453
652.03989	0.96311
649.98299	0.96196
647.92608	0.96166
645.86917	0.96092
643.81226	0.95917
641.75535	0.95724
639.69844	0.95538
637.64154	0.95345
635.58463	0.95172
633.52772	0.95090
631.47081	0.95095
629.41390	0.95092
627.35700	0.95036
625.30009	0.94926
623.24318	0.94811
621.18627	0.94668
619.12936	0.94457
617.07245	0.94289
615.01555	0.94103
612.95864	0.93719
610.90173	0.93220
608.84482	0.92731
606.78791	0.92296
604.73101	0.92053
602.67410	0.92100
600.61719	0.92338
598.56028	0.92726
596.50337	0.93207
594.44646	0.93623
592.38956	0.93939
590.33265	0.94218
588.27574	0.94496
586.21883	0.94752
584.16192	0.94919
582.10502	0.95009
580.04811	0.95055
577.99120	0.94990
575.93429	0.94947
573.87738	0.94984
571.82047	0.94960
569.76357	0.94915
567.70666	0.94800
565.64975	0.94624
563.59284	0.94560
561.53593	0.94591
559.47903	0.94613
557.42212	0.94565
555.36521	0.94565
553.30830	0.94689
551.25139	0.94752
549.19448	0.94754
547.13758	0.94878
545.08067	0.95016
543.02376	0.95027
540.96685	0.95005
538.90994	0.95016
536.85304	0.94994
534.79613	0.94856
532.73922	0.94675
530.68231	0.94571
528.62540	0.94588
526.56849	0.94676
524.51159	0.94663
522.45468	0.94616
520.39777	0.94682
518.34086	0.94787
516.28395	0.94827
514.22705	0.94678
512.17014	0.94370
510.11323	0.94202
508.05632	0.94353
505.99941	0.94648
503.94250	0.94738
501.88560	0.94495
499.82869	0.94094
497.77178	0.93770
495.71487	0.93726
493.65796	0.93827
491.60106	0.93773
489.54415	0.93689
487.48724	0.93756
485.43033	0.93870
483.37342	0.93804
481.31651	0.93585
479.25961	0.93457
477.20270	0.93443
475.14579	0.93430
473.08888	0.93457
471.03197	0.93610
468.97507	0.93744
466.91816	0.93762
464.86125	0.93751
462.80434	0.93553
460.74743	0.93090
458.69052	0.92760
456.63362	0.92800
454.57671	0.92984
452.51980	0.93082
450.46289	0.93183
448.40598	0.93492
446.34908	0.93705
444.29217	0.93505
442.23526	0.93269
440.17835	0.93320
438.12144	0.93459
436.06453	0.93588
434.00763	0.93738
431.95072	0.93761
429.89381	0.93694
427.83690	0.93802
425.77999	0.93984
423.72309	0.94041
421.66618	0.94124
419.60927	0.94085
417.55236	0.93803
415.49545	0.93875
413.43854	0.94280
411.38164	0.94589
409.32473	0.94762
407.26782	0.94945
405.21091	0.94827
403.15400	0.94320
401.09710	0.93749
399.04019	0.93203
