3996.57260	0.99427
3994.51569	0.99498
3992.45878	0.99559
3990.40188	0.99545
3988.34497	0.99508
3986.28806	0.99469
3984.23115	0.99419
3982.17424	0.99409
3980.11733	0.99431
3978.06043	0.99434
3976.00352	0.99413
3973.94661	0.99375
3971.88970	0.99345
3969.83279	0.99307
3967.77589	0.99283
3965.71898	0.99343
3963.66207	0.99413
3961.60516	0.99432
3959.54825	0.99423
3957.49134	0.99389
3955.43444	0.99391
3953.37753	0.99413
3951.32062	0.99386
3949.26371	0.99380
3947.20680	0.99421
3945.14990	0.99452
3943.09299	0.99467
3941.03608	0.99462
3938.97917	0.99459
3936.92226	0.99464
3934.86535	0.99445
3932.80845	0.99427
3930.75154	0.99444
3928.69463	0.99458
3926.63772	0.99433
3924.58081	0.99409
3922.52391	0.99417
3920.46700	0.99410
3918.41009	0.99376
3916.35318	0.99381
3914.29627	0.99424
3912.23936	0.99428
3910.18246	0.99400
3908.12555	0.99436
3906.06864	0.99550
3904.01173	0.99592
3901.95482	0.99491
3899.89792	0.99406
3897.84101	0.99435
3895.78410	0.99531
3893.72719	0.99590
3891.67028	0.99519
3889.61337	0.99437
3887.55647	0.99487
3885.49956	0.99542
3883.44265	0.99540
3881.38574	0.99538
3879.32883	0.99496
3877.27193	0.99488
3875.21502	0.99545
3873.15811	0.99549
3871.10120	0.99415
3869.04429	0.99279
3866.98738	0.99350
3864.93048	0.99509
3862.87357	0.99563
3860.81666	0.99521
3858.75975	0.99461
3856.70284	0.99421
3854.64594	0.99437
3852.58903	0.99441
3850.53212	0.99440
3848.47521	0.99495
3846.41830	0.99537
3844.36139	0.99514
3842.30449	0.99432
3840.24758	0.99371
3838.19067	0.99388
3836.13376	0.99442
3834.07685	0.99512
3832.01995	0.99561
3829.96304	0.99516
3827.90613	0.99410
3825.84922	0.99335
3823.79231	0.99341
3821.73540	0.99391
3819.67850	0.99420
3817.62159	0.99477
3815.56468	0.99546
3813.50777	0.99517
3811.45086	0.99448
3809.39396	0.99437
3807.33705	0.99483
3805.28014	0.99540
3803.22323	0.99556
3801.16632	0.99485
3799.10941	0.99426
3797.05251	0.99432
3794.99560	0.99419
3792.93869	0.99398
3790.88178	0.99405
3788.82487	0.99428
3786.76796	0.99471
3784.71106	0.99485
3782.65415	0.99453
3780.59724	0.99464
3778.54033	0.99461
3776.48342	0.99365
3774.42652	0.99292
3772.36961	0.99291
3770.31270	0.99321
3768.25579	0.99364
3766.19888	0.99399
3764.14197	0.99404
3762.08507	0.99395
3760.02816	0.99404
3757.97125	0.99446
3755.91434	0.99481
3753.85743	0.99492
3751.80053	0.99521
3749.74362	0.99589
3747.68671	0.99616
3745.62980	0.99577
3743.57289	0.99502
3741.51598	0.99431
3739.45908	0.99406
3737.40217	0.99476
3735.34526	0.99591
3733.28835	0.99561
3731.23144	0.99403
3729.17454	0.99293
3727.11763	0.99305
3725.06072	0.99391
3723.00381	0.99461
3720.94690	0.99491
3718.88999	0.99464
3716.83309	0.99399
3714.77618	0.99411
3712.71927	0.99536
3710.66236	0.99615
3708.60545	0.99567
3706.54855	0.99526
3704.49164	0.99507
3702.43473	0.99446
3700.37782	0.99395
3698.32091	0.99428
3696.26400	0.99466
3694.20710	0.99474
3692.15019	0.99493
3690.09328	0.99507
3688.03637	0.99488
3685.97946	0.99479
3683.92256	0.99488
3681.86565	0.99474
3679.80874	0.99404
3677.75183	0.99354
3675.69492	0.99381
3673.63801	0.99395
3671.58111	0.99424
3669.52420	0.99492
3667.46729	0.99522
3665.41038	0.99530
3663.35347	0.99526
3661.29657	0.99512
3659.23966	0.99498
3657.18275	0.99413
3655.12584	0.99326
3653.06893	0.99373
3651.01202	0.99427
3648.95512	0.99367
3646.89821	0.99281
3644.84130	0.99256
3642.78439	0.99271
3640.72748	0.99278
3638.67058	0.99272
3636.61367	0.99245
3634.55676	0.99208
3632.49985	0.99214
3630.44294	0.99231
3628.38603	0.99256
3626.32913	0.99306
3624.27222	0.99275
3622.21531	0.99180
3620.15840	0.99097
3618.10149	0.98981
3616.04459	0.98866
3613.98768	0.98842
3611.93077	0.98895
3609.87386	0.98974
3607.81695	0.98985
3605.76004	0.98904
3603.70314	0.98853
3601.64623	0.98874
3599.58932	0.98920
3597.53241	0.98928
3595.47550	0.98867
3593.41860	0.98791
3591.36169	0.98757
3589.30478	0.98724
3587.24787	0.98640
3585.19096	0.98573
3583.13405	0.98575
3581.07715	0.98594
3579.02024	0.98603
3576.96333	0.98565
3574.90642	0.98500
3572.84951	0.98471
3570.79261	0.98466
3568.73570	0.98479
3566.67879	0.98502
3564.62188	0.98516
3562.56497	0.98521
3560.50806	0.98466
3558.45116	0.98397
3556.39425	0.98415
3554.33734	0.98428
3552.28043	0.98368
3550.22352	0.98316
3548.16662	0.98270
3546.10971	0.98220
3544.05280	0.98226
3541.99589	0.98242
3539.93898	0.98189
3537.88207	0.98104
3535.82517	0.98051
3533.76826	0.98043
3531.71135	0.98034
3529.65444	0.97981
3527.59753	0.97912
3525.54063	0.97908
3523.48372	0.97962
3521.42681	0.97984
3519.36990	0.97940
3517.31299	0.97855
3515.25608	0.97773
3513.19918	0.97729
3511.14227	0.97726
3509.08536	0.97752
3507.02845	0.97758
3504.97154	0.97729
3502.91464	0.97708
3500.85773	0.97688
3498.80082	0.97636
3496.74391	0.97569
3494.68700	0.97516
3492.63009	0.97490
3490.57319	0.97500
3488.51628	0.97507
3486.45937	0.97474
3484.40246	0.97455
3482.34555	0.97490
3480.28865	0.97540
3478.23174	0.97545
3476.17483	0.97501
3474.11792	0.97462
3472.06101	0.97419
3470.00410	0.97318
3467.94720	0.97196
3465.89029	0.97149
3463.83338	0.97190
3461.77647	0.97276
3459.71956	0.97328
3457.66266	0.97320
3455.60575	0.97309
3453.54884	0.97271
3451.49193	0.97198
3449.43502	0.97181
3447.37811	0.97187
3445.32121	0.97151
3443.26430	0.97110
3441.20739	0.97098
3439.15048	0.97110
3437.09357	0.97108
3435.03667	0.97086
3432.97976	0.97098
3430.92285	0.97168
3428.86594	0.97254
3426.80903	0.97262
3424.75212	0.97191
3422.69522	0.97172
3420.63831	0.97218
3418.58140	0.97206
3416.52449	0.97132
3414.46758	0.97088
3412.41068	0.97109
3410.35377	0.97151
3408.29686	0.97171
3406.23995	0.97200
3404.18304	0.97222
3402.12613	0.97161
3400.06923	0.97095
3398.01232	0.97124
3395.95541	0.97182
3393.89850	0.97232
3391.84159	0.97268
3389.78469	0.97274
3387.72778	0.97269
3385.67087	0.97253
3383.61396	0.97226
3381.55705	0.97212
3379.50014	0.97254
3377.44324	0.97307
3375.38633	0.97290
3373.32942	0.97237
3371.27251	0.97223
3369.21560	0.97240
3367.15870	0.97266
3365.10179	0.97291
3363.04488	0.97284
3360.98797	0.97250
3358.93106	0.97201
3356.87415	0.97196
3354.81725	0.97279
3352.76034	0.97394
3350.70343	0.97466
3348.64652	0.97452
3346.58961	0.97385
3344.53271	0.97346
3342.47580	0.97373
3340.41889	0.97428
3338.36198	0.97467
3336.30507	0.97480
3334.24816	0.97492
3332.19126	0.97521
3330.13435	0.97538
3328.07744	0.97520
3326.02053	0.97477
3323.96362	0.97454
3321.90672	0.97476
3319.84981	0.97511
3317.79290	0.97518
3315.73599	0.97539
3313.67908	0.97605
3311.62217	0.97621
3309.56527	0.97557
3307.50836	0.97540
3305.45145	0.97589
3303.39454	0.97618
3301.33763	0.97643
3299.28073	0.97696
3297.22382	0.97717
3295.16691	0.97677
3293.11000	0.97675
3291.05309	0.97749
3288.99618	0.97803
3286.93928	0.97754
3284.88237	0.97690
3282.82546	0.97743
3280.76855	0.97828
3278.71164	0.97844
3276.65474	0.97833
3274.59783	0.97835
3272.54092	0.97825
3270.48401	0.97806
3268.42710	0.97836
3266.37019	0.97886
3264.31329	0.97889
3262.25638	0.97871
3260.19947	0.97867
3258.14256	0.97869
3256.08565	0.97879
3254.02875	0.97913
3251.97184	0.97963
3249.91493	0.97991
3247.85802	0.97974
3245.80111	0.97940
3243.74420	0.97942
3241.68730	0.97977
3239.63039	0.98014
3237.57348	0.98039
3235.51657	0.98046
3233.45966	0.98089
3231.40276	0.98161
3229.34585	0.98173
3227.28894	0.98122
3225.23203	0.98068
3223.17512	0.98068
3221.11821	0.98118
3219.06131	0.98113
3217.00440	0.98056
3214.94749	0.98067
3212.89058	0.98140
3210.83367	0.98199
3208.77677	0.98198
3206.71986	0.98144
3204.66295	0.98119
3202.60604	0.98185
3200.54913	0.98286
3198.49222	0.98328
3196.43532	0.98329
3194.37841	0.98354
3192.32150	0.98404
3190.26459	0.98425
3188.20768	0.98419
3186.15078	0.98425
3184.09387	0.98418
3182.03696	0.98392
3179.98005	0.98393
3177.92314	0.98400
3175.86623	0.98374
3173.80933	0.98372
3171.75242	0.98441
3169.69551	0.98527
3167.63860	0.98564
3165.58169	0.98533
3163.52479	0.98491
3161.46788	0.98508
3159.41097	0.98534
3157.35406	0.98508
3155.29715	0.98486
3153.24024	0.98518
3151.18334	0.98585
3149.12643	0.98651
3147.06952	0.98680
3145.01261	0.98662
3142.95570	0.98644
3140.89880	0.98652
3138.84189	0.98645
3136.78498	0.98647
3134.72807	0.98704
3132.67116	0.98759
3130.61425	0.98728
3128.55735	0.98651
3126.50044	0.98671
3124.44353	0.98793
3122.38662	0.98861
3120.32971	0.98821
3118.27281	0.98749
3116.21590	0.98729
3114.15899	0.98771
3112.10208	0.98782
3110.04517	0.98730
3107.98826	0.98696
3105.93136	0.98720
3103.87445	0.98761
3101.81754	0.98781
3099.76063	0.98795
3097.70372	0.98823
3095.64682	0.98865
3093.58991	0.98893
3091.53300	0.98879
3089.47609	0.98858
3087.41918	0.98868
3085.36227	0.98882
3083.30537	0.98881
3081.24846	0.98875
3079.19155	0.98885
3077.13464	0.98921
3075.07773	0.98934
3073.02083	0.98906
3070.96392	0.98885
3068.90701	0.98855
3066.85010	0.98793
3064.79319	0.98790
3062.73628	0.98885
3060.67938	0.98967
3058.62247	0.98974
3056.56556	0.98955
3054.50865	0.98952
3052.45174	0.98965
3050.39484	0.98982
3048.33793	0.98976
3046.28102	0.98940
3044.22411	0.98917
3042.16720	0.98907
3040.11029	0.98904
3038.05339	0.98933
3035.99648	0.98965
3033.93957	0.98972
3031.88266	0.98962
3029.82575	0.98945
3027.76885	0.98931
3025.71194	0.98932
3023.65503	0.98959
3021.59812	0.98978
3019.54121	0.98958
3017.48430	0.98941
3015.42740	0.98973
3013.37049	0.98992
3011.31358	0.98971
3009.25667	0.98973
3007.19976	0.98990
3005.14286	0.98989
3003.08595	0.98983
3001.02904	0.98963
2998.97213	0.98927
2996.91522	0.98909
2994.85831	0.98908
2992.80141	0.98907
2990.74450	0.98900
2988.68759	0.98875
2986.63068	0.98846
2984.57377	0.98849
2982.51687	0.98871
2980.45996	0.98883
2978.40305	0.98897
2976.34614	0.98897
2974.28923	0.98845
2972.23232	0.98781
2970.17542	0.98742
2968.11851	0.98702
2966.06160	0.98667
2964.00469	0.98659
2961.94778	0.98652
2959.89088	0.98641
2957.83397	0.98640
2955.77706	0.98614
2953.72015	0.98559
2951.66324	0.98526
2949.60633	0.98524
2947.54943	0.98528
2945.49252	0.98525
2943.43561	0.98508
2941.37870	0.98496
2939.32179	0.98523
2937.26489	0.98574
2935.20798	0.98595
2933.15107	0.98573
2931.09416	0.98525
2929.03725	0.98460
2926.98034	0.98403
2924.92344	0.98380
2922.86653	0.98380
2920.80962	0.98364
2918.75271	0.98347
2916.69580	0.98353
2914.63890	0.98343
2912.58199	0.98290
2910.52508	0.98233
2908.46817	0.98226
2906.41126	0.98279
2904.35435	0.98327
2902.29745	0.98332
2900.24054	0.98318
2898.18363	0.98307
2896.12672	0.98308
2894.06981	0.98303
2892.01291	0.98295
2889.95600	0.98295
2887.89909	0.98287
2885.84218	0.98285
2883.78527	0.98298
2881.72836	0.98309
2879.67146	0.98327
2877.61455	0.98350
2875.55764	0.98353
2873.50073	0.98347
2871.44382	0.98369
2869.38692	0.98419
2867.33001	0.98447
2865.27310	0.98464
2863.21619	0.98512
2861.15928	0.98560
2859.10237	0.98568
2857.04547	0.98559
2854.98856	0.98577
2852.93165	0.98615
2850.87474	0.98629
2848.81783	0.98633
2846.76093	0.98665
2844.70402	0.98705
2842.64711	0.98740
2840.59020	0.98788
2838.53329	0.98823
2836.47638	0.98827
2834.41948	0.98821
2832.36257	0.98799
2830.30566	0.98771
2828.24875	0.98807
2826.19184	0.98902
2824.13494	0.98937
2822.07803	0.98900
2820.02112	0.98880
2817.96421	0.98888
2815.90730	0.98897
2813.85039	0.98906
2811.79349	0.98927
2809.73658	0.98948
2807.67967	0.98963
2805.62276	0.98976
2803.56585	0.98979
2801.50895	0.98962
2799.45204	0.98971
2797.39513	0.99021
2795.33822	0.99013
2793.28131	0.98943
2791.22440	0.98902
2789.16750	0.98915
2787.11059	0.98966
2785.05368	0.99017
2782.99677	0.99042
2780.93986	0.99062
2778.88296	0.99077
2776.82605	0.99092
2774.76914	0.99103
2772.71223	0.99101
2770.65532	0.99113
2768.59841	0.99117
2766.54151	0.99097
2764.48460	0.99063
2762.42769	0.99017
2760.37078	0.98988
2758.31387	0.98975
2756.25697	0.98976
2754.20006	0.98994
2752.14315	0.99020
2750.08624	0.99056
2748.02933	0.99079
2745.97242	0.99074
2743.91552	0.99068
2741.85861	0.99080
2739.80170	0.99079
2737.74479	0.99057
2735.68788	0.99045
2733.63098	0.99040
2731.57407	0.99015
2729.51716	0.99001
2727.46025	0.99016
2725.40334	0.99028
2723.34643	0.99045
2721.28953	0.99073
2719.23262	0.99064
2717.17571	0.99042
2715.11880	0.99067
2713.06189	0.99098
2711.00499	0.99084
2708.94808	0.99053
2706.89117	0.99041
2704.83426	0.99051
2702.77735	0.99071
2700.72044	0.99080
2698.66354	0.99073
2696.60663	0.99077
2694.54972	0.99099
2692.49281	0.99125
2690.43590	0.99155
2688.37900	0.99179
2686.32209	0.99182
2684.26518	0.99150
2682.20827	0.99101
2680.15136	0.99070
2678.09445	0.99074
2676.03755	0.99115
2673.98064	0.99154
2671.92373	0.99140
2669.86682	0.99094
2667.80991	0.99079
2665.75301	0.99086
2663.69610	0.99068
2661.63919	0.99044
2659.58228	0.99056
2657.52537	0.99084
2655.46846	0.99080
2653.41156	0.99056
2651.35465	0.99060
2649.29774	0.99082
2647.24083	0.99084
2645.18392	0.99074
2643.12702	0.99077
2641.07011	0.99083
2639.01320	0.99047
2636.95629	0.98986
2634.89938	0.98997
2632.84247	0.99074
2630.78557	0.99113
2628.72866	0.99086
2626.67175	0.99055
2624.61484	0.99085
2622.55793	0.99148
2620.50103	0.99168
2618.44412	0.99149
2616.38721	0.99124
2614.33030	0.99127
2612.27339	0.99167
2610.21648	0.99178
2608.15958	0.99138
2606.10267	0.99092
2604.04576	0.99088
2601.98885	0.99128
2599.93194	0.99176
2597.87504	0.99203
2595.81813	0.99175
2593.76122	0.99121
2591.70431	0.99100
2589.64740	0.99085
2587.59049	0.99062
2585.53359	0.99073
2583.47668	0.99136
2581.41977	0.99195
2579.36286	0.99189
2577.30595	0.99142
2575.24905	0.99120
2573.19214	0.99145
2571.13523	0.99180
2569.07832	0.99196
2567.02141	0.99187
2564.96450	0.99185
2562.90760	0.99250
2560.85069	0.99322
2558.79378	0.99327
2556.73687	0.99308
2554.67996	0.99276
2552.62306	0.99232
2550.56615	0.99199
2548.50924	0.99149
2546.45233	0.99098
2544.39542	0.99121
2542.33851	0.99211
2540.28161	0.99289
2538.22470	0.99271
2536.16779	0.99198
2534.11088	0.99192
2532.05397	0.99226
2529.99707	0.99214
2527.94016	0.99163
2525.88325	0.99111
2523.82634	0.99096
2521.76943	0.99103
2519.71252	0.99138
2517.65562	0.99240
2515.59871	0.99327
2513.54180	0.99312
2511.48489	0.99285
2509.42798	0.99316
2507.37108	0.99363
2505.31417	0.99381
2503.25726	0.99326
2501.20035	0.99237
2499.14344	0.99197
2497.08653	0.99201
2495.02963	0.99218
2492.97272	0.99247
2490.91581	0.99269
2488.85890	0.99258
2486.80199	0.99250
2484.74509	0.99246
2482.68818	0.99208
2480.63127	0.99217
2478.57436	0.99313
2476.51745	0.99375
2474.46054	0.99332
2472.40364	0.99251
2470.34673	0.99218
2468.28982	0.99233
2466.23291	0.99232
2464.17600	0.99234
2462.11910	0.99261
2460.06219	0.99222
2458.00528	0.99131
2455.94837	0.99096
2453.89146	0.99141
2451.83455	0.99245
2449.77765	0.99316
2447.72074	0.99305
2445.66383	0.99308
2443.60692	0.99348
2441.55001	0.99353
2439.49311	0.99304
2437.43620	0.99261
2435.37929	0.99308
2433.32238	0.99395
2431.26547	0.99440
2429.20856	0.99443
2427.15166	0.99399
2425.09475	0.99329
2423.03784	0.99263
2420.98093	0.99208
2418.92402	0.99201
2416.86712	0.99252
2414.81021	0.99315
2412.75330	0.99352
2410.69639	0.99381
2408.63948	0.99409
2406.58257	0.99411
2404.52567	0.99400
2402.46876	0.99394
2400.41185	0.99370
2398.35494	0.99321
2396.29803	0.99287
2394.24113	0.99307
2392.18422	0.99362
2390.12731	0.99416
2388.07040	0.99426
2386.01349	0.99378
2383.95658	0.99337
2381.89968	0.99325
2379.84277	0.99335
2377.78586	0.99346
2375.72895	0.99264
2373.67204	0.99156
2371.61514	0.99209
2369.55823	0.99407
2367.50132	0.99589
2365.44441	0.99611
2363.38750	0.99514
2361.33059	0.99430
2359.27369	0.99315
2357.21678	0.99213
2355.15987	0.99189
2353.10296	0.99164
2351.04605	0.99141
2348.98915	0.99166
2346.93224	0.99194
2344.87533	0.99174
2342.81842	0.99186
2340.76151	0.99237
2338.70460	0.99184
2336.64770	0.99092
2334.59079	0.99078
2332.53388	0.99117
2330.47697	0.99148
2328.42006	0.99156
2326.36316	0.99170
2324.30625	0.99191
2322.24934	0.99215
2320.19243	0.99243
2318.13552	0.99247
2316.07861	0.99206
2314.02171	0.99181
2311.96480	0.99222
2309.90789	0.99276
2307.85098	0.99308
2305.79407	0.99280
2303.73717	0.99196
2301.68026	0.99167
2299.62335	0.99241
2297.56644	0.99334
2295.50953	0.99327
2293.45262	0.99234
2291.39572	0.99182
2289.33881	0.99197
2287.28190	0.99204
2285.22499	0.99162
2283.16808	0.99160
2281.11117	0.99286
2279.05427	0.99405
2276.99736	0.99387
2274.94045	0.99302
2272.88354	0.99229
2270.82663	0.99208
2268.76973	0.99266
2266.71282	0.99305
2264.65591	0.99256
2262.59900	0.99269
2260.54209	0.99364
2258.48518	0.99355
2256.42828	0.99256
2254.37137	0.99244
2252.31446	0.99307
2250.25755	0.99329
2248.20064	0.99345
2246.14374	0.99435
2244.08683	0.99474
2242.02992	0.99357
2239.97301	0.99237
2237.91610	0.99237
2235.85919	0.99334
2233.80229	0.99424
2231.74538	0.99466
2229.68847	0.99481
2227.63156	0.99399
2225.57465	0.99298
2223.51775	0.99310
2221.46084	0.99358
2219.40393	0.99374
2217.34702	0.99371
2215.29011	0.99288
2213.23320	0.99185
2211.17630	0.99176
2209.11939	0.99197
2207.06248	0.99204
2205.00557	0.99352
2202.94866	0.99604
2200.89176	0.99689
2198.83485	0.99599
2196.77794	0.99488
2194.72103	0.99395
2192.66412	0.99267
2190.60721	0.99168
2188.55031	0.99224
2186.49340	0.99323
2184.43649	0.99311
2182.37958	0.99276
2180.32267	0.99341
2178.26577	0.99470
2176.20886	0.99568
2174.15195	0.99499
2172.09504	0.99287
2170.03813	0.99160
2167.98122	0.99184
2165.92432	0.99172
2163.86741	0.99152
2161.81050	0.99395
2159.75359	0.99817
2157.69668	0.99974
2155.63978	0.99777
2153.58287	0.99582
2151.52596	0.99581
2149.46905	0.99603
2147.41214	0.99529
2145.35523	0.99443
2143.29833	0.99378
2141.24142	0.99408
2139.18451	0.99498
2137.12760	0.99569
2135.07069	0.99666
2133.01379	0.99635
2130.95688	0.99449
2128.89997	0.99341
2126.84306	0.99325
2124.78615	0.99311
2122.72924	0.99302
2120.67234	0.99261
2118.61543	0.99197
2116.55852	0.99206
2114.50161	0.99247
2112.44470	0.99254
2110.38780	0.99306
2108.33089	0.99410
2106.27398	0.99474
2104.21707	0.99462
2102.16016	0.99413
2100.10325	0.99399
2098.04635	0.99432
2095.98944	0.99460
2093.93253	0.99473
2091.87562	0.99569
2089.81871	0.99659
2087.76181	0.99519
2085.70490	0.99319
2083.64799	0.99278
2081.59108	0.99285
2079.53417	0.99234
2077.47726	0.99202
2075.42036	0.99263
2073.36345	0.99347
2071.30654	0.99360
2069.24963	0.99315
2067.19272	0.99355
2065.13582	0.99475
2063.07891	0.99520
2061.02200	0.99469
2058.96509	0.99355
2056.90818	0.99202
2054.85127	0.99060
2052.79437	0.99034
2050.73746	0.99184
2048.68055	0.99407
2046.62364	0.99577
2044.56673	0.99568
2042.50983	0.99405
2040.45292	0.99369
2038.39601	0.99424
2036.33910	0.99391
2034.28219	0.99453
2032.22528	0.99551
2030.16838	0.99406
2028.11147	0.99222
2026.05456	0.99237
2023.99765	0.99379
2021.94074	0.99588
2019.88384	0.99671
2017.82693	0.99496
2015.77002	0.99300
2013.71311	0.99283
2011.65620	0.99326
2009.59929	0.99340
2007.54239	0.99401
2005.48548	0.99490
2003.42857	0.99577
2001.37166	0.99582
1999.31475	0.99444
1997.25785	0.99363
1995.20094	0.99422
1993.14403	0.99496
1991.08712	0.99569
1989.03021	0.99534
1986.97330	0.99240
1984.91640	0.98889
1982.85949	0.98777
1980.80258	0.98822
1978.74567	0.98853
1976.68876	0.99005
1974.63186	0.99277
1972.57495	0.99412
1970.51804	0.99440
1968.46113	0.99643
1966.40422	0.99862
1964.34731	0.99810
1962.29041	0.99673
1960.23350	0.99614
1958.17659	0.99550
1956.11968	0.99396
1954.06277	0.99333
1952.00587	0.99485
1949.94896	0.99594
1947.89205	0.99545
1945.83514	0.99538
1943.77823	0.99634
1941.72132	0.99699
1939.66442	0.99704
1937.60751	0.99709
1935.55060	0.99647
1933.49369	0.99487
1931.43678	0.99404
1929.37988	0.99514
1927.32297	0.99644
1925.26606	0.99637
1923.20915	0.99572
1921.15224	0.99550
1919.09533	0.99581
1917.03843	0.99573
1914.98152	0.99491
1912.92461	0.99434
1910.86770	0.99437
1908.81079	0.99445
1906.75389	0.99453
1904.69698	0.99504
1902.64007	0.99552
1900.58316	0.99539
1898.52625	0.99498
1896.46934	0.99469
1894.41244	0.99470
1892.35553	0.99463
1890.29862	0.99406
1888.24171	0.99403
1886.18480	0.99500
1884.12790	0.99532
1882.07099	0.99474
1880.01408	0.99433
1877.95717	0.99431
1875.90026	0.99469
1873.84335	0.99513
1871.78645	0.99536
1869.72954	0.99567
1867.67263	0.99573
1865.61572	0.99505
1863.55881	0.99432
1861.50191	0.99403
1859.44500	0.99394
1857.38809	0.99399
1855.33118	0.99432
1853.27427	0.99476
1851.21736	0.99510
1849.16046	0.99517
1847.10355	0.99477
1845.04664	0.99441
1842.98973	0.99463
1840.93282	0.99489
1838.87592	0.99483
1836.81901	0.99455
1834.76210	0.99423
1832.70519	0.99422
1830.64828	0.99462
1828.59137	0.99512
1826.53447	0.99527
1824.47756	0.99486
1822.42065	0.99447
1820.36374	0.99463
1818.30683	0.99491
1816.24993	0.99489
1814.19302	0.99483
1812.13611	0.99500
1810.07920	0.99505
1808.02229	0.99475
1805.96538	0.99455
1803.90848	0.99461
1801.85157	0.99468
1799.79466	0.99450
1797.73775	0.99421
1795.68084	0.99405
1793.62394	0.99382
1791.56703	0.99360
1789.51012	0.99353
1787.45321	0.99344
1785.39630	0.99331
1783.33939	0.99297
1781.28249	0.99258
1779.22558	0.99231
1777.16867	0.99203
1775.11176	0.99163
1773.05485	0.99084
1770.99795	0.98931
1768.94104	0.98730
1766.88413	0.98549
1764.82722	0.98413
1762.77031	0.98195
1760.71340	0.97815
1758.65650	0.97414
1756.59959	0.97020
1754.54268	0.96669
1752.48577	0.96388
1750.42886	0.96063
1748.37196	0.95680
1746.31505	0.95342
1744.25814	0.95065
1742.20123	0.94855
1740.14432	0.94681
1738.08741	0.94543
1736.03051	0.94446
1733.97360	0.94256
1731.91669	0.94085
1729.85978	0.94043
1727.80287	0.94025
1725.74597	0.94040
1723.68906	0.94117
1721.63215	0.94253
1719.57524	0.94416
1717.51833	0.94580
1715.46142	0.94778
1713.40452	0.95027
1711.34761	0.95334
1709.29070	0.95677
1707.23379	0.96000
1705.17688	0.96309
1703.11998	0.96614
1701.06307	0.96927
1699.00616	0.97231
1696.94925	0.97451
1694.89234	0.97593
1692.83543	0.97702
1690.77853	0.97822
1688.72162	0.97935
1686.66471	0.98041
1684.60780	0.98180
1682.55089	0.98265
1680.49399	0.98271
1678.43708	0.98278
1676.38017	0.98291
1674.32326	0.98294
1672.26635	0.98304
1670.20944	0.98308
1668.15254	0.98294
1666.09563	0.98321
1664.03872	0.98368
1661.98181	0.98342
1659.92490	0.98259
1657.86800	0.98244
1655.81109	0.98322
1653.75418	0.98396
1651.69727	0.98327
1649.64036	0.98266
1647.58345	0.98250
1645.52655	0.98237
1643.46964	0.98215
1641.41273	0.98189
1639.35582	0.98203
1637.29891	0.98270
1635.24201	0.98281
1633.18510	0.98231
1631.12819	0.98239
1629.07128	0.98290
1627.01437	0.98335
1624.95746	0.98363
1622.90056	0.98383
1620.84365	0.98400
1618.78674	0.98453
1616.72983	0.98533
1614.67292	0.98573
1612.61602	0.98594
1610.55911	0.98617
1608.50220	0.98624
1606.44529	0.98630
1604.38838	0.98662
1602.33147	0.98708
1600.27457	0.98720
1598.21766	0.98709
1596.16075	0.98726
1594.10384	0.98758
1592.04693	0.98773
1589.99003	0.98786
1587.93312	0.98808
1585.87621	0.98824
1583.81930	0.98843
1581.76239	0.98873
1579.70548	0.98901
1577.64858	0.98929
1575.59167	0.98948
1573.53476	0.98957
1571.47785	0.98964
1569.42094	0.98958
1567.36404	0.98951
1565.30713	0.98958
1563.25022	0.98976
1561.19331	0.99015
1559.13640	0.99065
1557.07949	0.99030
1555.02259	0.98966
1552.96568	0.98936
1550.90877	0.98926
1548.85186	0.98921
1546.79495	0.98937
1544.73805	0.98976
1542.68114	0.99044
1540.62423	0.99100
1538.56732	0.99061
1536.51041	0.99026
1534.45350	0.99004
1532.39660	0.98961
1530.33969	0.98948
1528.28278	0.98957
1526.22587	0.98944
1524.16896	0.98916
1522.11206	0.98921
1520.05515	0.98991
1517.99824	0.99043
1515.94133	0.99005
1513.88442	0.98959
1511.82751	0.98969
1509.77061	0.99002
1507.71370	0.98986
1505.65679	0.98878
1503.59988	0.98829
1501.54297	0.98838
1499.48607	0.98846
1497.42916	0.98850
1495.37225	0.98844
1493.31534	0.98822
1491.25843	0.98800
1489.20152	0.98765
1487.14462	0.98716
1485.08771	0.98682
1483.03080	0.98673
1480.97389	0.98650
1478.91698	0.98593
1476.86008	0.98544
1474.80317	0.98512
1472.74626	0.98425
1470.68935	0.98317
1468.63244	0.98278
1466.57553	0.98245
1464.51863	0.98151
1462.46172	0.98065
1460.40481	0.98037
1458.34790	0.97992
1456.29099	0.97862
1454.23409	0.97768
1452.17718	0.97726
1450.12027	0.97680
1448.06336	0.97606
1446.00645	0.97512
1443.94954	0.97430
1441.89264	0.97354
1439.83573	0.97280
1437.77882	0.97202
1435.72191	0.97114
1433.66500	0.97069
1431.60810	0.97077
1429.55119	0.97089
1427.49428	0.97065
1425.43737	0.97014
1423.38046	0.96979
1421.32355	0.97008
1419.26665	0.97054
1417.20974	0.97059
1415.15283	0.97066
1413.09592	0.97087
1411.03901	0.97113
1408.98211	0.97128
1406.92520	0.97113
1404.86829	0.97078
1402.81138	0.97065
1400.75447	0.97076
1398.69756	0.97064
1396.64066	0.96991
1394.58375	0.96885
1392.52684	0.96793
1390.46993	0.96711
1388.41302	0.96576
1386.35612	0.96372
1384.29921	0.96141
1382.24230	0.95897
1380.18539	0.95663
1378.12848	0.95447
1376.07157	0.95238
1374.01467	0.95054
1371.95776	0.94957
1369.90085	0.94943
1367.84394	0.94976
1365.78703	0.95076
1363.73013	0.95252
1361.67322	0.95490
1359.61631	0.95768
1357.55940	0.96067
1355.50249	0.96347
1353.44558	0.96552
1351.38868	0.96686
1349.33177	0.96788
1347.27486	0.96867
1345.21795	0.96927
1343.16104	0.96971
1341.10414	0.97011
1339.04723	0.97052
1336.99032	0.97088
1334.93341	0.97097
1332.87650	0.97078
1330.81959	0.97080
1328.76269	0.97116
1326.70578	0.97130
1324.64887	0.97124
1322.59196	0.97137
1320.53505	0.97159
1318.47815	0.97170
1316.42124	0.97174
1314.36433	0.97193
1312.30742	0.97215
1310.25051	0.97226
1308.19360	0.97250
1306.13670	0.97270
1304.07979	0.97250
1302.02288	0.97226
1299.96597	0.97234
1297.90906	0.97251
1295.85216	0.97249
1293.79525	0.97222
1291.73834	0.97165
1289.68143	0.97085
1287.62452	0.97013
1285.56761	0.96943
1283.51071	0.96854
1281.45380	0.96748
1279.39689	0.96628
1277.33998	0.96471
1275.28307	0.96303
1273.22617	0.96142
1271.16926	0.95957
1269.11235	0.95757
1267.05544	0.95555
1264.99853	0.95339
1262.94162	0.95118
1260.88472	0.94882
1258.82781	0.94635
1256.77090	0.94400
1254.71399	0.94150
1252.65708	0.93880
1250.60018	0.93638
1248.54327	0.93411
1246.48636	0.93164
1244.42945	0.92918
1242.37254	0.92684
1240.31563	0.92465
1238.25873	0.92286
1236.20182	0.92129
1234.14491	0.91955
1232.08800	0.91788
1230.03109	0.91665
1227.97419	0.91590
1225.91728	0.91568
1223.86037	0.91593
1221.80346	0.91681
1219.74655	0.91864
1217.68964	0.92109
1215.63274	0.92352
1213.57583	0.92611
1211.51892	0.92945
1209.46201	0.93328
1207.40510	0.93673
1205.34820	0.93944
1203.29129	0.94159
1201.23438	0.94373
1199.17747	0.94603
1197.12056	0.94815
1195.06365	0.95022
1193.00675	0.95229
1190.94984	0.95389
1188.89293	0.95475
1186.83602	0.95499
1184.77911	0.95483
1182.72221	0.95447
1180.66530	0.95394
1178.60839	0.95328
1176.55148	0.95219
1174.49457	0.95066
1172.43766	0.94923
1170.38076	0.94788
1168.32385	0.94642
1166.26694	0.94486
1164.21003	0.94322
1162.15312	0.94173
1160.09622	0.94069
1158.03931	0.94034
1155.98240	0.94050
1153.92549	0.94086
1151.86858	0.94137
1149.81167	0.94187
1147.75477	0.94216
1145.69786	0.94218
1143.64095	0.94206
1141.58404	0.94183
1139.52713	0.94126
1137.47023	0.94038
1135.41332	0.93927
1133.35641	0.93789
1131.29950	0.93643
1129.24259	0.93511
1127.18568	0.93388
1125.12878	0.93259
1123.07187	0.93140
1121.01496	0.93046
1118.95805	0.92946
1116.90114	0.92819
1114.84424	0.92690
1112.78733	0.92584
1110.73042	0.92498
1108.67351	0.92414
1106.61660	0.92329
1104.55969	0.92249
1102.50279	0.92157
1100.44588	0.92062
1098.38897	0.91971
1096.33206	0.91869
1094.27515	0.91758
1092.21825	0.91630
1090.16134	0.91483
1088.10443	0.91336
1086.04752	0.91191
1083.99061	0.91037
1081.93370	0.90876
1079.87680	0.90714
1077.81989	0.90540
1075.76298	0.90370
1073.70607	0.90213
1071.64916	0.90043
1069.59226	0.89867
1067.53535	0.89704
1065.47844	0.89549
1063.42153	0.89425
1061.36462	0.89342
1059.30771	0.89229
1057.25081	0.89039
1055.19390	0.88867
1053.13699	0.88772
1051.08008	0.88681
1049.02317	0.88551
1046.96627	0.88420
1044.90936	0.88303
1042.85245	0.88182
1040.79554	0.88069
1038.73863	0.87959
1036.68172	0.87828
1034.62482	0.87689
1032.56791	0.87565
1030.51100	0.87458
1028.45409	0.87389
1026.39718	0.87365
1024.34028	0.87350
1022.28337	0.87342
1020.22646	0.87359
1018.16955	0.87408
1016.11264	0.87476
1014.05573	0.87541
1011.99883	0.87636
1009.94192	0.87765
1007.88501	0.87846
1005.82810	0.87904
1003.77119	0.88032
1001.71429	0.88184
999.65738	0.88288
997.60047	0.88380
995.54356	0.88498
993.48665	0.88656
991.42974	0.88850
989.37284	0.89030
987.31593	0.89174
985.25902	0.89313
983.20211	0.89466
981.14520	0.89642
979.08830	0.89836
977.03139	0.90028
974.97448	0.90229
972.91757	0.90448
970.86066	0.90659
968.80375	0.90857
966.74685	0.91065
964.68994	0.91298
962.63303	0.91527
960.57612	0.91725
958.51921	0.91906
956.46231	0.92091
954.40540	0.92288
952.34849	0.92461
950.29158	0.92603
948.23467	0.92728
946.17776	0.92823
944.12086	0.92920
942.06395	0.93040
940.00704	0.93121
937.95013	0.93150
935.89322	0.93184
933.83632	0.93244
931.77941	0.93320
929.72250	0.93375
927.66559	0.93380
925.60868	0.93351
923.55177	0.93357
921.49487	0.93406
919.43796	0.93427
917.38105	0.93410
915.32414	0.93392
913.26723	0.93360
911.21033	0.93298
909.15342	0.93223
907.09651	0.93137
905.03960	0.93056
902.98269	0.93015
900.92578	0.93048
898.86888	0.93146
896.81197	0.93214
894.75506	0.93227
892.69815	0.93255
890.64124	0.93349
888.58434	0.93494
886.52743	0.93650
884.47052	0.93779
882.41361	0.93874
880.35670	0.93987
878.29979	0.94144
876.24289	0.94326
874.18598	0.94519
872.12907	0.94694
870.07216	0.94828
868.01525	0.94943
865.95835	0.95065
863.90144	0.95194
861.84453	0.95321
859.78762	0.95405
857.73071	0.95466
855.67380	0.95557
853.61690	0.95626
851.55999	0.95654
849.50308	0.95640
847.44617	0.95567
845.38926	0.95542
843.33236	0.95573
841.27545	0.95566
839.21854	0.95523
837.16163	0.95510
835.10472	0.95550
833.04781	0.95573
830.99091	0.95562
828.93400	0.95535
826.87709	0.95457
824.82018	0.95407
822.76327	0.95466
820.70637	0.95548
818.64946	0.95568
816.59255	0.95551
814.53564	0.95530
812.47873	0.95520
810.42182	0.95523
808.36492	0.95530
806.30801	0.95543
804.25110	0.95537
802.19419	0.95515
800.13728	0.95529
798.08038	0.95570
796.02347	0.95592
793.96656	0.95573
791.90965	0.95576
789.85274	0.95604
787.79583	0.95586
785.73893	0.95557
783.68202	0.95596
781.62511	0.95687
779.56820	0.95749
777.51129	0.95773
775.45439	0.95800
773.39748	0.95855
771.34057	0.95927
769.28366	0.95978
767.22675	0.95989
765.16984	0.95976
763.11294	0.95984
761.05603	0.96026
758.99912	0.96063
756.94221	0.96075
754.88530	0.96057
752.82839	0.96005
750.77149	0.95956
748.71458	0.95945
746.65767	0.95973
744.60076	0.96024
742.54385	0.96052
740.48695	0.96001
738.43004	0.95899
736.37313	0.95839
734.31622	0.95862
732.25931	0.95909
730.20240	0.95879
728.14550	0.95798
726.08859	0.95770
724.03168	0.95798
721.97477	0.95832
719.91786	0.95816
717.86096	0.95701
715.80405	0.95556
713.74714	0.95504
711.69023	0.95546
709.63332	0.95603
707.57641	0.95611
705.51951	0.95577
703.46260	0.95560
701.40569	0.95529
699.34878	0.95433
697.29187	0.95304
695.23497	0.95225
693.17806	0.95207
691.12115	0.95199
689.06424	0.95200
687.00733	0.95143
684.95042	0.94991
682.89352	0.94878
680.83661	0.94841
678.77970	0.94824
676.72279	0.94859
674.66588	0.94889
672.60898	0.94838
670.55207	0.94798
668.49516	0.94787
666.43825	0.94735
664.38134	0.94704
662.32443	0.94671
660.26753	0.94608
658.21062	0.94583
656.15371	0.94613
654.09680	0.94641
652.03989	0.94628
649.98299	0.94515
647.92608	0.94367
645.86917	0.94261
643.81226	0.94189
641.75535	0.94216
639.69844	0.94300
637.64154	0.94325
635.58463	0.94297
633.52772	0.94234
631.47081	0.94096
629.41390	0.94001
627.35700	0.94036
625.30009	0.94030
623.24318	0.93940
621.18627	0.93895
619.12936	0.93885
617.07245	0.93777
615.01555	0.93568
612.95864	0.93395
610.90173	0.93325
608.84482	0.93257
606.78791	0.93090
604.73101	0.92872
602.67410	0.92750
600.61719	0.92756
598.56028	0.92792
596.50337	0.92889
594.44646	0.93096
592.38956	0.93282
590.33265	0.93310
588.27574	0.93217
586.21883	0.93091
584.16192	0.93020
582.10502	0.92971
580.04811	0.92928
577.99120	0.93053
575.93429	0.93156
573.87738	0.93050
571.82047	0.93036
569.76357	0.93187
567.70666	0.93186
565.64975	0.92996
563.59284	0.92815
561.53593	0.92727
559.47903	0.92766
557.42212	0.92869
555.36521	0.92895
553.30830	0.92858
551.25139	0.92827
549.19448	0.92806
547.13758	0.92806
545.08067	0.92793
543.02376	0.92723
540.96685	0.92633
538.90994	0.92576
536.85304	0.92522
534.79613	0.92426
532.73922	0.92371
530.68231	0.92433
528.62540	0.92553
526.56849	0.92698
524.51159	0.92780
522.45468	0.92665
520.39777	0.92456
518.34086	0.92255
516.28395	0.92068
514.22705	0.91995
512.17014	0.91999
510.11323	0.91932
508.05632	0.91771
505.99941	0.91552
503.94250	0.91371
501.88560	0.91298
499.82869	0.91253
497.77178	0.91171
495.71487	0.91104
493.65796	0.91063
491.60106	0.90893
489.54415	0.90729
487.48724	0.90797
485.43033	0.90770
483.37342	0.90473
481.31651	0.90310
479.25961	0.90339
477.20270	0.90293
475.14579	0.90255
473.08888	0.90318
471.03197	0.90278
468.97507	0.89973
466.91816	0.89668
464.86125	0.89654
462.80434	0.89650
460.74743	0.89491
458.69052	0.89514
456.63362	0.89560
454.57671	0.89378
452.51980	0.89391
450.46289	0.89506
448.40598	0.89493
446.34908	0.89618
444.29217	0.89751
442.23526	0.89552
440.17835	0.89252
438.12144	0.89287
436.06453	0.89749
434.00763	0.90267
431.95072	0.90282
429.89381	0.89788
427.83690	0.89296
425.77999	0.89177
423.72309	0.89374
421.66618	0.89660
419.60927	0.89970
417.55236	0.89987
415.49545	0.89807
413.43854	0.89852
411.38164	0.90001
409.32473	0.89890
407.26782	0.89783
405.21091	0.90192
403.15400	0.90642
401.09710	0.90583
399.04019	0.90179
