3996.57260	0.97684
3994.51569	0.97645
3992.45878	0.97656
3990.40188	0.97690
3988.34497	0.97733
3986.28806	0.97758
3984.23115	0.97761
3982.17424	0.97758
3980.11733	0.97772
3978.06043	0.97841
3976.00352	0.97886
3973.94661	0.97819
3971.88970	0.97722
3969.83279	0.97694
3967.77589	0.97744
3965.71898	0.97769
3963.66207	0.97696
3961.60516	0.97653
3959.54825	0.97692
3957.49134	0.97710
3955.43444	0.97723
3953.37753	0.97738
3951.32062	0.97738
3949.26371	0.97752
3947.20680	0.97754
3945.14990	0.97726
3943.09299	0.97702
3941.03608	0.97698
3938.97917	0.97700
3936.92226	0.97721
3934.86535	0.97761
3932.80845	0.97758
3930.75154	0.97725
3928.69463	0.97739
3926.63772	0.97757
3924.58081	0.97746
3922.52391	0.97736
3920.46700	0.97723
3918.41009	0.97726
3916.35318	0.97768
3914.29627	0.97798
3912.23936	0.97766
3910.18246	0.97723
3908.12555	0.97750
3906.06864	0.97818
3904.01173	0.97809
3901.95482	0.97703
3899.89792	0.97656
3897.84101	0.97708
3895.78410	0.97747
3893.72719	0.97760
3891.67028	0.97779
3889.61337	0.97802
3887.55647	0.97817
3885.49956	0.97794
3883.44265	0.97806
3881.38574	0.97831
3879.32883	0.97791
3877.27193	0.97800
3875.21502	0.97868
3873.15811	0.97832
3871.10120	0.97692
3869.04429	0.97678
3866.98738	0.97789
3864.93048	0.97840
3862.87357	0.97833
3860.81666	0.97849
3858.75975	0.97880
3856.70284	0.97916
3854.64594	0.97949
3852.58903	0.97911
3850.53212	0.97845
3848.47521	0.97839
3846.41830	0.97886
3844.36139	0.97917
3842.30449	0.97897
3840.24758	0.97905
3838.19067	0.97911
3836.13376	0.97795
3834.07685	0.97664
3832.01995	0.97619
3829.96304	0.97649
3827.90613	0.97732
3825.84922	0.97802
3823.79231	0.97808
3821.73540	0.97748
3819.67850	0.97692
3817.62159	0.97684
3815.56468	0.97700
3813.50777	0.97769
3811.45086	0.97830
3809.39396	0.97807
3807.33705	0.97734
3805.28014	0.97717
3803.22323	0.97766
3801.16632	0.97831
3799.10941	0.97868
3797.05251	0.97842
3794.99560	0.97762
3792.93869	0.97710
3790.88178	0.97733
3788.82487	0.97783
3786.76796	0.97817
3784.71106	0.97803
3782.65415	0.97768
3780.59724	0.97748
3778.54033	0.97744
3776.48342	0.97795
3774.42652	0.97877
3772.36961	0.97869
3770.31270	0.97746
3768.25579	0.97668
3766.19888	0.97682
3764.14197	0.97733
3762.08507	0.97796
3760.02816	0.97800
3757.97125	0.97754
3755.91434	0.97794
3753.85743	0.97903
3751.80053	0.97923
3749.74362	0.97799
3747.68671	0.97737
3745.62980	0.97791
3743.57289	0.97814
3741.51598	0.97769
3739.45908	0.97761
3737.40217	0.97756
3735.34526	0.97736
3733.28835	0.97773
3731.23144	0.97819
3729.17454	0.97868
3727.11763	0.97921
3725.06072	0.97860
3723.00381	0.97725
3720.94690	0.97718
3718.88999	0.97817
3716.83309	0.97846
3714.77618	0.97795
3712.71927	0.97797
3710.66236	0.97870
3708.60545	0.97900
3706.54855	0.97905
3704.49164	0.97918
3702.43473	0.97887
3700.37782	0.97786
3698.32091	0.97738
3696.26400	0.97793
3694.20710	0.97858
3692.15019	0.97865
3690.09328	0.97816
3688.03637	0.97758
3685.97946	0.97736
3683.92256	0.97738
3681.86565	0.97762
3679.80874	0.97805
3677.75183	0.97904
3675.69492	0.98058
3673.63801	0.98069
3671.58111	0.97969
3669.52420	0.97893
3667.46729	0.97831
3665.41038	0.97787
3663.35347	0.97766
3661.29657	0.97725
3659.23966	0.97667
3657.18275	0.97659
3655.12584	0.97731
3653.06893	0.97819
3651.01202	0.97837
3648.95512	0.97725
3646.89821	0.97623
3644.84130	0.97666
3642.78439	0.97768
3640.72748	0.97808
3638.67058	0.97759
3636.61367	0.97694
3634.55676	0.97647
3632.49985	0.97638
3630.44294	0.97704
3628.38603	0.97700
3626.32913	0.97607
3624.27222	0.97634
3622.21531	0.97734
3620.15840	0.97778
3618.10149	0.97709
3616.04459	0.97638
3613.98768	0.97613
3611.93077	0.97575
3609.87386	0.97548
3607.81695	0.97569
3605.76004	0.97597
3603.70314	0.97574
3601.64623	0.97512
3599.58932	0.97457
3597.53241	0.97483
3595.47550	0.97581
3593.41860	0.97613
3591.36169	0.97528
3589.30478	0.97406
3587.24787	0.97393
3585.19096	0.97482
3583.13405	0.97482
3581.07715	0.97416
3579.02024	0.97379
3576.96333	0.97385
3574.90642	0.97371
3572.84951	0.97290
3570.79261	0.97195
3568.73570	0.97134
3566.67879	0.97125
3564.62188	0.97150
3562.56497	0.97129
3560.50806	0.97056
3558.45116	0.96990
3556.39425	0.96983
3554.33734	0.96987
3552.28043	0.96941
3550.22352	0.96898
3548.16662	0.96907
3546.10971	0.96936
3544.05280	0.96953
3541.99589	0.96960
3539.93898	0.96930
3537.88207	0.96849
3535.82517	0.96755
3533.76826	0.96700
3531.71135	0.96700
3529.65444	0.96709
3527.59753	0.96700
3525.54063	0.96682
3523.48372	0.96625
3521.42681	0.96535
3519.36990	0.96496
3517.31299	0.96525
3515.25608	0.96550
3513.19918	0.96538
3511.14227	0.96518
3509.08536	0.96494
3507.02845	0.96465
3504.97154	0.96431
3502.91464	0.96370
3500.85773	0.96319
3498.80082	0.96346
3496.74391	0.96395
3494.68700	0.96355
3492.63009	0.96277
3490.57319	0.96233
3488.51628	0.96195
3486.45937	0.96169
3484.40246	0.96159
3482.34555	0.96157
3480.28865	0.96144
3478.23174	0.96122
3476.17483	0.96120
3474.11792	0.96146
3472.06101	0.96196
3470.00410	0.96244
3467.94720	0.96268
3465.89029	0.96301
3463.83338	0.96385
3461.77647	0.96396
3459.71956	0.96272
3457.66266	0.96183
3455.60575	0.96185
3453.54884	0.96233
3451.49193	0.96292
3449.43502	0.96313
3447.37811	0.96331
3445.32121	0.96368
3443.26430	0.96369
3441.20739	0.96374
3439.15048	0.96431
3437.09357	0.96466
3435.03667	0.96439
3432.97976	0.96385
3430.92285	0.96373
3428.86594	0.96445
3426.80903	0.96524
3424.75212	0.96548
3422.69522	0.96561
3420.63831	0.96601
3418.58140	0.96657
3416.52449	0.96681
3414.46758	0.96675
3412.41068	0.96719
3410.35377	0.96787
3408.29686	0.96820
3406.23995	0.96844
3404.18304	0.96868
3402.12613	0.96852
3400.06923	0.96816
3398.01232	0.96836
3395.95541	0.96876
3393.89850	0.96884
3391.84159	0.96890
3389.78469	0.96889
3387.72778	0.96912
3385.67087	0.96990
3383.61396	0.97035
3381.55705	0.97008
3379.50014	0.96960
3377.44324	0.96929
3375.38633	0.96939
3373.32942	0.97001
3371.27251	0.97069
3369.21560	0.97082
3367.15870	0.97063
3365.10179	0.97098
3363.04488	0.97164
3360.98797	0.97159
3358.93106	0.97120
3356.87415	0.97124
3354.81725	0.97129
3352.76034	0.97087
3350.70343	0.97049
3348.64652	0.97062
3346.58961	0.97100
3344.53271	0.97132
3342.47580	0.97137
3340.41889	0.97152
3338.36198	0.97203
3336.30507	0.97229
3334.24816	0.97212
3332.19126	0.97185
3330.13435	0.97192
3328.07744	0.97233
3326.02053	0.97259
3323.96362	0.97259
3321.90672	0.97241
3319.84981	0.97231
3317.79290	0.97217
3315.73599	0.97173
3313.67908	0.97166
3311.62217	0.97201
3309.56527	0.97212
3307.50836	0.97230
3305.45145	0.97277
3303.39454	0.97315
3301.33763	0.97337
3299.28073	0.97346
3297.22382	0.97329
3295.16691	0.97253
3293.11000	0.97198
3291.05309	0.97235
3288.99618	0.97274
3286.93928	0.97298
3284.88237	0.97343
3282.82546	0.97371
3280.76855	0.97384
3278.71164	0.97398
3276.65474	0.97412
3274.59783	0.97412
3272.54092	0.97398
3270.48401	0.97391
3268.42710	0.97399
3266.37019	0.97402
3264.31329	0.97357
3262.25638	0.97315
3260.19947	0.97352
3258.14256	0.97394
3256.08565	0.97405
3254.02875	0.97431
3251.97184	0.97454
3249.91493	0.97464
3247.85802	0.97501
3245.80111	0.97530
3243.74420	0.97490
3241.68730	0.97435
3239.63039	0.97422
3237.57348	0.97389
3235.51657	0.97342
3233.45966	0.97394
3231.40276	0.97528
3229.34585	0.97623
3227.28894	0.97621
3225.23203	0.97542
3223.17512	0.97467
3221.11821	0.97484
3219.06131	0.97549
3217.00440	0.97568
3214.94749	0.97549
3212.89058	0.97532
3210.83367	0.97530
3208.77677	0.97528
3206.71986	0.97496
3204.66295	0.97466
3202.60604	0.97476
3200.54913	0.97519
3198.49222	0.97556
3196.43532	0.97557
3194.37841	0.97546
3192.32150	0.97565
3190.26459	0.97603
3188.20768	0.97607
3186.15078	0.97563
3184.09387	0.97477
3182.03696	0.97427
3179.98005	0.97491
3177.92314	0.97587
3175.86623	0.97627
3173.80933	0.97607
3171.75242	0.97569
3169.69551	0.97590
3167.63860	0.97636
3165.58169	0.97650
3163.52479	0.97658
3161.46788	0.97635
3159.41097	0.97573
3157.35406	0.97551
3155.29715	0.97551
3153.24024	0.97529
3151.18334	0.97530
3149.12643	0.97544
3147.06952	0.97557
3145.01261	0.97610
3142.95570	0.97678
3140.89880	0.97689
3138.84189	0.97640
3136.78498	0.97583
3134.72807	0.97573
3132.67116	0.97592
3130.61425	0.97569
3128.55735	0.97535
3126.50044	0.97568
3124.44353	0.97624
3122.38662	0.97646
3120.32971	0.97641
3118.27281	0.97622
3116.21590	0.97640
3114.15899	0.97685
3112.10208	0.97676
3110.04517	0.97639
3107.98826	0.97606
3105.93136	0.97552
3103.87445	0.97518
3101.81754	0.97553
3099.76063	0.97608
3097.70372	0.97614
3095.64682	0.97590
3093.58991	0.97568
3091.53300	0.97551
3089.47609	0.97570
3087.41918	0.97622
3085.36227	0.97665
3083.30537	0.97683
3081.24846	0.97676
3079.19155	0.97660
3077.13464	0.97645
3075.07773	0.97620
3073.02083	0.97586
3070.96392	0.97548
3068.90701	0.97528
3066.85010	0.97562
3064.79319	0.97637
3062.73628	0.97675
3060.67938	0.97653
3058.62247	0.97630
3056.56556	0.97619
3054.50865	0.97580
3052.45174	0.97545
3050.39484	0.97571
3048.33793	0.97624
3046.28102	0.97617
3044.22411	0.97548
3042.16720	0.97511
3040.11029	0.97528
3038.05339	0.97518
3035.99648	0.97489
3033.93957	0.97511
3031.88266	0.97544
3029.82575	0.97524
3027.76885	0.97488
3025.71194	0.97483
3023.65503	0.97503
3021.59812	0.97507
3019.54121	0.97467
3017.48430	0.97434
3015.42740	0.97425
3013.37049	0.97404
3011.31358	0.97394
3009.25667	0.97413
3007.19976	0.97430
3005.14286	0.97435
3003.08595	0.97428
3001.02904	0.97416
2998.97213	0.97429
2996.91522	0.97437
2994.85831	0.97414
2992.80141	0.97376
2990.74450	0.97335
2988.68759	0.97307
2986.63068	0.97280
2984.57377	0.97246
2982.51687	0.97229
2980.45996	0.97231
2978.40305	0.97239
2976.34614	0.97231
2974.28923	0.97195
2972.23232	0.97146
2970.17542	0.97095
2968.11851	0.97032
2966.06160	0.96994
2964.00469	0.96989
2961.94778	0.96942
2959.89088	0.96845
2957.83397	0.96792
2955.77706	0.96817
2953.72015	0.96838
2951.66324	0.96805
2949.60633	0.96775
2947.54943	0.96781
2945.49252	0.96773
2943.43561	0.96737
2941.37870	0.96728
2939.32179	0.96750
2937.26489	0.96766
2935.20798	0.96819
2933.15107	0.96901
2931.09416	0.96958
2929.03725	0.97006
2926.98034	0.97031
2924.92344	0.97021
2922.86653	0.97006
2920.80962	0.96992
2918.75271	0.96987
2916.69580	0.96995
2914.63890	0.97002
2912.58199	0.97025
2910.52508	0.97056
2908.46817	0.97031
2906.41126	0.96961
2904.35435	0.96922
2902.29745	0.96910
2900.24054	0.96899
2898.18363	0.96910
2896.12672	0.96929
2894.06981	0.96930
2892.01291	0.96916
2889.95600	0.96892
2887.89909	0.96865
2885.84218	0.96868
2883.78527	0.96894
2881.72836	0.96900
2879.67146	0.96879
2877.61455	0.96866
2875.55764	0.96901
2873.50073	0.96967
2871.44382	0.97001
2869.38692	0.97003
2867.33001	0.97022
2865.27310	0.97066
2863.21619	0.97098
2861.15928	0.97099
2859.10237	0.97092
2857.04547	0.97103
2854.98856	0.97132
2852.93165	0.97179
2850.87474	0.97246
2848.81783	0.97298
2846.76093	0.97295
2844.70402	0.97288
2842.64711	0.97316
2840.59020	0.97355
2838.53329	0.97390
2836.47638	0.97405
2834.41948	0.97410
2832.36257	0.97426
2830.30566	0.97438
2828.24875	0.97423
2826.19184	0.97395
2824.13494	0.97398
2822.07803	0.97418
2820.02112	0.97406
2817.96421	0.97378
2815.90730	0.97402
2813.85039	0.97437
2811.79349	0.97412
2809.73658	0.97381
2807.67967	0.97382
2805.62276	0.97395
2803.56585	0.97429
2801.50895	0.97466
2799.45204	0.97481
2797.39513	0.97488
2795.33822	0.97500
2793.28131	0.97519
2791.22440	0.97512
2789.16750	0.97476
2787.11059	0.97458
2785.05368	0.97473
2782.99677	0.97493
2780.93986	0.97501
2778.88296	0.97515
2776.82605	0.97548
2774.76914	0.97571
2772.71223	0.97571
2770.65532	0.97581
2768.59841	0.97609
2766.54151	0.97634
2764.48460	0.97627
2762.42769	0.97588
2760.37078	0.97563
2758.31387	0.97564
2756.25697	0.97574
2754.20006	0.97581
2752.14315	0.97571
2750.08624	0.97575
2748.02933	0.97611
2745.97242	0.97607
2743.91552	0.97560
2741.85861	0.97532
2739.80170	0.97534
2737.74479	0.97545
2735.68788	0.97548
2733.63098	0.97569
2731.57407	0.97601
2729.51716	0.97577
2727.46025	0.97530
2725.40334	0.97525
2723.34643	0.97532
2721.28953	0.97516
2719.23262	0.97510
2717.17571	0.97542
2715.11880	0.97582
2713.06189	0.97580
2711.00499	0.97550
2708.94808	0.97553
2706.89117	0.97592
2704.83426	0.97621
2702.77735	0.97615
2700.72044	0.97584
2698.66354	0.97538
2696.60663	0.97520
2694.54972	0.97553
2692.49281	0.97607
2690.43590	0.97638
2688.37900	0.97623
2686.32209	0.97578
2684.26518	0.97546
2682.20827	0.97559
2680.15136	0.97600
2678.09445	0.97617
2676.03755	0.97592
2673.98064	0.97562
2671.92373	0.97568
2669.86682	0.97602
2667.80991	0.97610
2665.75301	0.97587
2663.69610	0.97602
2661.63919	0.97632
2659.58228	0.97624
2657.52537	0.97591
2655.46846	0.97561
2653.41156	0.97565
2651.35465	0.97581
2649.29774	0.97569
2647.24083	0.97571
2645.18392	0.97612
2643.12702	0.97634
2641.07011	0.97611
2639.01320	0.97614
2636.95629	0.97651
2634.89938	0.97664
2632.84247	0.97645
2630.78557	0.97620
2628.72866	0.97617
2626.67175	0.97648
2624.61484	0.97683
2622.55793	0.97676
2620.50103	0.97655
2618.44412	0.97673
2616.38721	0.97690
2614.33030	0.97666
2612.27339	0.97650
2610.21648	0.97686
2608.15958	0.97713
2606.10267	0.97685
2604.04576	0.97655
2601.98885	0.97675
2599.93194	0.97718
2597.87504	0.97743
2595.81813	0.97748
2593.76122	0.97744
2591.70431	0.97742
2589.64740	0.97738
2587.59049	0.97763
2585.53359	0.97801
2583.47668	0.97805
2581.41977	0.97787
2579.36286	0.97769
2577.30595	0.97759
2575.24905	0.97748
2573.19214	0.97730
2571.13523	0.97720
2569.07832	0.97728
2567.02141	0.97731
2564.96450	0.97722
2562.90760	0.97718
2560.85069	0.97751
2558.79378	0.97814
2556.73687	0.97822
2554.67996	0.97785
2552.62306	0.97783
2550.56615	0.97786
2548.50924	0.97765
2546.45233	0.97752
2544.39542	0.97768
2542.33851	0.97816
2540.28161	0.97849
2538.22470	0.97847
2536.16779	0.97852
2534.11088	0.97860
2532.05397	0.97844
2529.99707	0.97810
2527.94016	0.97773
2525.88325	0.97748
2523.82634	0.97751
2521.76943	0.97822
2519.71252	0.97923
2517.65562	0.97918
2515.59871	0.97818
2513.54180	0.97763
2511.48489	0.97778
2509.42798	0.97799
2507.37108	0.97775
2505.31417	0.97738
2503.25726	0.97770
2501.20035	0.97852
2499.14344	0.97921
2497.08653	0.97966
2495.02963	0.97950
2492.97272	0.97879
2490.91581	0.97835
2488.85890	0.97873
2486.80199	0.97924
2484.74509	0.97895
2482.68818	0.97861
2480.63127	0.97848
2478.57436	0.97795
2476.51745	0.97743
2474.46054	0.97748
2472.40364	0.97769
2470.34673	0.97762
2468.28982	0.97755
2466.23291	0.97759
2464.17600	0.97757
2462.11910	0.97770
2460.06219	0.97797
2458.00528	0.97822
2455.94837	0.97834
2453.89146	0.97825
2451.83455	0.97798
2449.77765	0.97779
2447.72074	0.97805
2445.66383	0.97852
2443.60692	0.97864
2441.55001	0.97853
2439.49311	0.97864
2437.43620	0.97884
2435.37929	0.97885
2433.32238	0.97881
2431.26547	0.97895
2429.20856	0.97899
2427.15166	0.97877
2425.09475	0.97874
2423.03784	0.97888
2420.98093	0.97865
2418.92402	0.97844
2416.86712	0.97865
2414.81021	0.97882
2412.75330	0.97861
2410.69639	0.97814
2408.63948	0.97811
2406.58257	0.97860
2404.52567	0.97895
2402.46876	0.97924
2400.41185	0.97932
2398.35494	0.97896
2396.29803	0.97845
2394.24113	0.97800
2392.18422	0.97776
2390.12731	0.97783
2388.07040	0.97809
2386.01349	0.97844
2383.95658	0.97858
2381.89968	0.97829
2379.84277	0.97780
2377.78586	0.97755
2375.72895	0.97792
2373.67204	0.97856
2371.61514	0.97908
2369.55823	0.97992
2367.50132	0.98011
2365.44441	0.97891
2363.38750	0.97739
2361.33059	0.97557
2359.27369	0.97471
2357.21678	0.97608
2355.15987	0.97725
2353.10296	0.97697
2351.04605	0.97703
2348.98915	0.97803
2346.93224	0.97897
2344.87533	0.97874
2342.81842	0.97780
2340.76151	0.97792
2338.70460	0.97861
2336.64770	0.97882
2334.59079	0.97882
2332.53388	0.97873
2330.47697	0.97858
2328.42006	0.97797
2326.36316	0.97670
2324.30625	0.97644
2322.24934	0.97801
2320.19243	0.97923
2318.13552	0.97885
2316.07861	0.97858
2314.02171	0.97955
2311.96480	0.98047
2309.90789	0.98009
2307.85098	0.97948
2305.79407	0.97967
2303.73717	0.97955
2301.68026	0.97863
2299.62335	0.97841
2297.56644	0.97907
2295.50953	0.97925
2293.45262	0.97907
2291.39572	0.97923
2289.33881	0.97957
2287.28190	0.97967
2285.22499	0.97929
2283.16808	0.97873
2281.11117	0.97840
2279.05427	0.97870
2276.99736	0.97945
2274.94045	0.97937
2272.88354	0.97823
2270.82663	0.97772
2268.76973	0.97829
2266.71282	0.97869
2264.65591	0.97844
2262.59900	0.97811
2260.54209	0.97820
2258.48518	0.97845
2256.42828	0.97824
2254.37137	0.97796
2252.31446	0.97804
2250.25755	0.97826
2248.20064	0.97856
2246.14374	0.97856
2244.08683	0.97868
2242.02992	0.97927
2239.97301	0.97935
2237.91610	0.97930
2235.85919	0.97963
2233.80229	0.97904
2231.74538	0.97806
2229.68847	0.97868
2227.63156	0.98017
2225.57465	0.98069
2223.51775	0.98040
2221.46084	0.98018
2219.40393	0.97991
2217.34702	0.97941
2215.29011	0.97967
2213.23320	0.98111
2211.17630	0.98251
2209.11939	0.98309
2207.06248	0.98267
2205.00557	0.98166
2202.94866	0.98093
2200.89176	0.98028
2198.83485	0.97994
2196.77794	0.98056
2194.72103	0.98152
2192.66412	0.98150
2190.60721	0.97992
2188.55031	0.97889
2186.49340	0.98084
2184.43649	0.98360
2182.37958	0.98329
2180.32267	0.98080
2178.26577	0.98010
2176.20886	0.98123
2174.15195	0.98084
2172.09504	0.97996
2170.03813	0.98143
2167.98122	0.98389
2165.92432	0.98454
2163.86741	0.98243
2161.81050	0.97989
2159.75359	0.98103
2157.69668	0.98430
2155.63978	0.98452
2153.58287	0.98375
2151.52596	0.98455
2149.46905	0.98392
2147.41214	0.98202
2145.35523	0.98152
2143.29833	0.98139
2141.24142	0.98128
2139.18451	0.98187
2137.12760	0.98232
2135.07069	0.98154
2133.01379	0.98015
2130.95688	0.97982
2128.89997	0.98040
2126.84306	0.98089
2124.78615	0.98092
2122.72924	0.98043
2120.67234	0.97943
2118.61543	0.97849
2116.55852	0.97853
2114.50161	0.97937
2112.44470	0.97961
2110.38780	0.97868
2108.33089	0.97755
2106.27398	0.97749
2104.21707	0.97817
2102.16016	0.97841
2100.10325	0.97912
2098.04635	0.98059
2095.98944	0.98108
2093.93253	0.98045
2091.87562	0.97994
2089.81871	0.97997
2087.76181	0.98049
2085.70490	0.98088
2083.64799	0.98083
2081.59108	0.98121
2079.53417	0.98216
2077.47726	0.98292
2075.42036	0.98303
2073.36345	0.98297
2071.30654	0.98269
2069.24963	0.98152
2067.19272	0.98106
2065.13582	0.98221
2063.07891	0.98345
2061.02200	0.98357
2058.96509	0.98235
2056.90818	0.98136
2054.85127	0.98165
2052.79437	0.98184
2050.73746	0.98125
2048.68055	0.98100
2046.62364	0.98154
2044.56673	0.98193
2042.50983	0.98237
2040.45292	0.98381
2038.39601	0.98516
2036.33910	0.98500
2034.28219	0.98302
2032.22528	0.98114
2030.16838	0.98181
2028.11147	0.98394
2026.05456	0.98535
2023.99765	0.98553
2021.94074	0.98438
2019.88384	0.98310
2017.82693	0.98358
2015.77002	0.98388
2013.71311	0.98124
2011.65620	0.97899
2009.59929	0.98035
2007.54239	0.98270
2005.48548	0.98421
2003.42857	0.98503
2001.37166	0.98494
1999.31475	0.98485
1997.25785	0.98504
1995.20094	0.98475
1993.14403	0.98369
1991.08712	0.98315
1989.03021	0.98354
1986.97330	0.98319
1984.91640	0.98231
1982.85949	0.98173
1980.80258	0.98147
1978.74567	0.98280
1976.68876	0.98467
1974.63186	0.98444
1972.57495	0.98296
1970.51804	0.98217
1968.46113	0.98230
1966.40422	0.98294
1964.34731	0.98435
1962.29041	0.98609
1960.23350	0.98671
1958.17659	0.98588
1956.11968	0.98513
1954.06277	0.98496
1952.00587	0.98465
1949.94896	0.98400
1947.89205	0.98333
1945.83514	0.98251
1943.77823	0.98175
1941.72132	0.98287
1939.66442	0.98478
1937.60751	0.98486
1935.55060	0.98411
1933.49369	0.98377
1931.43678	0.98357
1929.37988	0.98370
1927.32297	0.98362
1925.26606	0.98300
1923.20915	0.98297
1921.15224	0.98334
1919.09533	0.98264
1917.03843	0.98150
1914.98152	0.98164
1912.92461	0.98263
1910.86770	0.98317
1908.81079	0.98279
1906.75389	0.98244
1904.69698	0.98246
1902.64007	0.98262
1900.58316	0.98353
1898.52625	0.98480
1896.46934	0.98494
1894.41244	0.98420
1892.35553	0.98386
1890.29862	0.98377
1888.24171	0.98386
1886.18480	0.98426
1884.12790	0.98464
1882.07099	0.98449
1880.01408	0.98370
1877.95717	0.98330
1875.90026	0.98338
1873.84335	0.98323
1871.78645	0.98336
1869.72954	0.98353
1867.67263	0.98363
1865.61572	0.98427
1863.55881	0.98443
1861.50191	0.98391
1859.44500	0.98391
1857.38809	0.98445
1855.33118	0.98438
1853.27427	0.98399
1851.21736	0.98408
1849.16046	0.98436
1847.10355	0.98432
1845.04664	0.98398
1842.98973	0.98375
1840.93282	0.98381
1838.87592	0.98420
1836.81901	0.98456
1834.76210	0.98472
1832.70519	0.98480
1830.64828	0.98504
1828.59137	0.98523
1826.53447	0.98502
1824.47756	0.98453
1822.42065	0.98418
1820.36374	0.98417
1818.30683	0.98427
1816.24993	0.98415
1814.19302	0.98373
1812.13611	0.98343
1810.07920	0.98315
1808.02229	0.98273
1805.96538	0.98238
1803.90848	0.98214
1801.85157	0.98187
1799.79466	0.98170
1797.73775	0.98159
1795.68084	0.98134
1793.62394	0.98093
1791.56703	0.98005
1789.51012	0.97905
1787.45321	0.97826
1785.39630	0.97755
1783.33939	0.97651
1781.28249	0.97485
1779.22558	0.97246
1777.16867	0.96954
1775.11176	0.96609
1773.05485	0.96092
1770.99795	0.95340
1768.94104	0.94454
1766.88413	0.93370
1764.82722	0.92130
1762.77031	0.90633
1760.71340	0.88895
1758.65650	0.87314
1756.59959	0.85759
1754.54268	0.84387
1752.48577	0.83267
1750.42886	0.82058
1748.37196	0.80858
1746.31505	0.79898
1744.25814	0.79145
1742.20123	0.78595
1740.14432	0.78253
1738.08741	0.78170
1736.03051	0.78367
1733.97360	0.78878
1731.91669	0.79647
1729.85978	0.80500
1727.80287	0.81482
1725.74597	0.82545
1723.68906	0.83658
1721.63215	0.84733
1719.57524	0.85818
1717.51833	0.87117
1715.46142	0.88393
1713.40452	0.89394
1711.34761	0.90255
1709.29070	0.91031
1707.23379	0.91761
1705.17688	0.92431
1703.11998	0.92924
1701.06307	0.93343
1699.00616	0.93788
1696.94925	0.94163
1694.89234	0.94501
1692.83543	0.94773
1690.77853	0.94986
1688.72162	0.95167
1686.66471	0.95305
1684.60780	0.95465
1682.55089	0.95638
1680.49399	0.95778
1678.43708	0.95897
1676.38017	0.95970
1674.32326	0.96015
1672.26635	0.96096
1670.20944	0.96191
1668.15254	0.96242
1666.09563	0.96287
1664.03872	0.96353
1661.98181	0.96379
1659.92490	0.96361
1657.86800	0.96373
1655.81109	0.96385
1653.75418	0.96356
1651.69727	0.96372
1649.64036	0.96404
1647.58345	0.96381
1645.52655	0.96358
1643.46964	0.96390
1641.41273	0.96429
1639.35582	0.96438
1637.29891	0.96412
1635.24201	0.96413
1633.18510	0.96474
1631.12819	0.96535
1629.07128	0.96593
1627.01437	0.96656
1624.95746	0.96697
1622.90056	0.96726
1620.84365	0.96775
1618.78674	0.96833
1616.72983	0.96899
1614.67292	0.96980
1612.61602	0.97034
1610.55911	0.97063
1608.50220	0.97116
1606.44529	0.97174
1604.38838	0.97181
1602.33147	0.97182
1600.27457	0.97223
1598.21766	0.97255
1596.16075	0.97272
1594.10384	0.97319
1592.04693	0.97379
1589.99003	0.97411
1587.93312	0.97424
1585.87621	0.97445
1583.81930	0.97467
1581.76239	0.97478
1579.70548	0.97500
1577.64858	0.97559
1575.59167	0.97612
1573.53476	0.97606
1571.47785	0.97592
1569.42094	0.97600
1567.36404	0.97598
1565.30713	0.97567
1563.25022	0.97531
1561.19331	0.97505
1559.13640	0.97528
1557.07949	0.97614
1555.02259	0.97650
1552.96568	0.97651
1550.90877	0.97652
1548.85186	0.97671
1546.79495	0.97723
1544.73805	0.97773
1542.68114	0.97761
1540.62423	0.97698
1538.56732	0.97677
1536.51041	0.97698
1534.45350	0.97700
1532.39660	0.97664
1530.33969	0.97632
1528.28278	0.97643
1526.22587	0.97693
1524.16896	0.97743
1522.11206	0.97749
1520.05515	0.97743
1517.99824	0.97772
1515.94133	0.97795
1513.88442	0.97801
1511.82751	0.97809
1509.77061	0.97816
1507.71370	0.97819
1505.65679	0.97810
1503.59988	0.97812
1501.54297	0.97815
1499.48607	0.97793
1497.42916	0.97772
1495.37225	0.97779
1493.31534	0.97791
1491.25843	0.97815
1489.20152	0.97826
1487.14462	0.97800
1485.08771	0.97774
1483.03080	0.97743
1480.97389	0.97695
1478.91698	0.97643
1476.86008	0.97593
1474.80317	0.97549
1472.74626	0.97473
1470.68935	0.97356
1468.63244	0.97248
1466.57553	0.97113
1464.51863	0.96905
1462.46172	0.96701
1460.40481	0.96565
1458.34790	0.96437
1456.29099	0.96262
1454.23409	0.96138
1452.17718	0.96040
1450.12027	0.95904
1448.06336	0.95741
1446.00645	0.95581
1443.94954	0.95430
1441.89264	0.95279
1439.83573	0.95133
1437.77882	0.94966
1435.72191	0.94793
1433.66500	0.94721
1431.60810	0.94720
1429.55119	0.94762
1427.49428	0.94860
1425.43737	0.94980
1423.38046	0.95094
1421.32355	0.95219
1419.26665	0.95351
1417.20974	0.95456
1415.15283	0.95550
1413.09592	0.95654
1411.03901	0.95744
1408.98211	0.95800
1406.92520	0.95838
1404.86829	0.95879
1402.81138	0.95914
1400.75447	0.95912
1398.69756	0.95828
1396.64066	0.95636
1394.58375	0.95317
1392.52684	0.94882
1390.46993	0.94376
1388.41302	0.93743
1386.35612	0.92956
1384.29921	0.92145
1382.24230	0.91336
1380.18539	0.90493
1378.12848	0.89647
1376.07157	0.88830
1374.01467	0.88041
1371.95776	0.87412
1369.90085	0.87060
1367.84394	0.87009
1365.78703	0.87337
1363.73013	0.88125
1361.67322	0.89363
1359.61631	0.90728
1357.55940	0.91969
1355.50249	0.93056
1353.44558	0.93936
1351.38868	0.94550
1349.33177	0.94962
1347.27486	0.95256
1345.21795	0.95465
1343.16104	0.95617
1341.10414	0.95719
1339.04723	0.95778
1336.99032	0.95817
1334.93341	0.95846
1332.87650	0.95869
1330.81959	0.95854
1328.76269	0.95802
1326.70578	0.95771
1324.64887	0.95749
1322.59196	0.95717
1320.53505	0.95691
1318.47815	0.95675
1316.42124	0.95694
1314.36433	0.95741
1312.30742	0.95781
1310.25051	0.95817
1308.19360	0.95848
1306.13670	0.95848
1304.07979	0.95819
1302.02288	0.95791
1299.96597	0.95760
1297.90906	0.95685
1295.85216	0.95554
1293.79525	0.95397
1291.73834	0.95216
1289.68143	0.95015
1287.62452	0.94788
1285.56761	0.94516
1283.51071	0.94208
1281.45380	0.93856
1279.39689	0.93454
1277.33998	0.93017
1275.28307	0.92511
1273.22617	0.91918
1271.16926	0.91284
1269.11235	0.90619
1267.05544	0.89884
1264.99853	0.89088
1262.94162	0.88247
1260.88472	0.87329
1258.82781	0.86339
1256.77090	0.85284
1254.71399	0.84155
1252.65708	0.82990
1250.60018	0.81822
1248.54327	0.80621
1246.48636	0.79358
1244.42945	0.78061
1242.37254	0.76764
1240.31563	0.75480
1238.25873	0.74205
1236.20182	0.72982
1234.14491	0.71868
1232.08800	0.70879
1230.03109	0.70024
1227.97419	0.69347
1225.91728	0.68878
1223.86037	0.68635
1221.80346	0.68639
1219.74655	0.68878
1217.68964	0.69337
1215.63274	0.70062
1213.57583	0.71113
1211.51892	0.72493
1209.46201	0.74177
1207.40510	0.76121
1205.34820	0.78225
1203.29129	0.80366
1201.23438	0.82446
1199.17747	0.84380
1197.12056	0.86082
1195.06365	0.87488
1193.00675	0.88591
1190.94984	0.89411
1188.89293	0.89980
1186.83602	0.90340
1184.77911	0.90516
1182.72221	0.90537
1180.66530	0.90439
1178.60839	0.90231
1176.55148	0.89939
1174.49457	0.89642
1172.43766	0.89397
1170.38076	0.89169
1168.32385	0.88965
1166.26694	0.88868
1164.21003	0.88871
1162.15312	0.88922
1160.09622	0.89034
1158.03931	0.89232
1155.98240	0.89508
1153.92549	0.89810
1151.86858	0.90094
1149.81167	0.90358
1147.75477	0.90583
1145.69786	0.90717
1143.64095	0.90739
1141.58404	0.90675
1139.52713	0.90525
1137.47023	0.90292
1135.41332	0.90021
1133.35641	0.89721
1131.29950	0.89384
1129.24259	0.89027
1127.18568	0.88702
1125.12878	0.88462
1123.07187	0.88300
1121.01496	0.88194
1118.95805	0.88155
1116.90114	0.88174
1114.84424	0.88182
1112.78733	0.88138
1110.73042	0.88075
1108.67351	0.87993
1106.61660	0.87866
1104.55969	0.87678
1102.50279	0.87412
1100.44588	0.87084
1098.38897	0.86716
1096.33206	0.86314
1094.27515	0.85851
1092.21825	0.85297
1090.16134	0.84671
1088.10443	0.83994
1086.04752	0.83267
1083.99061	0.82496
1081.93370	0.81717
1079.87680	0.80974
1077.81989	0.80254
1075.76298	0.79536
1073.70607	0.78860
1071.64916	0.78233
1069.59226	0.77624
1067.53535	0.77037
1065.47844	0.76450
1063.42153	0.75828
1061.36462	0.75172
1059.30771	0.74514
1057.25081	0.73845
1055.19390	0.73105
1053.13699	0.72314
1051.08008	0.71573
1049.02317	0.70932
1046.96627	0.70346
1044.90936	0.69773
1042.85245	0.69238
1040.79554	0.68766
1038.73863	0.68331
1036.68172	0.67900
1034.62482	0.67559
1032.56791	0.67459
1030.51100	0.67662
1028.45409	0.68163
1026.39718	0.68934
1024.34028	0.69933
1022.28337	0.71101
1020.22646	0.72326
1018.16955	0.73526
1016.11264	0.74710
1014.05573	0.75868
1011.99883	0.76986
1009.94192	0.78072
1007.88501	0.79123
1005.82810	0.80109
1003.77119	0.80994
1001.71429	0.81779
999.65738	0.82479
997.60047	0.83129
995.54356	0.83748
993.48665	0.84288
991.42974	0.84712
989.37284	0.85068
987.31593	0.85411
985.25902	0.85723
983.20211	0.86002
981.14520	0.86314
979.08830	0.86675
977.03139	0.87059
974.97448	0.87501
972.91757	0.88010
970.86066	0.88509
968.80375	0.88935
966.74685	0.89308
964.68994	0.89652
962.63303	0.89943
960.57612	0.90165
958.51921	0.90326
956.46231	0.90448
954.40540	0.90555
952.34849	0.90667
950.29158	0.90801
948.23467	0.90933
946.17776	0.91048
944.12086	0.91178
942.06395	0.91335
940.00704	0.91499
937.95013	0.91618
935.89322	0.91646
933.83632	0.91622
931.77941	0.91601
929.72250	0.91553
927.66559	0.91425
925.60868	0.91266
923.55177	0.91120
921.49487	0.90944
919.43796	0.90769
917.38105	0.90660
915.32414	0.90572
913.26723	0.90452
911.21033	0.90311
909.15342	0.90182
907.09651	0.90085
905.03960	0.90000
902.98269	0.89914
900.92578	0.89884
898.86888	0.89972
896.81197	0.90147
894.75506	0.90377
892.69815	0.90656
890.64124	0.90910
888.58434	0.91100
886.52743	0.91291
884.47052	0.91495
882.41361	0.91651
880.35670	0.91823
878.29979	0.92094
876.24289	0.92380
874.18598	0.92587
872.12907	0.92793
870.07216	0.93087
868.01525	0.93383
865.95835	0.93616
863.90144	0.93824
861.84453	0.93991
859.78762	0.94129
857.73071	0.94262
855.67380	0.94338
853.61690	0.94359
851.55999	0.94362
849.50308	0.94326
847.44617	0.94273
845.38926	0.94223
843.33236	0.94149
841.27545	0.94078
839.21854	0.94060
837.16163	0.94097
835.10472	0.94189
833.04781	0.94342
830.99091	0.94510
828.93400	0.94658
826.87709	0.94797
824.82018	0.94927
822.76327	0.95045
820.70637	0.95152
818.64946	0.95228
816.59255	0.95279
814.53564	0.95314
812.47873	0.95317
810.42182	0.95338
808.36492	0.95416
806.30801	0.95489
804.25110	0.95542
802.19419	0.95607
800.13728	0.95637
798.08038	0.95638
796.02347	0.95681
793.96656	0.95749
791.90965	0.95789
789.85274	0.95800
787.79583	0.95827
785.73893	0.95851
783.68202	0.95846
781.62511	0.95848
779.56820	0.95851
777.51129	0.95836
775.45439	0.95850
773.39748	0.95870
771.34057	0.95855
769.28366	0.95876
767.22675	0.95935
765.16984	0.95978
763.11294	0.95995
761.05603	0.95981
758.99912	0.95978
756.94221	0.96034
754.88530	0.96090
752.82839	0.96070
750.77149	0.96003
748.71458	0.95979
746.65767	0.96010
744.60076	0.96047
742.54385	0.96067
740.48695	0.96072
738.43004	0.96078
736.37313	0.96045
734.31622	0.95962
732.25931	0.95882
730.20240	0.95815
728.14550	0.95776
726.08859	0.95768
724.03168	0.95715
721.97477	0.95590
719.91786	0.95501
717.86096	0.95488
715.80405	0.95497
713.74714	0.95517
711.69023	0.95546
709.63332	0.95553
707.57641	0.95486
705.51951	0.95359
703.46260	0.95264
701.40569	0.95228
699.34878	0.95163
697.29187	0.95017
695.23497	0.94841
693.17806	0.94693
691.12115	0.94625
689.06424	0.94607
687.00733	0.94557
684.95042	0.94528
682.89352	0.94546
680.83661	0.94529
678.77970	0.94538
676.72279	0.94607
674.66588	0.94636
672.60898	0.94654
670.55207	0.94718
668.49516	0.94762
666.43825	0.94724
664.38134	0.94706
662.32443	0.94698
660.26753	0.94593
658.21062	0.94385
656.15371	0.94211
654.09680	0.94160
652.03989	0.94136
649.98299	0.94050
647.92608	0.93922
645.86917	0.93746
643.81226	0.93500
641.75535	0.93295
639.69844	0.93220
637.64154	0.93114
635.58463	0.92891
633.52772	0.92715
631.47081	0.92623
629.41390	0.92542
627.35700	0.92453
625.30009	0.92349
623.24318	0.92256
621.18627	0.92138
619.12936	0.91866
617.07245	0.91502
615.01555	0.91207
612.95864	0.90819
610.90173	0.90192
608.84482	0.89502
606.78791	0.88907
604.73101	0.88438
602.67410	0.88251
600.61719	0.88478
598.56028	0.88991
596.50337	0.89606
594.44646	0.90127
592.38956	0.90528
590.33265	0.91022
588.27574	0.91568
586.21883	0.91929
584.16192	0.92134
582.10502	0.92375
580.04811	0.92658
577.99120	0.92853
575.93429	0.92856
573.87738	0.92693
571.82047	0.92452
569.76357	0.92165
567.70666	0.91978
565.64975	0.91918
563.59284	0.91786
561.53593	0.91625
559.47903	0.91580
557.42212	0.91635
555.36521	0.91756
553.30830	0.91911
551.25139	0.92109
549.19448	0.92327
547.13758	0.92460
545.08067	0.92479
543.02376	0.92469
540.96685	0.92429
538.90994	0.92387
536.85304	0.92511
534.79613	0.92651
532.73922	0.92550
530.68231	0.92380
528.62540	0.92393
526.56849	0.92456
524.51159	0.92386
522.45468	0.92256
520.39777	0.92154
518.34086	0.92093
516.28395	0.92009
514.22705	0.91950
512.17014	0.91965
510.11323	0.91934
508.05632	0.91847
505.99941	0.91747
503.94250	0.91659
501.88560	0.91680
499.82869	0.91734
497.77178	0.91602
495.71487	0.91350
493.65796	0.91228
491.60106	0.91230
489.54415	0.91231
487.48724	0.91193
485.43033	0.91027
483.37342	0.90854
481.31651	0.90852
479.25961	0.90845
477.20270	0.90784
475.14579	0.90854
473.08888	0.90921
471.03197	0.90722
468.97507	0.90426
466.91816	0.90227
464.86125	0.90055
462.80434	0.89798
460.74743	0.89526
458.69052	0.89315
456.63362	0.89237
454.57671	0.89513
452.51980	0.89902
450.46289	0.90074
448.40598	0.90218
446.34908	0.90357
444.29217	0.90319
442.23526	0.90285
440.17835	0.90407
438.12144	0.90615
436.06453	0.90803
434.00763	0.90919
431.95072	0.90978
429.89381	0.90863
427.83690	0.90753
425.77999	0.90839
423.72309	0.90913
421.66618	0.91121
419.60927	0.91522
417.55236	0.91479
415.49545	0.91191
413.43854	0.91128
411.38164	0.91011
409.32473	0.90721
407.26782	0.90577
405.21091	0.90563
403.15400	0.90439
401.09710	0.90179
399.04019	0.89755
