3996.57260	0.99203
3994.51569	0.99157
3992.45878	0.99097
3990.40188	0.99098
3988.34497	0.99152
3986.28806	0.99197
3984.23115	0.99192
3982.17424	0.99151
3980.11733	0.99108
3978.06043	0.99072
3976.00352	0.99072
3973.94661	0.99096
3971.88970	0.99079
3969.83279	0.99073
3967.77589	0.99156
3965.71898	0.99242
3963.66207	0.99240
3961.60516	0.99193
3959.54825	0.99152
3957.49134	0.99103
3955.43444	0.99081
3953.37753	0.99142
3951.32062	0.99223
3949.26371	0.99235
3947.20680	0.99188
3945.14990	0.99160
3943.09299	0.99210
3941.03608	0.99301
3938.97917	0.99332
3936.92226	0.99299
3934.86535	0.99275
3932.80845	0.99292
3930.75154	0.99290
3928.69463	0.99263
3926.63772	0.99266
3924.58081	0.99302
3922.52391	0.99327
3920.46700	0.99318
3918.41009	0.99282
3916.35318	0.99236
3914.29627	0.99233
3912.23936	0.99257
3910.18246	0.99268
3908.12555	0.99271
3906.06864	0.99247
3904.01173	0.99184
3901.95482	0.99156
3899.89792	0.99176
3897.84101	0.99162
3895.78410	0.99159
3893.72719	0.99245
3891.67028	0.99324
3889.61337	0.99261
3887.55647	0.99165
3885.49956	0.99164
3883.44265	0.99219
3881.38574	0.99253
3879.32883	0.99266
3877.27193	0.99246
3875.21502	0.99183
3873.15811	0.99142
3871.10120	0.99165
3869.04429	0.99161
3866.98738	0.99141
3864.93048	0.99174
3862.87357	0.99247
3860.81666	0.99324
3858.75975	0.99353
3856.70284	0.99329
3854.64594	0.99241
3852.58903	0.99113
3850.53212	0.99121
3848.47521	0.99173
3846.41830	0.99220
3844.36139	0.99279
3842.30449	0.99241
3840.24758	0.99128
3838.19067	0.99114
3836.13376	0.99170
3834.07685	0.99163
3832.01995	0.99130
3829.96304	0.99094
3827.90613	0.99062
3825.84922	0.99094
3823.79231	0.99130
3821.73540	0.99130
3819.67850	0.99190
3817.62159	0.99229
3815.56468	0.99161
3813.50777	0.99110
3811.45086	0.99111
3809.39396	0.99140
3807.33705	0.99205
3805.28014	0.99245
3803.22323	0.99275
3801.16632	0.99329
3799.10941	0.99321
3797.05251	0.99226
3794.99560	0.99106
3792.93869	0.99064
3790.88178	0.99119
3788.82487	0.99178
3786.76796	0.99183
3784.71106	0.99180
3782.65415	0.99190
3780.59724	0.99192
3778.54033	0.99176
3776.48342	0.99159
3774.42652	0.99138
3772.36961	0.99109
3770.31270	0.99092
3768.25579	0.99044
3766.19888	0.98980
3764.14197	0.99014
3762.08507	0.99130
3760.02816	0.99224
3757.97125	0.99227
3755.91434	0.99175
3753.85743	0.99175
3751.80053	0.99230
3749.74362	0.99251
3747.68671	0.99271
3745.62980	0.99313
3743.57289	0.99272
3741.51598	0.99211
3739.45908	0.99170
3737.40217	0.99076
3735.34526	0.99019
3733.28835	0.99094
3731.23144	0.99151
3729.17454	0.99186
3727.11763	0.99280
3725.06072	0.99357
3723.00381	0.99298
3720.94690	0.99194
3718.88999	0.99177
3716.83309	0.99161
3714.77618	0.99082
3712.71927	0.98961
3710.66236	0.98862
3708.60545	0.98946
3706.54855	0.99135
3704.49164	0.99234
3702.43473	0.99174
3700.37782	0.99104
3698.32091	0.99129
3696.26400	0.99120
3694.20710	0.99048
3692.15019	0.99040
3690.09328	0.99128
3688.03637	0.99178
3685.97946	0.99177
3683.92256	0.99210
3681.86565	0.99250
3679.80874	0.99241
3677.75183	0.99259
3675.69492	0.99375
3673.63801	0.99388
3671.58111	0.99247
3669.52420	0.99078
3667.46729	0.98998
3665.41038	0.99004
3663.35347	0.98996
3661.29657	0.98947
3659.23966	0.98936
3657.18275	0.98971
3655.12584	0.98977
3653.06893	0.98987
3651.01202	0.99023
3648.95512	0.99032
3646.89821	0.99001
3644.84130	0.98968
3642.78439	0.98931
3640.72748	0.98864
3638.67058	0.98818
3636.61367	0.98882
3634.55676	0.98974
3632.49985	0.98953
3630.44294	0.98837
3628.38603	0.98737
3626.32913	0.98691
3624.27222	0.98678
3622.21531	0.98725
3620.15840	0.98783
3618.10149	0.98799
3616.04459	0.98789
3613.98768	0.98770
3611.93077	0.98735
3609.87386	0.98676
3607.81695	0.98658
3605.76004	0.98707
3603.70314	0.98711
3601.64623	0.98660
3599.58932	0.98651
3597.53241	0.98661
3595.47550	0.98603
3593.41860	0.98506
3591.36169	0.98464
3589.30478	0.98492
3587.24787	0.98518
3585.19096	0.98499
3583.13405	0.98483
3581.07715	0.98494
3579.02024	0.98496
3576.96333	0.98448
3574.90642	0.98363
3572.84951	0.98308
3570.79261	0.98309
3568.73570	0.98290
3566.67879	0.98214
3564.62188	0.98134
3562.56497	0.98076
3560.50806	0.98062
3558.45116	0.98079
3556.39425	0.98076
3554.33734	0.98033
3552.28043	0.97946
3550.22352	0.97897
3548.16662	0.97901
3546.10971	0.97858
3544.05280	0.97806
3541.99589	0.97801
3539.93898	0.97766
3537.88207	0.97672
3535.82517	0.97583
3533.76826	0.97549
3531.71135	0.97541
3529.65444	0.97504
3527.59753	0.97443
3525.54063	0.97418
3523.48372	0.97449
3521.42681	0.97478
3519.36990	0.97438
3517.31299	0.97346
3515.25608	0.97291
3513.19918	0.97249
3511.14227	0.97140
3509.08536	0.97018
3507.02845	0.96942
3504.97154	0.96925
3502.91464	0.96993
3500.85773	0.97066
3498.80082	0.97064
3496.74391	0.96998
3494.68700	0.96927
3492.63009	0.96888
3490.57319	0.96854
3488.51628	0.96829
3486.45937	0.96832
3484.40246	0.96873
3482.34555	0.96935
3480.28865	0.96930
3478.23174	0.96877
3476.17483	0.96889
3474.11792	0.96939
3472.06101	0.96947
3470.00410	0.96937
3467.94720	0.96943
3465.89029	0.96963
3463.83338	0.96979
3461.77647	0.96979
3459.71956	0.96979
3457.66266	0.96999
3455.60575	0.97043
3453.54884	0.97084
3451.49193	0.97102
3449.43502	0.97091
3447.37811	0.97085
3445.32121	0.97142
3443.26430	0.97208
3441.20739	0.97241
3439.15048	0.97303
3437.09357	0.97374
3435.03667	0.97366
3432.97976	0.97330
3430.92285	0.97378
3428.86594	0.97444
3426.80903	0.97444
3424.75212	0.97425
3422.69522	0.97449
3420.63831	0.97522
3418.58140	0.97583
3416.52449	0.97577
3414.46758	0.97536
3412.41068	0.97520
3410.35377	0.97553
3408.29686	0.97617
3406.23995	0.97653
3404.18304	0.97629
3402.12613	0.97613
3400.06923	0.97640
3398.01232	0.97673
3395.95541	0.97714
3393.89850	0.97776
3391.84159	0.97829
3389.78469	0.97834
3387.72778	0.97828
3385.67087	0.97867
3383.61396	0.97925
3381.55705	0.97957
3379.50014	0.97938
3377.44324	0.97891
3375.38633	0.97871
3373.32942	0.97882
3371.27251	0.97894
3369.21560	0.97921
3367.15870	0.97968
3365.10179	0.98017
3363.04488	0.98055
3360.98797	0.98077
3358.93106	0.98120
3356.87415	0.98159
3354.81725	0.98148
3352.76034	0.98124
3350.70343	0.98108
3348.64652	0.98108
3346.58961	0.98116
3344.53271	0.98119
3342.47580	0.98151
3340.41889	0.98225
3338.36198	0.98284
3336.30507	0.98301
3334.24816	0.98305
3332.19126	0.98301
3330.13435	0.98295
3328.07744	0.98300
3326.02053	0.98301
3323.96362	0.98297
3321.90672	0.98339
3319.84981	0.98414
3317.79290	0.98452
3315.73599	0.98458
3313.67908	0.98475
3311.62217	0.98501
3309.56527	0.98498
3307.50836	0.98431
3305.45145	0.98376
3303.39454	0.98393
3301.33763	0.98413
3299.28073	0.98403
3297.22382	0.98429
3295.16691	0.98525
3293.11000	0.98608
3291.05309	0.98586
3288.99618	0.98523
3286.93928	0.98522
3284.88237	0.98562
3282.82546	0.98579
3280.76855	0.98574
3278.71164	0.98591
3276.65474	0.98607
3274.59783	0.98567
3272.54092	0.98511
3270.48401	0.98517
3268.42710	0.98604
3266.37019	0.98692
3264.31329	0.98686
3262.25638	0.98637
3260.19947	0.98622
3258.14256	0.98603
3256.08565	0.98581
3254.02875	0.98592
3251.97184	0.98606
3249.91493	0.98633
3247.85802	0.98698
3245.80111	0.98730
3243.74420	0.98719
3241.68730	0.98719
3239.63039	0.98718
3237.57348	0.98763
3235.51657	0.98859
3233.45966	0.98849
3231.40276	0.98737
3229.34585	0.98674
3227.28894	0.98693
3225.23203	0.98742
3223.17512	0.98755
3221.11821	0.98728
3219.06131	0.98718
3217.00440	0.98735
3214.94749	0.98771
3212.89058	0.98788
3210.83367	0.98746
3208.77677	0.98730
3206.71986	0.98781
3204.66295	0.98805
3202.60604	0.98799
3200.54913	0.98807
3198.49222	0.98800
3196.43532	0.98792
3194.37841	0.98810
3192.32150	0.98831
3190.26459	0.98850
3188.20768	0.98876
3186.15078	0.98885
3184.09387	0.98882
3182.03696	0.98881
3179.98005	0.98870
3177.92314	0.98819
3175.86623	0.98766
3173.80933	0.98798
3171.75242	0.98857
3169.69551	0.98872
3167.63860	0.98881
3165.58169	0.98890
3163.52479	0.98899
3161.46788	0.98932
3159.41097	0.98951
3157.35406	0.98937
3155.29715	0.98930
3153.24024	0.98952
3151.18334	0.98973
3149.12643	0.98960
3147.06952	0.98906
3145.01261	0.98865
3142.95570	0.98896
3140.89880	0.98937
3138.84189	0.98941
3136.78498	0.98938
3134.72807	0.98931
3132.67116	0.98935
3130.61425	0.98940
3128.55735	0.98935
3126.50044	0.98945
3124.44353	0.98970
3122.38662	0.98996
3120.32971	0.98997
3118.27281	0.98948
3116.21590	0.98894
3114.15899	0.98871
3112.10208	0.98842
3110.04517	0.98823
3107.98826	0.98882
3105.93136	0.98979
3103.87445	0.99049
3101.81754	0.99084
3099.76063	0.99058
3097.70372	0.99001
3095.64682	0.98987
3093.58991	0.98987
3091.53300	0.98965
3089.47609	0.98977
3087.41918	0.99036
3085.36227	0.99066
3083.30537	0.99028
3081.24846	0.98958
3079.19155	0.98917
3077.13464	0.98896
3075.07773	0.98854
3073.02083	0.98807
3070.96392	0.98812
3068.90701	0.98882
3066.85010	0.98932
3064.79319	0.98911
3062.73628	0.98890
3060.67938	0.98911
3058.62247	0.98894
3056.56556	0.98845
3054.50865	0.98865
3052.45174	0.98941
3050.39484	0.98994
3048.33793	0.98997
3046.28102	0.98992
3044.22411	0.98986
3042.16720	0.98944
3040.11029	0.98919
3038.05339	0.98931
3035.99648	0.98917
3033.93957	0.98895
3031.88266	0.98894
3029.82575	0.98900
3027.76885	0.98919
3025.71194	0.98900
3023.65503	0.98812
3021.59812	0.98745
3019.54121	0.98764
3017.48430	0.98833
3015.42740	0.98900
3013.37049	0.98949
3011.31358	0.98952
3009.25667	0.98861
3007.19976	0.98756
3005.14286	0.98714
3003.08595	0.98693
3001.02904	0.98663
2998.97213	0.98647
2996.91522	0.98675
2994.85831	0.98710
2992.80141	0.98702
2990.74450	0.98671
2988.68759	0.98629
2986.63068	0.98579
2984.57377	0.98548
2982.51687	0.98541
2980.45996	0.98542
2978.40305	0.98545
2976.34614	0.98550
2974.28923	0.98534
2972.23232	0.98481
2970.17542	0.98411
2968.11851	0.98331
2966.06160	0.98259
2964.00469	0.98242
2961.94778	0.98259
2959.89088	0.98253
2957.83397	0.98226
2955.77706	0.98208
2953.72015	0.98173
2951.66324	0.98107
2949.60633	0.98064
2947.54943	0.98067
2945.49252	0.98100
2943.43561	0.98119
2941.37870	0.98103
2939.32179	0.98080
2937.26489	0.98061
2935.20798	0.98066
2933.15107	0.98118
2931.09416	0.98176
2929.03725	0.98195
2926.98034	0.98192
2924.92344	0.98195
2922.86653	0.98195
2920.80962	0.98201
2918.75271	0.98218
2916.69580	0.98224
2914.63890	0.98219
2912.58199	0.98213
2910.52508	0.98208
2908.46817	0.98201
2906.41126	0.98190
2904.35435	0.98198
2902.29745	0.98198
2900.24054	0.98150
2898.18363	0.98107
2896.12672	0.98097
2894.06981	0.98104
2892.01291	0.98094
2889.95600	0.98069
2887.89909	0.98073
2885.84218	0.98082
2883.78527	0.98063
2881.72836	0.98064
2879.67146	0.98103
2877.61455	0.98138
2875.55764	0.98162
2873.50073	0.98187
2871.44382	0.98204
2869.38692	0.98224
2867.33001	0.98299
2865.27310	0.98407
2863.21619	0.98470
2861.15928	0.98478
2859.10237	0.98491
2857.04547	0.98541
2854.98856	0.98590
2852.93165	0.98622
2850.87474	0.98658
2848.81783	0.98696
2846.76093	0.98730
2844.70402	0.98752
2842.64711	0.98767
2840.59020	0.98801
2838.53329	0.98810
2836.47638	0.98780
2834.41948	0.98779
2832.36257	0.98805
2830.30566	0.98812
2828.24875	0.98799
2826.19184	0.98796
2824.13494	0.98816
2822.07803	0.98829
2820.02112	0.98812
2817.96421	0.98799
2815.90730	0.98804
2813.85039	0.98806
2811.79349	0.98823
2809.73658	0.98862
2807.67967	0.98883
2805.62276	0.98897
2803.56585	0.98948
2801.50895	0.98996
2799.45204	0.98976
2797.39513	0.98913
2795.33822	0.98874
2793.28131	0.98866
2791.22440	0.98874
2789.16750	0.98904
2787.11059	0.98922
2785.05368	0.98902
2782.99677	0.98893
2780.93986	0.98917
2778.88296	0.98933
2776.82605	0.98931
2774.76914	0.98935
2772.71223	0.98948
2770.65532	0.98970
2768.59841	0.98996
2766.54151	0.99019
2764.48460	0.99003
2762.42769	0.98944
2760.37078	0.98915
2758.31387	0.98947
2756.25697	0.98994
2754.20006	0.99005
2752.14315	0.98979
2750.08624	0.98957
2748.02933	0.98961
2745.97242	0.98976
2743.91552	0.98975
2741.85861	0.98967
2739.80170	0.98967
2737.74479	0.98963
2735.68788	0.98976
2733.63098	0.99010
2731.57407	0.99026
2729.51716	0.99020
2727.46025	0.99021
2725.40334	0.99011
2723.34643	0.98975
2721.28953	0.98955
2719.23262	0.98966
2717.17571	0.98980
2715.11880	0.98974
2713.06189	0.98949
2711.00499	0.98940
2708.94808	0.98950
2706.89117	0.98939
2704.83426	0.98930
2702.77735	0.98957
2700.72044	0.98991
2698.66354	0.98996
2696.60663	0.98976
2694.54972	0.98960
2692.49281	0.98959
2690.43590	0.98954
2688.37900	0.98941
2686.32209	0.98937
2684.26518	0.98940
2682.20827	0.98961
2680.15136	0.98993
2678.09445	0.99004
2676.03755	0.98984
2673.98064	0.98953
2671.92373	0.98938
2669.86682	0.98942
2667.80991	0.98954
2665.75301	0.98962
2663.69610	0.98950
2661.63919	0.98939
2659.58228	0.98966
2657.52537	0.98991
2655.46846	0.98967
2653.41156	0.98949
2651.35465	0.98966
2649.29774	0.98969
2647.24083	0.98941
2645.18392	0.98898
2643.12702	0.98871
2641.07011	0.98894
2639.01320	0.98956
2636.95629	0.99007
2634.89938	0.99013
2632.84247	0.98985
2630.78557	0.98955
2628.72866	0.98955
2626.67175	0.98983
2624.61484	0.98981
2622.55793	0.98973
2620.50103	0.99002
2618.44412	0.99034
2616.38721	0.99057
2614.33030	0.99066
2612.27339	0.99056
2610.21648	0.99057
2608.15958	0.99081
2606.10267	0.99099
2604.04576	0.99101
2601.98885	0.99096
2599.93194	0.99092
2597.87504	0.99077
2595.81813	0.99068
2593.76122	0.99076
2591.70431	0.99042
2589.64740	0.98970
2587.59049	0.98946
2585.53359	0.99007
2583.47668	0.99102
2581.41977	0.99157
2579.36286	0.99156
2577.30595	0.99127
2575.24905	0.99101
2573.19214	0.99056
2571.13523	0.98989
2569.07832	0.98999
2567.02141	0.99103
2564.96450	0.99182
2562.90760	0.99177
2560.85069	0.99124
2558.79378	0.99073
2556.73687	0.99040
2554.67996	0.99025
2552.62306	0.99049
2550.56615	0.99100
2548.50924	0.99120
2546.45233	0.99098
2544.39542	0.99074
2542.33851	0.99086
2540.28161	0.99117
2538.22470	0.99108
2536.16779	0.99076
2534.11088	0.99078
2532.05397	0.99097
2529.99707	0.99100
2527.94016	0.99115
2525.88325	0.99155
2523.82634	0.99167
2521.76943	0.99149
2519.71252	0.99111
2517.65562	0.99061
2515.59871	0.99066
2513.54180	0.99144
2511.48489	0.99217
2509.42798	0.99234
2507.37108	0.99220
2505.31417	0.99196
2503.25726	0.99165
2501.20035	0.99129
2499.14344	0.99097
2497.08653	0.99084
2495.02963	0.99057
2492.97272	0.99041
2490.91581	0.99098
2488.85890	0.99177
2486.80199	0.99217
2484.74509	0.99182
2482.68818	0.99096
2480.63127	0.99056
2478.57436	0.99065
2476.51745	0.99111
2474.46054	0.99168
2472.40364	0.99168
2470.34673	0.99125
2468.28982	0.99072
2466.23291	0.99038
2464.17600	0.99067
2462.11910	0.99133
2460.06219	0.99170
2458.00528	0.99156
2455.94837	0.99108
2453.89146	0.99064
2451.83455	0.99058
2449.77765	0.99098
2447.72074	0.99166
2445.66383	0.99202
2443.60692	0.99177
2441.55001	0.99137
2439.49311	0.99140
2437.43620	0.99156
2435.37929	0.99139
2433.32238	0.99105
2431.26547	0.99094
2429.20856	0.99125
2427.15166	0.99159
2425.09475	0.99146
2423.03784	0.99109
2420.98093	0.99100
2418.92402	0.99104
2416.86712	0.99106
2414.81021	0.99142
2412.75330	0.99213
2410.69639	0.99268
2408.63948	0.99283
2406.58257	0.99257
2404.52567	0.99196
2402.46876	0.99151
2400.41185	0.99184
2398.35494	0.99265
2396.29803	0.99295
2394.24113	0.99281
2392.18422	0.99267
2390.12731	0.99212
2388.07040	0.99138
2386.01349	0.99123
2383.95658	0.99160
2381.89968	0.99187
2379.84277	0.99199
2377.78586	0.99219
2375.72895	0.99221
2373.67204	0.99203
2371.61514	0.99188
2369.55823	0.99164
2367.50132	0.99119
2365.44441	0.99059
2363.38750	0.99048
2361.33059	0.99101
2359.27369	0.99156
2357.21678	0.99151
2355.15987	0.99020
2353.10296	0.98922
2351.04605	0.99011
2348.98915	0.99148
2346.93224	0.99181
2344.87533	0.99100
2342.81842	0.99029
2340.76151	0.99053
2338.70460	0.99094
2336.64770	0.99098
2334.59079	0.99100
2332.53388	0.99079
2330.47697	0.99038
2328.42006	0.99021
2326.36316	0.99002
2324.30625	0.98958
2322.24934	0.98934
2320.19243	0.98970
2318.13552	0.99003
2316.07861	0.99029
2314.02171	0.99123
2311.96480	0.99222
2309.90789	0.99229
2307.85098	0.99151
2305.79407	0.99062
2303.73717	0.98983
2301.68026	0.98898
2299.62335	0.98891
2297.56644	0.98960
2295.50953	0.98971
2293.45262	0.98904
2291.39572	0.98885
2289.33881	0.98963
2287.28190	0.99072
2285.22499	0.99157
2283.16808	0.99196
2281.11117	0.99195
2279.05427	0.99205
2276.99736	0.99253
2274.94045	0.99242
2272.88354	0.99153
2270.82663	0.99069
2268.76973	0.99002
2266.71282	0.98982
2264.65591	0.98997
2262.59900	0.99031
2260.54209	0.99122
2258.48518	0.99191
2256.42828	0.99203
2254.37137	0.99182
2252.31446	0.99122
2250.25755	0.99110
2248.20064	0.99190
2246.14374	0.99214
2244.08683	0.99111
2242.02992	0.99057
2239.97301	0.99169
2237.91610	0.99237
2235.85919	0.99159
2233.80229	0.99091
2231.74538	0.99080
2229.68847	0.99125
2227.63156	0.99205
2225.57465	0.99225
2223.51775	0.99176
2221.46084	0.99146
2219.40393	0.99172
2217.34702	0.99213
2215.29011	0.99259
2213.23320	0.99262
2211.17630	0.99255
2209.11939	0.99356
2207.06248	0.99518
2205.00557	0.99587
2202.94866	0.99503
2200.89176	0.99353
2198.83485	0.99262
2196.77794	0.99236
2194.72103	0.99167
2192.66412	0.99060
2190.60721	0.98992
2188.55031	0.99058
2186.49340	0.99243
2184.43649	0.99270
2182.37958	0.99156
2180.32267	0.99160
2178.26577	0.99238
2176.20886	0.99371
2174.15195	0.99485
2172.09504	0.99400
2170.03813	0.99180
2167.98122	0.98903
2165.92432	0.98679
2163.86741	0.98709
2161.81050	0.98951
2159.75359	0.99299
2157.69668	0.99568
2155.63978	0.99548
2153.58287	0.99428
2151.52596	0.99442
2149.46905	0.99533
2147.41214	0.99638
2145.35523	0.99667
2143.29833	0.99505
2141.24142	0.99327
2139.18451	0.99272
2137.12760	0.99339
2135.07069	0.99494
2133.01379	0.99530
2130.95688	0.99430
2128.89997	0.99373
2126.84306	0.99384
2124.78615	0.99385
2122.72924	0.99293
2120.67234	0.99166
2118.61543	0.99170
2116.55852	0.99229
2114.50161	0.99163
2112.44470	0.99027
2110.38780	0.98947
2108.33089	0.98966
2106.27398	0.99099
2104.21707	0.99223
2102.16016	0.99236
2100.10325	0.99260
2098.04635	0.99311
2095.98944	0.99284
2093.93253	0.99213
2091.87562	0.99181
2089.81871	0.99203
2087.76181	0.99221
2085.70490	0.99215
2083.64799	0.99239
2081.59108	0.99288
2079.53417	0.99301
2077.47726	0.99301
2075.42036	0.99293
2073.36345	0.99294
2071.30654	0.99340
2069.24963	0.99351
2067.19272	0.99275
2065.13582	0.99137
2063.07891	0.98995
2061.02200	0.98975
2058.96509	0.99075
2056.90818	0.99188
2054.85127	0.99229
2052.79437	0.99160
2050.73746	0.99097
2048.68055	0.99061
2046.62364	0.98981
2044.56673	0.99049
2042.50983	0.99304
2040.45292	0.99486
2038.39601	0.99505
2036.33910	0.99462
2034.28219	0.99470
2032.22528	0.99485
2030.16838	0.99412
2028.11147	0.99335
2026.05456	0.99332
2023.99765	0.99462
2021.94074	0.99649
2019.88384	0.99758
2017.82693	0.99758
2015.77002	0.99576
2013.71311	0.99294
2011.65620	0.99136
2009.59929	0.99202
2007.54239	0.99418
2005.48548	0.99606
2003.42857	0.99597
2001.37166	0.99439
1999.31475	0.99327
1997.25785	0.99374
1995.20094	0.99525
1993.14403	0.99565
1991.08712	0.99513
1989.03021	0.99470
1986.97330	0.99295
1984.91640	0.99005
1982.85949	0.98799
1980.80258	0.98874
1978.74567	0.99208
1976.68876	0.99469
1974.63186	0.99573
1972.57495	0.99750
1970.51804	0.99871
1968.46113	0.99706
1966.40422	0.99512
1964.34731	0.99519
1962.29041	0.99457
1960.23350	0.99273
1958.17659	0.99234
1956.11968	0.99278
1954.06277	0.99287
1952.00587	0.99307
1949.94896	0.99350
1947.89205	0.99398
1945.83514	0.99379
1943.77823	0.99340
1941.72132	0.99355
1939.66442	0.99318
1937.60751	0.99243
1935.55060	0.99218
1933.49369	0.99224
1931.43678	0.99267
1929.37988	0.99334
1927.32297	0.99316
1925.26606	0.99227
1923.20915	0.99192
1921.15224	0.99225
1919.09533	0.99312
1917.03843	0.99415
1914.98152	0.99397
1912.92461	0.99293
1910.86770	0.99244
1908.81079	0.99253
1906.75389	0.99275
1904.69698	0.99296
1902.64007	0.99323
1900.58316	0.99345
1898.52625	0.99358
1896.46934	0.99355
1894.41244	0.99323
1892.35553	0.99309
1890.29862	0.99305
1888.24171	0.99282
1886.18480	0.99285
1884.12790	0.99315
1882.07099	0.99334
1880.01408	0.99369
1877.95717	0.99405
1875.90026	0.99406
1873.84335	0.99384
1871.78645	0.99369
1869.72954	0.99405
1867.67263	0.99421
1865.61572	0.99385
1863.55881	0.99379
1861.50191	0.99372
1859.44500	0.99332
1857.38809	0.99308
1855.33118	0.99293
1853.27427	0.99287
1851.21736	0.99283
1849.16046	0.99272
1847.10355	0.99276
1845.04664	0.99293
1842.98973	0.99298
1840.93282	0.99277
1838.87592	0.99248
1836.81901	0.99229
1834.76210	0.99257
1832.70519	0.99294
1830.64828	0.99248
1828.59137	0.99161
1826.53447	0.99112
1824.47756	0.99057
1822.42065	0.99050
1820.36374	0.99110
1818.30683	0.99136
1816.24993	0.99120
1814.19302	0.99073
1812.13611	0.99014
1810.07920	0.98974
1808.02229	0.98934
1805.96538	0.98891
1803.90848	0.98867
1801.85157	0.98839
1799.79466	0.98797
1797.73775	0.98739
1795.68084	0.98683
1793.62394	0.98646
1791.56703	0.98577
1789.51012	0.98454
1787.45321	0.98314
1785.39630	0.98193
1783.33939	0.98084
1781.28249	0.97929
1779.22558	0.97680
1777.16867	0.97398
1775.11176	0.97101
1773.05485	0.96614
1770.99795	0.95856
1768.94104	0.95030
1766.88413	0.94088
1764.82722	0.92980
1762.77031	0.91610
1760.71340	0.90003
1758.65650	0.88532
1756.59959	0.87100
1754.54268	0.85845
1752.48577	0.84825
1750.42886	0.83728
1748.37196	0.82685
1746.31505	0.81943
1744.25814	0.81394
1742.20123	0.80962
1740.14432	0.80684
1738.08741	0.80643
1736.03051	0.80809
1733.97360	0.81134
1731.91669	0.81666
1729.85978	0.82359
1727.80287	0.83176
1725.74597	0.84093
1723.68906	0.85139
1721.63215	0.86181
1719.57524	0.87207
1717.51833	0.88449
1715.46142	0.89729
1713.40452	0.90788
1711.34761	0.91748
1709.29070	0.92621
1707.23379	0.93388
1705.17688	0.94084
1703.11998	0.94655
1701.06307	0.95151
1699.00616	0.95599
1696.94925	0.95983
1694.89234	0.96380
1692.83543	0.96642
1690.77853	0.96797
1688.72162	0.96962
1686.66471	0.97106
1684.60780	0.97197
1682.55089	0.97267
1680.49399	0.97372
1678.43708	0.97490
1676.38017	0.97589
1674.32326	0.97661
1672.26635	0.97702
1670.20944	0.97724
1668.15254	0.97742
1666.09563	0.97742
1664.03872	0.97735
1661.98181	0.97747
1659.92490	0.97744
1657.86800	0.97727
1655.81109	0.97727
1653.75418	0.97741
1651.69727	0.97756
1649.64036	0.97749
1647.58345	0.97711
1645.52655	0.97692
1643.46964	0.97696
1641.41273	0.97689
1639.35582	0.97687
1637.29891	0.97701
1635.24201	0.97737
1633.18510	0.97770
1631.12819	0.97793
1629.07128	0.97820
1627.01437	0.97856
1624.95746	0.97909
1622.90056	0.97973
1620.84365	0.98034
1618.78674	0.98084
1616.72983	0.98127
1614.67292	0.98190
1612.61602	0.98257
1610.55911	0.98307
1608.50220	0.98354
1606.44529	0.98398
1604.38838	0.98433
1602.33147	0.98461
1600.27457	0.98492
1598.21766	0.98534
1596.16075	0.98575
1594.10384	0.98595
1592.04693	0.98599
1589.99003	0.98605
1587.93312	0.98617
1585.87621	0.98639
1583.81930	0.98658
1581.76239	0.98659
1579.70548	0.98653
1577.64858	0.98666
1575.59167	0.98693
1573.53476	0.98689
1571.47785	0.98656
1569.42094	0.98625
1567.36404	0.98623
1565.30713	0.98634
1563.25022	0.98653
1561.19331	0.98689
1559.13640	0.98735
1557.07949	0.98743
1555.02259	0.98717
1552.96568	0.98676
1550.90877	0.98646
1548.85186	0.98640
1546.79495	0.98660
1544.73805	0.98705
1542.68114	0.98735
1540.62423	0.98697
1538.56732	0.98647
1536.51041	0.98648
1534.45350	0.98671
1532.39660	0.98691
1530.33969	0.98680
1528.28278	0.98655
1526.22587	0.98653
1524.16896	0.98692
1522.11206	0.98714
1520.05515	0.98666
1517.99824	0.98625
1515.94133	0.98632
1513.88442	0.98659
1511.82751	0.98670
1509.77061	0.98673
1507.71370	0.98677
1505.65679	0.98642
1503.59988	0.98608
1501.54297	0.98604
1499.48607	0.98620
1497.42916	0.98638
1495.37225	0.98624
1493.31534	0.98590
1491.25843	0.98568
1489.20152	0.98546
1487.14462	0.98505
1485.08771	0.98466
1483.03080	0.98432
1480.97389	0.98388
1478.91698	0.98334
1476.86008	0.98263
1474.80317	0.98171
1472.74626	0.98059
1470.68935	0.97919
1468.63244	0.97783
1466.57553	0.97629
1464.51863	0.97434
1462.46172	0.97259
1460.40481	0.97121
1458.34790	0.96949
1456.29099	0.96724
1454.23409	0.96572
1452.17718	0.96471
1450.12027	0.96343
1448.06336	0.96174
1446.00645	0.96006
1443.94954	0.95857
1441.89264	0.95703
1439.83573	0.95545
1437.77882	0.95371
1435.72191	0.95201
1433.66500	0.95120
1431.60810	0.95112
1429.55119	0.95151
1427.49428	0.95233
1425.43737	0.95337
1423.38046	0.95450
1421.32355	0.95565
1419.26665	0.95674
1417.20974	0.95771
1415.15283	0.95844
1413.09592	0.95899
1411.03901	0.95951
1408.98211	0.96016
1406.92520	0.96075
1404.86829	0.96093
1402.81138	0.96076
1400.75447	0.96032
1398.69756	0.95924
1396.64066	0.95715
1394.58375	0.95377
1392.52684	0.94963
1390.46993	0.94525
1388.41302	0.93955
1386.35612	0.93181
1384.29921	0.92362
1382.24230	0.91586
1380.18539	0.90807
1378.12848	0.90041
1376.07157	0.89318
1374.01467	0.88636
1371.95776	0.88129
1369.90085	0.87924
1367.84394	0.88047
1365.78703	0.88500
1363.73013	0.89321
1361.67322	0.90535
1359.61631	0.91860
1357.55940	0.93044
1355.50249	0.94023
1353.44558	0.94767
1351.38868	0.95296
1349.33177	0.95660
1347.27486	0.95883
1345.21795	0.96007
1343.16104	0.96098
1341.10414	0.96176
1339.04723	0.96239
1336.99032	0.96277
1334.93341	0.96283
1332.87650	0.96275
1330.81959	0.96255
1328.76269	0.96214
1326.70578	0.96158
1324.64887	0.96093
1322.59196	0.96036
1320.53505	0.95990
1318.47815	0.95951
1316.42124	0.95922
1314.36433	0.95915
1312.30742	0.95947
1310.25051	0.95983
1308.19360	0.95991
1306.13670	0.95987
1304.07979	0.95959
1302.02288	0.95890
1299.96597	0.95805
1297.90906	0.95699
1295.85216	0.95554
1293.79525	0.95370
1291.73834	0.95149
1289.68143	0.94902
1287.62452	0.94654
1285.56761	0.94398
1283.51071	0.94079
1281.45380	0.93684
1279.39689	0.93240
1277.33998	0.92757
1275.28307	0.92245
1273.22617	0.91703
1271.16926	0.91113
1269.11235	0.90475
1267.05544	0.89797
1264.99853	0.89064
1262.94162	0.88271
1260.88472	0.87428
1258.82781	0.86543
1256.77090	0.85621
1254.71399	0.84676
1252.65708	0.83716
1250.60018	0.82723
1248.54327	0.81687
1246.48636	0.80624
1244.42945	0.79571
1242.37254	0.78545
1240.31563	0.77518
1238.25873	0.76505
1236.20182	0.75565
1234.14491	0.74700
1232.08800	0.73888
1230.03109	0.73174
1227.97419	0.72641
1225.91728	0.72326
1223.86037	0.72236
1221.80346	0.72387
1219.74655	0.72792
1217.68964	0.73489
1215.63274	0.74502
1213.57583	0.75809
1211.51892	0.77384
1209.46201	0.79168
1207.40510	0.81065
1205.34820	0.83010
1203.29129	0.84944
1201.23438	0.86761
1199.17747	0.88339
1197.12056	0.89647
1195.06365	0.90716
1193.00675	0.91542
1190.94984	0.92113
1188.89293	0.92467
1186.83602	0.92667
1184.77911	0.92731
1182.72221	0.92623
1180.66530	0.92383
1178.60839	0.92099
1176.55148	0.91802
1174.49457	0.91475
1172.43766	0.91133
1170.38076	0.90838
1168.32385	0.90592
1166.26694	0.90384
1164.21003	0.90259
1162.15312	0.90259
1160.09622	0.90375
1158.03931	0.90565
1155.98240	0.90795
1153.92549	0.91050
1151.86858	0.91306
1149.81167	0.91520
1147.75477	0.91661
1145.69786	0.91728
1143.64095	0.91726
1141.58404	0.91639
1139.52713	0.91456
1137.47023	0.91215
1135.41332	0.90944
1133.35641	0.90642
1131.29950	0.90297
1129.24259	0.89920
1127.18568	0.89564
1125.12878	0.89261
1123.07187	0.89016
1121.01496	0.88858
1118.95805	0.88787
1116.90114	0.88744
1114.84424	0.88683
1112.78733	0.88607
1110.73042	0.88505
1108.67351	0.88355
1106.61660	0.88166
1104.55969	0.87968
1102.50279	0.87764
1100.44588	0.87526
1098.38897	0.87208
1096.33206	0.86792
1094.27515	0.86332
1092.21825	0.85842
1090.16134	0.85271
1088.10443	0.84614
1086.04752	0.83923
1083.99061	0.83216
1081.93370	0.82515
1079.87680	0.81819
1077.81989	0.81116
1075.76298	0.80462
1073.70607	0.79910
1071.64916	0.79406
1069.59226	0.78885
1067.53535	0.78366
1065.47844	0.77877
1063.42153	0.77378
1061.36462	0.76834
1059.30771	0.76273
1057.25081	0.75711
1055.19390	0.75139
1053.13699	0.74558
1051.08008	0.73992
1049.02317	0.73488
1046.96627	0.73033
1044.90936	0.72578
1042.85245	0.72130
1040.79554	0.71725
1038.73863	0.71355
1036.68172	0.71015
1034.62482	0.70779
1032.56791	0.70740
1030.51100	0.70936
1028.45409	0.71359
1026.39718	0.72017
1024.34028	0.72901
1022.28337	0.73934
1020.22646	0.75034
1018.16955	0.76140
1016.11264	0.77230
1014.05573	0.78345
1011.99883	0.79476
1009.94192	0.80539
1007.88501	0.81496
1005.82810	0.82390
1003.77119	0.83267
1001.71429	0.84096
999.65738	0.84829
997.60047	0.85490
995.54356	0.86094
993.48665	0.86628
991.42974	0.87089
989.37284	0.87478
987.31593	0.87826
985.25902	0.88174
983.20211	0.88512
981.14520	0.88830
979.08830	0.89173
977.03139	0.89567
974.97448	0.89993
972.91757	0.90462
970.86066	0.90950
968.80375	0.91388
966.74685	0.91798
964.68994	0.92195
962.63303	0.92513
960.57612	0.92715
958.51921	0.92830
956.46231	0.92960
954.40540	0.93144
952.34849	0.93282
950.29158	0.93345
948.23467	0.93440
946.17776	0.93592
944.12086	0.93711
942.06395	0.93763
940.00704	0.93791
937.95013	0.93822
935.89322	0.93819
933.83632	0.93782
931.77941	0.93748
929.72250	0.93663
927.66559	0.93517
925.60868	0.93369
923.55177	0.93202
921.49487	0.93016
919.43796	0.92877
917.38105	0.92789
915.32414	0.92677
913.26723	0.92525
911.21033	0.92361
909.15342	0.92195
907.09651	0.92091
905.03960	0.92088
902.98269	0.92105
900.92578	0.92117
898.86888	0.92198
896.81197	0.92371
894.75506	0.92578
892.69815	0.92781
890.64124	0.93002
888.58434	0.93239
886.52743	0.93457
884.47052	0.93667
882.41361	0.93875
880.35670	0.94071
878.29979	0.94303
876.24289	0.94581
874.18598	0.94864
872.12907	0.95117
870.07216	0.95347
868.01525	0.95563
865.95835	0.95752
863.90144	0.95906
861.84453	0.96024
859.78762	0.96138
857.73071	0.96248
855.67380	0.96305
853.61690	0.96317
851.55999	0.96330
849.50308	0.96314
847.44617	0.96245
845.38926	0.96190
843.33236	0.96146
841.27545	0.96073
839.21854	0.95995
837.16163	0.95950
835.10472	0.95986
833.04781	0.96149
830.99091	0.96339
828.93400	0.96457
826.87709	0.96555
824.82018	0.96658
822.76327	0.96763
820.70637	0.96868
818.64946	0.96962
816.59255	0.97035
814.53564	0.97073
812.47873	0.97078
810.42182	0.97078
808.36492	0.97110
806.30801	0.97156
804.25110	0.97200
802.19419	0.97244
800.13728	0.97248
798.08038	0.97208
796.02347	0.97225
793.96656	0.97326
791.90965	0.97400
789.85274	0.97398
787.79583	0.97387
785.73893	0.97419
783.68202	0.97463
781.62511	0.97431
779.56820	0.97386
777.51129	0.97439
775.45439	0.97492
773.39748	0.97473
771.34057	0.97433
769.28366	0.97377
767.22675	0.97326
765.16984	0.97371
763.11294	0.97477
761.05603	0.97512
758.99912	0.97468
756.94221	0.97431
754.88530	0.97438
752.82839	0.97412
750.77149	0.97342
748.71458	0.97302
746.65767	0.97326
744.60076	0.97354
742.54385	0.97336
740.48695	0.97325
738.43004	0.97327
736.37313	0.97270
734.31622	0.97168
732.25931	0.97101
730.20240	0.97034
728.14550	0.96917
726.08859	0.96817
724.03168	0.96765
721.97477	0.96744
719.91786	0.96732
717.86096	0.96678
715.80405	0.96578
713.74714	0.96515
711.69023	0.96492
709.63332	0.96445
707.57641	0.96389
705.51951	0.96319
703.46260	0.96213
701.40569	0.96170
699.34878	0.96192
697.29187	0.96114
695.23497	0.95916
693.17806	0.95719
691.12115	0.95559
689.06424	0.95437
687.00733	0.95400
684.95042	0.95379
682.89352	0.95309
680.83661	0.95286
678.77970	0.95312
676.72279	0.95314
674.66588	0.95309
672.60898	0.95331
670.55207	0.95401
668.49516	0.95442
666.43825	0.95346
664.38134	0.95259
662.32443	0.95180
660.26753	0.95092
658.21062	0.95031
656.15371	0.94956
654.09680	0.94850
652.03989	0.94732
649.98299	0.94628
647.92608	0.94506
645.86917	0.94320
643.81226	0.94139
641.75535	0.93994
639.69844	0.93797
637.64154	0.93549
635.58463	0.93337
633.52772	0.93193
631.47081	0.93095
629.41390	0.93036
627.35700	0.92995
625.30009	0.92919
623.24318	0.92837
621.18627	0.92709
619.12936	0.92481
617.07245	0.92292
615.01555	0.92055
612.95864	0.91552
610.90173	0.90935
608.84482	0.90340
606.78791	0.89768
604.73101	0.89413
602.67410	0.89421
600.61719	0.89705
598.56028	0.90179
596.50337	0.90764
594.44646	0.91299
592.38956	0.91661
590.33265	0.91905
588.27574	0.92174
586.21883	0.92489
584.16192	0.92729
582.10502	0.92850
580.04811	0.92892
577.99120	0.92784
575.93429	0.92648
573.87738	0.92673
571.82047	0.92701
569.76357	0.92536
567.70666	0.92231
565.64975	0.91959
563.59284	0.91860
561.53593	0.91987
559.47903	0.92142
557.42212	0.92152
555.36521	0.92190
553.30830	0.92346
551.25139	0.92432
549.19448	0.92418
547.13758	0.92533
545.08067	0.92711
543.02376	0.92717
540.96685	0.92684
538.90994	0.92729
536.85304	0.92737
534.79613	0.92637
532.73922	0.92514
530.68231	0.92469
528.62540	0.92492
526.56849	0.92553
524.51159	0.92608
522.45468	0.92601
520.39777	0.92554
518.34086	0.92540
516.28395	0.92559
514.22705	0.92501
512.17014	0.92299
510.11323	0.92096
508.05632	0.92059
505.99941	0.92110
503.94250	0.92079
501.88560	0.91904
499.82869	0.91634
497.77178	0.91429
495.71487	0.91430
493.65796	0.91441
491.60106	0.91270
489.54415	0.91162
487.48724	0.91247
485.43033	0.91314
483.37342	0.91192
481.31651	0.90988
479.25961	0.90946
477.20270	0.90994
475.14579	0.91003
473.08888	0.91101
471.03197	0.91133
468.97507	0.90977
466.91816	0.90863
464.86125	0.90789
462.80434	0.90649
460.74743	0.90575
458.69052	0.90667
456.63362	0.90680
454.57671	0.90459
452.51980	0.90249
450.46289	0.90203
448.40598	0.90317
446.34908	0.90408
444.29217	0.90284
442.23526	0.90195
440.17835	0.90336
438.12144	0.90456
436.06453	0.90578
434.00763	0.90903
431.95072	0.91020
429.89381	0.90850
427.83690	0.91131
425.77999	0.91710
423.72309	0.91751
421.66618	0.91260
419.60927	0.90700
417.55236	0.90615
415.49545	0.90899
413.43854	0.91089
411.38164	0.91328
409.32473	0.91837
407.26782	0.92259
405.21091	0.92074
403.15400	0.91451
401.09710	0.90836
399.04019	0.90591
