3996.57260	0.99276
3994.51569	0.99221
3992.45878	0.99186
3990.40188	0.99177
3988.34497	0.99132
3986.28806	0.99126
3984.23115	0.99203
3982.17424	0.99250
3980.11733	0.99202
3978.06043	0.99117
3976.00352	0.99092
3973.94661	0.99126
3971.88970	0.99148
3969.83279	0.99132
3967.77589	0.99134
3965.71898	0.99175
3963.66207	0.99220
3961.60516	0.99264
3959.54825	0.99240
3957.49134	0.99147
3955.43444	0.99126
3953.37753	0.99229
3951.32062	0.99338
3949.26371	0.99328
3947.20680	0.99203
3945.14990	0.99097
3943.09299	0.99131
3941.03608	0.99241
3938.97917	0.99256
3936.92226	0.99191
3934.86535	0.99179
3932.80845	0.99225
3930.75154	0.99207
3928.69463	0.99137
3926.63772	0.99124
3924.58081	0.99195
3922.52391	0.99270
3920.46700	0.99277
3918.41009	0.99222
3916.35318	0.99171
3914.29627	0.99228
3912.23936	0.99313
3910.18246	0.99319
3908.12555	0.99298
3906.06864	0.99295
3904.01173	0.99248
3901.95482	0.99143
3899.89792	0.99113
3897.84101	0.99206
3895.78410	0.99311
3893.72719	0.99361
3891.67028	0.99374
3889.61337	0.99340
3887.55647	0.99267
3885.49956	0.99215
3883.44265	0.99188
3881.38574	0.99173
3879.32883	0.99188
3877.27193	0.99217
3875.21502	0.99217
3873.15811	0.99213
3871.10120	0.99204
3869.04429	0.99183
3866.98738	0.99224
3864.93048	0.99295
3862.87357	0.99356
3860.81666	0.99387
3858.75975	0.99338
3856.70284	0.99230
3854.64594	0.99139
3852.58903	0.99174
3850.53212	0.99259
3848.47521	0.99292
3846.41830	0.99315
3844.36139	0.99337
3842.30449	0.99294
3840.24758	0.99227
3838.19067	0.99245
3836.13376	0.99257
3834.07685	0.99204
3832.01995	0.99176
3829.96304	0.99156
3827.90613	0.99145
3825.84922	0.99169
3823.79231	0.99178
3821.73540	0.99205
3819.67850	0.99301
3817.62159	0.99301
3815.56468	0.99166
3813.50777	0.99125
3811.45086	0.99197
3809.39396	0.99270
3807.33705	0.99334
3805.28014	0.99345
3803.22323	0.99315
3801.16632	0.99328
3799.10941	0.99340
3797.05251	0.99309
3794.99560	0.99288
3792.93869	0.99278
3790.88178	0.99283
3788.82487	0.99298
3786.76796	0.99298
3784.71106	0.99291
3782.65415	0.99278
3780.59724	0.99294
3778.54033	0.99327
3776.48342	0.99293
3774.42652	0.99237
3772.36961	0.99207
3770.31270	0.99197
3768.25579	0.99163
3766.19888	0.99124
3764.14197	0.99165
3762.08507	0.99229
3760.02816	0.99243
3757.97125	0.99219
3755.91434	0.99203
3753.85743	0.99214
3751.80053	0.99244
3749.74362	0.99274
3747.68671	0.99283
3745.62980	0.99299
3743.57289	0.99288
3741.51598	0.99240
3739.45908	0.99205
3737.40217	0.99202
3735.34526	0.99229
3733.28835	0.99261
3731.23144	0.99284
3729.17454	0.99282
3727.11763	0.99242
3725.06072	0.99199
3723.00381	0.99203
3720.94690	0.99199
3718.88999	0.99168
3716.83309	0.99143
3714.77618	0.99148
3712.71927	0.99198
3710.66236	0.99239
3708.60545	0.99254
3706.54855	0.99312
3704.49164	0.99375
3702.43473	0.99345
3700.37782	0.99262
3698.32091	0.99211
3696.26400	0.99171
3694.20710	0.99147
3692.15019	0.99139
3690.09328	0.99125
3688.03637	0.99114
3685.97946	0.99129
3683.92256	0.99164
3681.86565	0.99222
3679.80874	0.99272
3677.75183	0.99308
3675.69492	0.99379
3673.63801	0.99375
3671.58111	0.99292
3669.52420	0.99205
3667.46729	0.99121
3665.41038	0.99070
3663.35347	0.99036
3661.29657	0.99005
3659.23966	0.99013
3657.18275	0.99053
3655.12584	0.99084
3653.06893	0.99131
3651.01202	0.99165
3648.95512	0.99103
3646.89821	0.99017
3644.84130	0.98979
3642.78439	0.98968
3640.72748	0.98950
3638.67058	0.98939
3636.61367	0.98980
3634.55676	0.99028
3632.49985	0.99024
3630.44294	0.98974
3628.38603	0.98881
3626.32913	0.98787
3624.27222	0.98756
3622.21531	0.98798
3620.15840	0.98892
3618.10149	0.98960
3616.04459	0.98917
3613.98768	0.98828
3611.93077	0.98824
3609.87386	0.98864
3607.81695	0.98840
3605.76004	0.98775
3603.70314	0.98707
3601.64623	0.98673
3599.58932	0.98694
3597.53241	0.98728
3595.47550	0.98744
3593.41860	0.98719
3591.36169	0.98652
3589.30478	0.98595
3587.24787	0.98586
3585.19096	0.98587
3583.13405	0.98569
3581.07715	0.98542
3579.02024	0.98507
3576.96333	0.98488
3574.90642	0.98467
3572.84951	0.98437
3570.79261	0.98451
3568.73570	0.98485
3566.67879	0.98438
3564.62188	0.98310
3562.56497	0.98212
3560.50806	0.98209
3558.45116	0.98252
3556.39425	0.98258
3554.33734	0.98231
3552.28043	0.98185
3550.22352	0.98122
3548.16662	0.98047
3546.10971	0.97974
3544.05280	0.97945
3541.99589	0.97958
3539.93898	0.97950
3537.88207	0.97881
3535.82517	0.97745
3533.76826	0.97586
3531.71135	0.97547
3529.65444	0.97670
3527.59753	0.97756
3525.54063	0.97705
3523.48372	0.97658
3521.42681	0.97673
3519.36990	0.97658
3517.31299	0.97545
3515.25608	0.97417
3513.19918	0.97364
3511.14227	0.97317
3509.08536	0.97245
3507.02845	0.97205
3504.97154	0.97226
3502.91464	0.97306
3500.85773	0.97365
3498.80082	0.97358
3496.74391	0.97332
3494.68700	0.97311
3492.63009	0.97297
3490.57319	0.97275
3488.51628	0.97237
3486.45937	0.97196
3484.40246	0.97193
3482.34555	0.97239
3480.28865	0.97272
3478.23174	0.97237
3476.17483	0.97171
3474.11792	0.97126
3472.06101	0.97113
3470.00410	0.97144
3467.94720	0.97188
3465.89029	0.97194
3463.83338	0.97181
3461.77647	0.97193
3459.71956	0.97233
3457.66266	0.97281
3455.60575	0.97340
3453.54884	0.97400
3451.49193	0.97407
3449.43502	0.97369
3447.37811	0.97353
3445.32121	0.97393
3443.26430	0.97458
3441.20739	0.97482
3439.15048	0.97498
3437.09357	0.97556
3435.03667	0.97600
3432.97976	0.97608
3430.92285	0.97627
3428.86594	0.97632
3426.80903	0.97600
3424.75212	0.97610
3422.69522	0.97679
3420.63831	0.97761
3418.58140	0.97813
3416.52449	0.97808
3414.46758	0.97789
3412.41068	0.97809
3410.35377	0.97834
3408.29686	0.97857
3406.23995	0.97876
3404.18304	0.97855
3402.12613	0.97844
3400.06923	0.97861
3398.01232	0.97900
3395.95541	0.97975
3393.89850	0.98026
3391.84159	0.98044
3389.78469	0.98074
3387.72778	0.98081
3385.67087	0.98064
3383.61396	0.98061
3381.55705	0.98082
3379.50014	0.98103
3377.44324	0.98094
3375.38633	0.98091
3373.32942	0.98125
3371.27251	0.98180
3369.21560	0.98229
3367.15870	0.98230
3365.10179	0.98225
3363.04488	0.98282
3360.98797	0.98349
3358.93106	0.98391
3356.87415	0.98420
3354.81725	0.98410
3352.76034	0.98377
3350.70343	0.98347
3348.64652	0.98326
3346.58961	0.98306
3344.53271	0.98280
3342.47580	0.98282
3340.41889	0.98312
3338.36198	0.98373
3336.30507	0.98445
3334.24816	0.98467
3332.19126	0.98472
3330.13435	0.98488
3328.07744	0.98495
3326.02053	0.98532
3323.96362	0.98592
3321.90672	0.98618
3319.84981	0.98598
3317.79290	0.98560
3315.73599	0.98579
3313.67908	0.98632
3311.62217	0.98638
3309.56527	0.98591
3307.50836	0.98508
3305.45145	0.98435
3303.39454	0.98437
3301.33763	0.98489
3299.28073	0.98512
3297.22382	0.98527
3295.16691	0.98615
3293.11000	0.98729
3291.05309	0.98749
3288.99618	0.98714
3286.93928	0.98709
3284.88237	0.98705
3282.82546	0.98695
3280.76855	0.98707
3278.71164	0.98724
3276.65474	0.98707
3274.59783	0.98692
3272.54092	0.98703
3270.48401	0.98705
3268.42710	0.98717
3266.37019	0.98765
3264.31329	0.98822
3262.25638	0.98840
3260.19947	0.98821
3258.14256	0.98791
3256.08565	0.98756
3254.02875	0.98743
3251.97184	0.98750
3249.91493	0.98759
3247.85802	0.98775
3245.80111	0.98779
3243.74420	0.98769
3241.68730	0.98789
3239.63039	0.98804
3237.57348	0.98804
3235.51657	0.98816
3233.45966	0.98792
3231.40276	0.98759
3229.34585	0.98753
3227.28894	0.98754
3225.23203	0.98787
3223.17512	0.98807
3221.11821	0.98788
3219.06131	0.98810
3217.00440	0.98853
3214.94749	0.98890
3212.89058	0.98940
3210.83367	0.98954
3208.77677	0.98940
3206.71986	0.98954
3204.66295	0.98971
3202.60604	0.98964
3200.54913	0.98948
3198.49222	0.98937
3196.43532	0.98939
3194.37841	0.98944
3192.32150	0.98942
3190.26459	0.98958
3188.20768	0.98971
3186.15078	0.98973
3184.09387	0.98997
3182.03696	0.99009
3179.98005	0.98993
3177.92314	0.98954
3175.86623	0.98909
3173.80933	0.98925
3171.75242	0.98954
3169.69551	0.98922
3167.63860	0.98883
3165.58169	0.98872
3163.52479	0.98877
3161.46788	0.98900
3159.41097	0.98921
3157.35406	0.98922
3155.29715	0.98908
3153.24024	0.98913
3151.18334	0.98943
3149.12643	0.98972
3147.06952	0.98988
3145.01261	0.99014
3142.95570	0.99075
3140.89880	0.99101
3138.84189	0.99037
3136.78498	0.98999
3134.72807	0.99046
3132.67116	0.99064
3130.61425	0.99010
3128.55735	0.98971
3126.50044	0.98981
3124.44353	0.98969
3122.38662	0.98941
3120.32971	0.98943
3118.27281	0.98940
3116.21590	0.98932
3114.15899	0.98949
3112.10208	0.98971
3110.04517	0.98968
3107.98826	0.98971
3105.93136	0.99009
3103.87445	0.99046
3101.81754	0.99043
3099.76063	0.99011
3097.70372	0.98994
3095.64682	0.98995
3093.58991	0.98982
3091.53300	0.98984
3089.47609	0.99029
3087.41918	0.99071
3085.36227	0.99090
3083.30537	0.99096
3081.24846	0.99061
3079.19155	0.99011
3077.13464	0.98998
3075.07773	0.98986
3073.02083	0.98934
3070.96392	0.98912
3068.90701	0.98951
3066.85010	0.98984
3064.79319	0.98996
3062.73628	0.98989
3060.67938	0.98955
3058.62247	0.98922
3056.56556	0.98940
3054.50865	0.99022
3052.45174	0.99068
3050.39484	0.99031
3048.33793	0.99003
3046.28102	0.99038
3044.22411	0.99035
3042.16720	0.98943
3040.11029	0.98870
3038.05339	0.98877
3035.99648	0.98912
3033.93957	0.98905
3031.88266	0.98872
3029.82575	0.98886
3027.76885	0.98939
3025.71194	0.98949
3023.65503	0.98895
3021.59812	0.98845
3019.54121	0.98848
3017.48430	0.98880
3015.42740	0.98906
3013.37049	0.98912
3011.31358	0.98878
3009.25667	0.98825
3007.19976	0.98808
3005.14286	0.98815
3003.08595	0.98800
3001.02904	0.98756
2998.97213	0.98722
2996.91522	0.98737
2994.85831	0.98768
2992.80141	0.98763
2990.74450	0.98727
2988.68759	0.98672
2986.63068	0.98633
2984.57377	0.98643
2982.51687	0.98653
2980.45996	0.98626
2978.40305	0.98613
2976.34614	0.98630
2974.28923	0.98614
2972.23232	0.98553
2970.17542	0.98492
2968.11851	0.98462
2966.06160	0.98451
2964.00469	0.98427
2961.94778	0.98399
2959.89088	0.98389
2957.83397	0.98391
2955.77706	0.98371
2953.72015	0.98300
2951.66324	0.98239
2949.60633	0.98230
2947.54943	0.98235
2945.49252	0.98251
2943.43561	0.98251
2941.37870	0.98241
2939.32179	0.98272
2937.26489	0.98292
2935.20798	0.98268
2933.15107	0.98274
2931.09416	0.98324
2929.03725	0.98371
2926.98034	0.98397
2924.92344	0.98386
2922.86653	0.98346
2920.80962	0.98323
2918.75271	0.98335
2916.69580	0.98334
2914.63890	0.98297
2912.58199	0.98287
2910.52508	0.98321
2908.46817	0.98342
2906.41126	0.98324
2904.35435	0.98304
2902.29745	0.98282
2900.24054	0.98248
2898.18363	0.98248
2896.12672	0.98286
2894.06981	0.98305
2892.01291	0.98274
2889.95600	0.98215
2887.89909	0.98192
2885.84218	0.98227
2883.78527	0.98257
2881.72836	0.98267
2879.67146	0.98286
2877.61455	0.98307
2875.55764	0.98328
2873.50073	0.98349
2871.44382	0.98345
2869.38692	0.98327
2867.33001	0.98352
2865.27310	0.98435
2863.21619	0.98515
2861.15928	0.98544
2859.10237	0.98545
2857.04547	0.98560
2854.98856	0.98592
2852.93165	0.98646
2850.87474	0.98720
2848.81783	0.98752
2846.76093	0.98727
2844.70402	0.98723
2842.64711	0.98786
2840.59020	0.98877
2838.53329	0.98930
2836.47638	0.98913
2834.41948	0.98870
2832.36257	0.98841
2830.30566	0.98833
2828.24875	0.98841
2826.19184	0.98866
2824.13494	0.98916
2822.07803	0.98932
2820.02112	0.98864
2817.96421	0.98802
2815.90730	0.98814
2813.85039	0.98839
2811.79349	0.98858
2809.73658	0.98912
2807.67967	0.98949
2805.62276	0.98946
2803.56585	0.98978
2801.50895	0.99030
2799.45204	0.99025
2797.39513	0.98967
2795.33822	0.98909
2793.28131	0.98879
2791.22440	0.98890
2789.16750	0.98940
2787.11059	0.98979
2785.05368	0.98965
2782.99677	0.98917
2780.93986	0.98915
2778.88296	0.98959
2776.82605	0.98979
2774.76914	0.98967
2772.71223	0.98976
2770.65532	0.99010
2768.59841	0.99022
2766.54151	0.99019
2764.48460	0.98997
2762.42769	0.98954
2760.37078	0.98944
2758.31387	0.98982
2756.25697	0.99009
2754.20006	0.98994
2752.14315	0.98979
2750.08624	0.98969
2748.02933	0.98978
2745.97242	0.99033
2743.91552	0.99070
2741.85861	0.99048
2739.80170	0.99001
2737.74479	0.98974
2735.68788	0.98982
2733.63098	0.99005
2731.57407	0.99017
2729.51716	0.99021
2727.46025	0.99034
2725.40334	0.99023
2723.34643	0.98991
2721.28953	0.98999
2719.23262	0.99029
2717.17571	0.99035
2715.11880	0.99025
2713.06189	0.99017
2711.00499	0.99013
2708.94808	0.99014
2706.89117	0.99020
2704.83426	0.99019
2702.77735	0.99015
2700.72044	0.99017
2698.66354	0.99015
2696.60663	0.99026
2694.54972	0.99046
2692.49281	0.99061
2690.43590	0.99076
2688.37900	0.99059
2686.32209	0.99018
2684.26518	0.99003
2682.20827	0.99022
2680.15136	0.99047
2678.09445	0.99040
2676.03755	0.99006
2673.98064	0.98983
2671.92373	0.99005
2669.86682	0.99045
2667.80991	0.99057
2665.75301	0.99052
2663.69610	0.99039
2661.63919	0.99015
2659.58228	0.99013
2657.52537	0.99027
2655.46846	0.98997
2653.41156	0.98929
2651.35465	0.98904
2649.29774	0.98943
2647.24083	0.98971
2645.18392	0.98952
2643.12702	0.98947
2641.07011	0.98980
2639.01320	0.99021
2636.95629	0.99048
2634.89938	0.99039
2632.84247	0.99007
2630.78557	0.98991
2628.72866	0.98989
2626.67175	0.98994
2624.61484	0.99019
2622.55793	0.99056
2620.50103	0.99054
2618.44412	0.99021
2616.38721	0.99027
2614.33030	0.99088
2612.27339	0.99141
2610.21648	0.99155
2608.15958	0.99151
2606.10267	0.99144
2604.04576	0.99126
2601.98885	0.99083
2599.93194	0.99068
2597.87504	0.99097
2595.81813	0.99095
2593.76122	0.99055
2591.70431	0.99016
2589.64740	0.99005
2587.59049	0.99040
2585.53359	0.99075
2583.47668	0.99090
2581.41977	0.99123
2579.36286	0.99145
2577.30595	0.99134
2575.24905	0.99113
2573.19214	0.99098
2571.13523	0.99107
2569.07832	0.99148
2567.02141	0.99210
2564.96450	0.99254
2562.90760	0.99242
2560.85069	0.99185
2558.79378	0.99142
2556.73687	0.99129
2554.67996	0.99138
2552.62306	0.99164
2550.56615	0.99157
2548.50924	0.99125
2546.45233	0.99124
2544.39542	0.99121
2542.33851	0.99074
2540.28161	0.99050
2538.22470	0.99057
2536.16779	0.99065
2534.11088	0.99097
2532.05397	0.99103
2529.99707	0.99056
2527.94016	0.99026
2525.88325	0.99031
2523.82634	0.99034
2521.76943	0.99028
2519.71252	0.99019
2517.65562	0.99033
2515.59871	0.99095
2513.54180	0.99155
2511.48489	0.99172
2509.42798	0.99180
2507.37108	0.99216
2505.31417	0.99259
2503.25726	0.99248
2501.20035	0.99182
2499.14344	0.99138
2497.08653	0.99151
2495.02963	0.99189
2492.97272	0.99203
2490.91581	0.99197
2488.85890	0.99201
2486.80199	0.99201
2484.74509	0.99202
2482.68818	0.99189
2480.63127	0.99157
2478.57436	0.99143
2476.51745	0.99165
2474.46054	0.99187
2472.40364	0.99170
2470.34673	0.99136
2468.28982	0.99126
2466.23291	0.99133
2464.17600	0.99141
2462.11910	0.99157
2460.06219	0.99176
2458.00528	0.99175
2455.94837	0.99157
2453.89146	0.99154
2451.83455	0.99170
2449.77765	0.99219
2447.72074	0.99297
2445.66383	0.99344
2443.60692	0.99323
2441.55001	0.99260
2439.49311	0.99224
2437.43620	0.99225
2435.37929	0.99204
2433.32238	0.99147
2431.26547	0.99118
2429.20856	0.99159
2427.15166	0.99187
2425.09475	0.99120
2423.03784	0.99068
2420.98093	0.99100
2418.92402	0.99130
2416.86712	0.99132
2414.81021	0.99126
2412.75330	0.99141
2410.69639	0.99184
2408.63948	0.99230
2406.58257	0.99254
2404.52567	0.99223
2402.46876	0.99176
2400.41185	0.99172
2398.35494	0.99188
2396.29803	0.99179
2394.24113	0.99175
2392.18422	0.99208
2390.12731	0.99217
2388.07040	0.99178
2386.01349	0.99155
2383.95658	0.99138
2381.89968	0.99108
2379.84277	0.99111
2377.78586	0.99136
2375.72895	0.99110
2373.67204	0.99040
2371.61514	0.99002
2369.55823	0.99044
2367.50132	0.99120
2365.44441	0.99112
2363.38750	0.99028
2361.33059	0.98957
2359.27369	0.98913
2357.21678	0.98876
2355.15987	0.98865
2353.10296	0.98932
2351.04605	0.99062
2348.98915	0.99135
2346.93224	0.99077
2344.87533	0.98983
2342.81842	0.99026
2340.76151	0.99140
2338.70460	0.99132
2336.64770	0.99036
2334.59079	0.99002
2332.53388	0.99046
2330.47697	0.99085
2328.42006	0.99045
2326.36316	0.98984
2324.30625	0.98974
2322.24934	0.99014
2320.19243	0.99090
2318.13552	0.99136
2316.07861	0.99161
2314.02171	0.99209
2311.96480	0.99217
2309.90789	0.99165
2307.85098	0.99098
2305.79407	0.99058
2303.73717	0.99045
2301.68026	0.99019
2299.62335	0.98987
2297.56644	0.98992
2295.50953	0.99016
2293.45262	0.99030
2291.39572	0.99054
2289.33881	0.99109
2287.28190	0.99173
2285.22499	0.99221
2283.16808	0.99250
2281.11117	0.99246
2279.05427	0.99245
2276.99736	0.99310
2274.94045	0.99325
2272.88354	0.99223
2270.82663	0.99159
2268.76973	0.99134
2266.71282	0.99056
2264.65591	0.99010
2262.59900	0.99049
2260.54209	0.99112
2258.48518	0.99109
2256.42828	0.99059
2254.37137	0.99053
2252.31446	0.99084
2250.25755	0.99153
2248.20064	0.99231
2246.14374	0.99269
2244.08683	0.99236
2242.02992	0.99161
2239.97301	0.99107
2237.91610	0.99010
2235.85919	0.98935
2233.80229	0.99011
2231.74538	0.99077
2229.68847	0.99022
2227.63156	0.99018
2225.57465	0.99152
2223.51775	0.99247
2221.46084	0.99218
2219.40393	0.99194
2217.34702	0.99200
2215.29011	0.99135
2213.23320	0.99022
2211.17630	0.99043
2209.11939	0.99194
2207.06248	0.99302
2205.00557	0.99303
2202.94866	0.99192
2200.89176	0.99091
2198.83485	0.99097
2196.77794	0.99241
2194.72103	0.99423
2192.66412	0.99354
2190.60721	0.99076
2188.55031	0.98899
2186.49340	0.98965
2184.43649	0.99095
2182.37958	0.99087
2180.32267	0.99083
2178.26577	0.99166
2176.20886	0.99267
2174.15195	0.99406
2172.09504	0.99559
2170.03813	0.99623
2167.98122	0.99451
2165.92432	0.99047
2163.86741	0.98719
2161.81050	0.98752
2159.75359	0.99126
2157.69668	0.99523
2155.63978	0.99769
2153.58287	0.99858
2151.52596	0.99705
2149.46905	0.99460
2147.41214	0.99286
2145.35523	0.99150
2143.29833	0.99100
2141.24142	0.99115
2139.18451	0.99132
2137.12760	0.99185
2135.07069	0.99283
2133.01379	0.99322
2130.95688	0.99225
2128.89997	0.99149
2126.84306	0.99198
2124.78615	0.99255
2122.72924	0.99202
2120.67234	0.99099
2118.61543	0.99038
2116.55852	0.99003
2114.50161	0.99002
2112.44470	0.99028
2110.38780	0.99030
2108.33089	0.99019
2106.27398	0.99107
2104.21707	0.99297
2102.16016	0.99360
2100.10325	0.99251
2098.04635	0.99135
2095.98944	0.99093
2093.93253	0.99117
2091.87562	0.99165
2089.81871	0.99203
2087.76181	0.99249
2085.70490	0.99305
2083.64799	0.99320
2081.59108	0.99272
2079.53417	0.99234
2077.47726	0.99262
2075.42036	0.99335
2073.36345	0.99451
2071.30654	0.99517
2069.24963	0.99426
2067.19272	0.99285
2065.13582	0.99196
2063.07891	0.99209
2061.02200	0.99333
2058.96509	0.99392
2056.90818	0.99323
2054.85127	0.99242
2052.79437	0.99167
2050.73746	0.99079
2048.68055	0.98979
2046.62364	0.98926
2044.56673	0.99001
2042.50983	0.99154
2040.45292	0.99328
2038.39601	0.99364
2036.33910	0.99199
2034.28219	0.99232
2032.22528	0.99563
2030.16838	0.99736
2028.11147	0.99622
2026.05456	0.99457
2023.99765	0.99504
2021.94074	0.99685
2019.88384	0.99727
2017.82693	0.99721
2015.77002	0.99685
2013.71311	0.99463
2011.65620	0.99188
2009.59929	0.99170
2007.54239	0.99380
2005.48548	0.99487
2003.42857	0.99435
2001.37166	0.99361
1999.31475	0.99249
1997.25785	0.99172
1995.20094	0.99274
1993.14403	0.99394
1991.08712	0.99425
1989.03021	0.99410
1986.97330	0.99326
1984.91640	0.99257
1982.85949	0.99297
1980.80258	0.99486
1978.74567	0.99690
1976.68876	0.99626
1974.63186	0.99424
1972.57495	0.99414
1970.51804	0.99480
1968.46113	0.99434
1966.40422	0.99493
1964.34731	0.99658
1962.29041	0.99618
1960.23350	0.99452
1958.17659	0.99351
1956.11968	0.99277
1954.06277	0.99189
1952.00587	0.99136
1949.94896	0.99174
1947.89205	0.99253
1945.83514	0.99257
1943.77823	0.99225
1941.72132	0.99279
1939.66442	0.99289
1937.60751	0.99153
1935.55060	0.99076
1933.49369	0.99154
1931.43678	0.99219
1929.37988	0.99197
1927.32297	0.99164
1925.26606	0.99193
1923.20915	0.99293
1921.15224	0.99391
1919.09533	0.99418
1917.03843	0.99358
1914.98152	0.99272
1912.92461	0.99217
1910.86770	0.99182
1908.81079	0.99184
1906.75389	0.99268
1904.69698	0.99328
1902.64007	0.99281
1900.58316	0.99263
1898.52625	0.99345
1896.46934	0.99408
1894.41244	0.99372
1892.35553	0.99289
1890.29862	0.99218
1888.24171	0.99206
1886.18480	0.99242
1884.12790	0.99284
1882.07099	0.99308
1880.01408	0.99315
1877.95717	0.99347
1875.90026	0.99399
1873.84335	0.99391
1871.78645	0.99333
1869.72954	0.99338
1867.67263	0.99346
1865.61572	0.99310
1863.55881	0.99317
1861.50191	0.99308
1859.44500	0.99264
1857.38809	0.99283
1855.33118	0.99309
1853.27427	0.99278
1851.21736	0.99259
1849.16046	0.99264
1847.10355	0.99233
1845.04664	0.99216
1842.98973	0.99247
1840.93282	0.99214
1838.87592	0.99134
1836.81901	0.99110
1834.76210	0.99180
1832.70519	0.99236
1830.64828	0.99160
1828.59137	0.99048
1826.53447	0.99064
1824.47756	0.99112
1822.42065	0.99108
1820.36374	0.99102
1818.30683	0.99104
1816.24993	0.99078
1814.19302	0.98994
1812.13611	0.98906
1810.07920	0.98867
1808.02229	0.98857
1805.96538	0.98846
1803.90848	0.98843
1801.85157	0.98849
1799.79466	0.98837
1797.73775	0.98794
1795.68084	0.98768
1793.62394	0.98756
1791.56703	0.98663
1789.51012	0.98519
1787.45321	0.98398
1785.39630	0.98283
1783.33939	0.98138
1781.28249	0.97961
1779.22558	0.97720
1777.16867	0.97445
1775.11176	0.97153
1773.05485	0.96703
1770.99795	0.95992
1768.94104	0.95170
1766.88413	0.94226
1764.82722	0.93123
1762.77031	0.91713
1760.71340	0.90046
1758.65650	0.88551
1756.59959	0.87115
1754.54268	0.85871
1752.48577	0.84872
1750.42886	0.83789
1748.37196	0.82752
1746.31505	0.82017
1744.25814	0.81506
1742.20123	0.81168
1740.14432	0.81028
1738.08741	0.81108
1736.03051	0.81360
1733.97360	0.81786
1731.91669	0.82463
1729.85978	0.83275
1727.80287	0.84155
1725.74597	0.85111
1723.68906	0.86195
1721.63215	0.87280
1719.57524	0.88352
1717.51833	0.89581
1715.46142	0.90785
1713.40452	0.91775
1711.34761	0.92659
1709.29070	0.93463
1707.23379	0.94190
1705.17688	0.94801
1703.11998	0.95231
1701.06307	0.95595
1699.00616	0.95969
1696.94925	0.96311
1694.89234	0.96649
1692.83543	0.96871
1690.77853	0.97001
1688.72162	0.97132
1686.66471	0.97249
1684.60780	0.97344
1682.55089	0.97437
1680.49399	0.97552
1678.43708	0.97662
1676.38017	0.97731
1674.32326	0.97752
1672.26635	0.97772
1670.20944	0.97810
1668.15254	0.97820
1666.09563	0.97814
1664.03872	0.97832
1661.98181	0.97852
1659.92490	0.97838
1657.86800	0.97822
1655.81109	0.97816
1653.75418	0.97796
1651.69727	0.97788
1649.64036	0.97813
1647.58345	0.97827
1645.52655	0.97811
1643.46964	0.97779
1641.41273	0.97763
1639.35582	0.97770
1637.29891	0.97785
1635.24201	0.97807
1633.18510	0.97836
1631.12819	0.97871
1629.07128	0.97904
1627.01437	0.97939
1624.95746	0.97987
1622.90056	0.98041
1620.84365	0.98087
1618.78674	0.98108
1616.72983	0.98120
1614.67292	0.98195
1612.61602	0.98291
1610.55911	0.98340
1608.50220	0.98375
1606.44529	0.98407
1604.38838	0.98419
1602.33147	0.98444
1600.27457	0.98486
1598.21766	0.98518
1596.16075	0.98539
1594.10384	0.98552
1592.04693	0.98568
1589.99003	0.98583
1587.93312	0.98595
1585.87621	0.98616
1583.81930	0.98632
1581.76239	0.98633
1579.70548	0.98633
1577.64858	0.98646
1575.59167	0.98652
1573.53476	0.98644
1571.47785	0.98644
1569.42094	0.98649
1567.36404	0.98656
1565.30713	0.98657
1563.25022	0.98658
1561.19331	0.98692
1559.13640	0.98767
1557.07949	0.98763
1555.02259	0.98702
1552.96568	0.98655
1550.90877	0.98631
1548.85186	0.98627
1546.79495	0.98642
1544.73805	0.98668
1542.68114	0.98698
1540.62423	0.98687
1538.56732	0.98628
1536.51041	0.98594
1534.45350	0.98571
1532.39660	0.98570
1530.33969	0.98608
1528.28278	0.98646
1526.22587	0.98651
1524.16896	0.98628
1522.11206	0.98604
1520.05515	0.98595
1517.99824	0.98605
1515.94133	0.98618
1513.88442	0.98624
1511.82751	0.98632
1509.77061	0.98644
1507.71370	0.98643
1505.65679	0.98614
1503.59988	0.98572
1501.54297	0.98545
1499.48607	0.98550
1497.42916	0.98567
1495.37225	0.98560
1493.31534	0.98545
1491.25843	0.98536
1489.20152	0.98516
1487.14462	0.98463
1485.08771	0.98422
1483.03080	0.98400
1480.97389	0.98355
1478.91698	0.98295
1476.86008	0.98231
1474.80317	0.98151
1472.74626	0.98053
1470.68935	0.97936
1468.63244	0.97825
1466.57553	0.97682
1464.51863	0.97483
1462.46172	0.97315
1460.40481	0.97197
1458.34790	0.97041
1456.29099	0.96824
1454.23409	0.96686
1452.17718	0.96599
1450.12027	0.96481
1448.06336	0.96309
1446.00645	0.96124
1443.94954	0.95972
1441.89264	0.95845
1439.83573	0.95726
1437.77882	0.95580
1435.72191	0.95401
1433.66500	0.95306
1431.60810	0.95302
1429.55119	0.95345
1427.49428	0.95419
1425.43737	0.95515
1423.38046	0.95636
1421.32355	0.95758
1419.26665	0.95856
1417.20974	0.95930
1415.15283	0.95990
1413.09592	0.96048
1411.03901	0.96105
1408.98211	0.96155
1406.92520	0.96193
1404.86829	0.96214
1402.81138	0.96217
1400.75447	0.96181
1398.69756	0.96081
1396.64066	0.95902
1394.58375	0.95592
1392.52684	0.95183
1390.46993	0.94729
1388.41302	0.94141
1386.35612	0.93386
1384.29921	0.92613
1382.24230	0.91855
1380.18539	0.91077
1378.12848	0.90330
1376.07157	0.89636
1374.01467	0.88987
1371.95776	0.88521
1369.90085	0.88354
1367.84394	0.88505
1365.78703	0.88989
1363.73013	0.89834
1361.67322	0.91031
1359.61631	0.92304
1357.55940	0.93433
1355.50249	0.94356
1353.44558	0.95028
1351.38868	0.95487
1349.33177	0.95813
1347.27486	0.96034
1345.21795	0.96171
1343.16104	0.96282
1341.10414	0.96389
1339.04723	0.96466
1336.99032	0.96494
1334.93341	0.96478
1332.87650	0.96443
1330.81959	0.96403
1328.76269	0.96349
1326.70578	0.96288
1324.64887	0.96248
1322.59196	0.96226
1320.53505	0.96193
1318.47815	0.96157
1316.42124	0.96132
1314.36433	0.96117
1312.30742	0.96113
1310.25051	0.96124
1308.19360	0.96141
1306.13670	0.96126
1304.07979	0.96079
1302.02288	0.96033
1299.96597	0.95983
1297.90906	0.95904
1295.85216	0.95776
1293.79525	0.95587
1291.73834	0.95357
1289.68143	0.95105
1287.62452	0.94854
1285.56761	0.94601
1283.51071	0.94289
1281.45380	0.93903
1279.39689	0.93480
1277.33998	0.93004
1275.28307	0.92467
1273.22617	0.91896
1271.16926	0.91272
1269.11235	0.90592
1267.05544	0.89872
1264.99853	0.89104
1262.94162	0.88299
1260.88472	0.87455
1258.82781	0.86541
1256.77090	0.85560
1254.71399	0.84541
1252.65708	0.83488
1250.60018	0.82411
1248.54327	0.81333
1246.48636	0.80246
1244.42945	0.79153
1242.37254	0.78065
1240.31563	0.76977
1238.25873	0.75899
1236.20182	0.74882
1234.14491	0.73977
1232.08800	0.73176
1230.03109	0.72495
1227.97419	0.72007
1225.91728	0.71762
1223.86037	0.71770
1221.80346	0.72060
1219.74655	0.72663
1217.68964	0.73605
1215.63274	0.74895
1213.57583	0.76482
1211.51892	0.78273
1209.46201	0.80196
1207.40510	0.82203
1205.34820	0.84210
1203.29129	0.86108
1201.23438	0.87805
1199.17747	0.89251
1197.12056	0.90455
1195.06365	0.91437
1193.00675	0.92169
1190.94984	0.92649
1188.89293	0.92949
1186.83602	0.93102
1184.77911	0.93084
1182.72221	0.92913
1180.66530	0.92664
1178.60839	0.92386
1176.55148	0.92085
1174.49457	0.91758
1172.43766	0.91422
1170.38076	0.91136
1168.32385	0.90921
1166.26694	0.90746
1164.21003	0.90619
1162.15312	0.90603
1160.09622	0.90713
1158.03931	0.90922
1155.98240	0.91196
1153.92549	0.91472
1151.86858	0.91696
1149.81167	0.91876
1147.75477	0.92018
1145.69786	0.92088
1143.64095	0.92093
1141.58404	0.92024
1139.52713	0.91832
1137.47023	0.91543
1135.41332	0.91227
1133.35641	0.90899
1131.29950	0.90538
1129.24259	0.90171
1127.18568	0.89838
1125.12878	0.89543
1123.07187	0.89298
1121.01496	0.89139
1118.95805	0.89070
1116.90114	0.89039
1114.84424	0.88987
1112.78733	0.88913
1110.73042	0.88834
1108.67351	0.88714
1106.61660	0.88551
1104.55969	0.88359
1102.50279	0.88125
1100.44588	0.87834
1098.38897	0.87480
1096.33206	0.87080
1094.27515	0.86626
1092.21825	0.86080
1090.16134	0.85447
1088.10443	0.84772
1086.04752	0.84068
1083.99061	0.83319
1081.93370	0.82556
1079.87680	0.81803
1077.81989	0.81062
1075.76298	0.80358
1073.70607	0.79735
1071.64916	0.79198
1069.59226	0.78685
1067.53535	0.78162
1065.47844	0.77638
1063.42153	0.77097
1061.36462	0.76549
1059.30771	0.75973
1057.25081	0.75344
1055.19390	0.74733
1053.13699	0.74193
1051.08008	0.73691
1049.02317	0.73180
1046.96627	0.72669
1044.90936	0.72185
1042.85245	0.71741
1040.79554	0.71355
1038.73863	0.71007
1036.68172	0.70684
1034.62482	0.70485
1032.56791	0.70543
1030.51100	0.70893
1028.45409	0.71521
1026.39718	0.72431
1024.34028	0.73572
1022.28337	0.74849
1020.22646	0.76190
1018.16955	0.77504
1016.11264	0.78712
1014.05573	0.79875
1011.99883	0.81055
1009.94192	0.82184
1007.88501	0.83188
1005.82810	0.84070
1003.77119	0.84881
1001.71429	0.85647
999.65738	0.86363
997.60047	0.87007
995.54356	0.87566
993.48665	0.88091
991.42974	0.88582
989.37284	0.88949
987.31593	0.89188
985.25902	0.89399
983.20211	0.89654
981.14520	0.89955
979.08830	0.90287
977.03139	0.90642
974.97448	0.91016
972.91757	0.91430
970.86066	0.91849
968.80375	0.92212
966.74685	0.92553
964.68994	0.92873
962.63303	0.93110
960.57612	0.93274
958.51921	0.93398
956.46231	0.93524
954.40540	0.93660
952.34849	0.93743
950.29158	0.93808
948.23467	0.93928
946.17776	0.94056
944.12086	0.94155
942.06395	0.94219
940.00704	0.94223
937.95013	0.94196
935.89322	0.94183
933.83632	0.94185
931.77941	0.94156
929.72250	0.94042
927.66559	0.93866
925.60868	0.93699
923.55177	0.93555
921.49487	0.93431
919.43796	0.93319
917.38105	0.93202
915.32414	0.93083
913.26723	0.92961
911.21033	0.92835
909.15342	0.92719
907.09651	0.92649
905.03960	0.92638
902.98269	0.92636
900.92578	0.92626
898.86888	0.92673
896.81197	0.92824
894.75506	0.93033
892.69815	0.93233
890.64124	0.93425
888.58434	0.93648
886.52743	0.93881
884.47052	0.94058
882.41361	0.94164
880.35670	0.94297
878.29979	0.94536
876.24289	0.94810
874.18598	0.95067
872.12907	0.95329
870.07216	0.95579
868.01525	0.95795
865.95835	0.95955
863.90144	0.96048
861.84453	0.96115
859.78762	0.96168
857.73071	0.96193
855.67380	0.96240
853.61690	0.96339
851.55999	0.96426
849.50308	0.96406
847.44617	0.96334
845.38926	0.96323
843.33236	0.96308
841.27545	0.96218
839.21854	0.96095
837.16163	0.96010
835.10472	0.96043
833.04781	0.96203
830.99091	0.96387
828.93400	0.96509
826.87709	0.96603
824.82018	0.96739
822.76327	0.96874
820.70637	0.96956
818.64946	0.97025
816.59255	0.97073
814.53564	0.97098
812.47873	0.97122
810.42182	0.97103
808.36492	0.97054
806.30801	0.97068
804.25110	0.97126
802.19419	0.97140
800.13728	0.97151
798.08038	0.97214
796.02347	0.97288
793.96656	0.97349
791.90965	0.97412
789.85274	0.97458
787.79583	0.97461
785.73893	0.97427
783.68202	0.97388
781.62511	0.97345
779.56820	0.97295
777.51129	0.97290
775.45439	0.97300
773.39748	0.97275
771.34057	0.97247
769.28366	0.97204
767.22675	0.97180
765.16984	0.97229
763.11294	0.97290
761.05603	0.97326
758.99912	0.97347
756.94221	0.97344
754.88530	0.97332
752.82839	0.97297
750.77149	0.97210
748.71458	0.97143
746.65767	0.97149
744.60076	0.97187
742.54385	0.97231
740.48695	0.97266
738.43004	0.97292
736.37313	0.97284
734.31622	0.97205
732.25931	0.97102
730.20240	0.97011
728.14550	0.96957
726.08859	0.96923
724.03168	0.96835
721.97477	0.96706
719.91786	0.96611
717.86096	0.96553
715.80405	0.96497
713.74714	0.96461
711.69023	0.96422
709.63332	0.96353
707.57641	0.96313
705.51951	0.96300
703.46260	0.96244
701.40569	0.96189
699.34878	0.96156
697.29187	0.96066
695.23497	0.95926
693.17806	0.95773
691.12115	0.95614
689.06424	0.95487
687.00733	0.95407
684.95042	0.95366
682.89352	0.95353
680.83661	0.95316
678.77970	0.95273
676.72279	0.95300
674.66588	0.95375
672.60898	0.95444
670.55207	0.95487
668.49516	0.95463
666.43825	0.95407
664.38134	0.95415
662.32443	0.95391
660.26753	0.95299
658.21062	0.95226
656.15371	0.95146
654.09680	0.95005
652.03989	0.94877
649.98299	0.94816
647.92608	0.94747
645.86917	0.94553
643.81226	0.94286
641.75535	0.94086
639.69844	0.93902
637.64154	0.93672
635.58463	0.93476
633.52772	0.93336
631.47081	0.93219
629.41390	0.93173
627.35700	0.93184
625.30009	0.93124
623.24318	0.92999
621.18627	0.92835
619.12936	0.92601
617.07245	0.92388
615.01555	0.92176
612.95864	0.91773
610.90173	0.91167
608.84482	0.90524
606.78791	0.89955
604.73101	0.89585
602.67410	0.89524
600.61719	0.89734
598.56028	0.90216
596.50337	0.90880
594.44646	0.91456
592.38956	0.91854
590.33265	0.92168
588.27574	0.92448
586.21883	0.92700
584.16192	0.92941
582.10502	0.93192
580.04811	0.93310
577.99120	0.93144
575.93429	0.92983
573.87738	0.93003
571.82047	0.92965
569.76357	0.92822
567.70666	0.92575
565.64975	0.92245
563.59284	0.92076
561.53593	0.92208
559.47903	0.92416
557.42212	0.92431
555.36521	0.92380
553.30830	0.92447
551.25139	0.92556
549.19448	0.92644
547.13758	0.92778
545.08067	0.92882
543.02376	0.92899
540.96685	0.92871
538.90994	0.92772
536.85304	0.92685
534.79613	0.92641
532.73922	0.92590
530.68231	0.92548
528.62540	0.92499
526.56849	0.92453
524.51159	0.92397
522.45468	0.92289
520.39777	0.92291
518.34086	0.92418
516.28395	0.92420
514.22705	0.92292
512.17014	0.92162
510.11323	0.92054
508.05632	0.92002
505.99941	0.92115
503.94250	0.92303
501.88560	0.92283
499.82869	0.92014
497.77178	0.91722
495.71487	0.91615
493.65796	0.91580
491.60106	0.91426
489.54415	0.91279
487.48724	0.91392
485.43033	0.91764
483.37342	0.91850
481.31651	0.91396
479.25961	0.91051
477.20270	0.91094
475.14579	0.91164
473.08888	0.91178
471.03197	0.91277
468.97507	0.91331
466.91816	0.91185
464.86125	0.90845
462.80434	0.90492
460.74743	0.90426
458.69052	0.90521
456.63362	0.90495
454.57671	0.90542
452.51980	0.90606
450.46289	0.90564
448.40598	0.90609
446.34908	0.90578
444.29217	0.90416
442.23526	0.90586
440.17835	0.90980
438.12144	0.91234
436.06453	0.91443
434.00763	0.91589
431.95072	0.91489
429.89381	0.91214
427.83690	0.91230
425.77999	0.91601
423.72309	0.91758
421.66618	0.91648
419.60927	0.91512
417.55236	0.91476
415.49545	0.91744
413.43854	0.92101
411.38164	0.92190
409.32473	0.91955
407.26782	0.91774
405.21091	0.91658
403.15400	0.91371
401.09710	0.91069
399.04019	0.91090
