3996.57260	0.99549
3994.51569	0.99641
3992.45878	0.99653
3990.40188	0.99610
3988.34497	0.99585
3986.28806	0.99553
3984.23115	0.99506
3982.17424	0.99483
3980.11733	0.99491
3978.06043	0.99492
3976.00352	0.99483
3973.94661	0.99486
3971.88970	0.99474
3969.83279	0.99455
3967.77589	0.99472
3965.71898	0.99483
3963.66207	0.99458
3961.60516	0.99464
3959.54825	0.99535
3957.49134	0.99592
3955.43444	0.99574
3953.37753	0.99566
3951.32062	0.99606
3949.26371	0.99604
3947.20680	0.99575
3945.14990	0.99576
3943.09299	0.99612
3941.03608	0.99633
3938.97917	0.99609
3936.92226	0.99579
3934.86535	0.99586
3932.80845	0.99620
3930.75154	0.99631
3928.69463	0.99559
3926.63772	0.99416
3924.58081	0.99379
3922.52391	0.99507
3920.46700	0.99643
3918.41009	0.99707
3916.35318	0.99672
3914.29627	0.99595
3912.23936	0.99557
3910.18246	0.99558
3908.12555	0.99567
3906.06864	0.99548
3904.01173	0.99526
3901.95482	0.99557
3899.89792	0.99569
3897.84101	0.99548
3895.78410	0.99586
3893.72719	0.99658
3891.67028	0.99644
3889.61337	0.99546
3887.55647	0.99523
3885.49956	0.99607
3883.44265	0.99639
3881.38574	0.99567
3879.32883	0.99507
3877.27193	0.99504
3875.21502	0.99542
3873.15811	0.99623
3871.10120	0.99670
3869.04429	0.99598
3866.98738	0.99520
3864.93048	0.99496
3862.87357	0.99502
3860.81666	0.99558
3858.75975	0.99627
3856.70284	0.99657
3854.64594	0.99673
3852.58903	0.99688
3850.53212	0.99626
3848.47521	0.99577
3846.41830	0.99595
3844.36139	0.99668
3842.30449	0.99734
3840.24758	0.99693
3838.19067	0.99571
3836.13376	0.99491
3834.07685	0.99460
3832.01995	0.99459
3829.96304	0.99481
3827.90613	0.99497
3825.84922	0.99506
3823.79231	0.99504
3821.73540	0.99521
3819.67850	0.99589
3817.62159	0.99574
3815.56468	0.99487
3813.50777	0.99489
3811.45086	0.99537
3809.39396	0.99537
3807.33705	0.99512
3805.28014	0.99544
3803.22323	0.99660
3801.16632	0.99755
3799.10941	0.99722
3797.05251	0.99655
3794.99560	0.99574
3792.93869	0.99501
3790.88178	0.99458
3788.82487	0.99437
3786.76796	0.99497
3784.71106	0.99583
3782.65415	0.99576
3780.59724	0.99557
3778.54033	0.99647
3776.48342	0.99741
3774.42652	0.99687
3772.36961	0.99547
3770.31270	0.99472
3768.25579	0.99490
3766.19888	0.99513
3764.14197	0.99522
3762.08507	0.99563
3760.02816	0.99632
3757.97125	0.99673
3755.91434	0.99681
3753.85743	0.99672
3751.80053	0.99605
3749.74362	0.99488
3747.68671	0.99416
3745.62980	0.99461
3743.57289	0.99637
3741.51598	0.99712
3739.45908	0.99642
3737.40217	0.99591
3735.34526	0.99709
3733.28835	0.99794
3731.23144	0.99667
3729.17454	0.99535
3727.11763	0.99495
3725.06072	0.99539
3723.00381	0.99615
3720.94690	0.99651
3718.88999	0.99627
3716.83309	0.99577
3714.77618	0.99557
3712.71927	0.99553
3710.66236	0.99530
3708.60545	0.99516
3706.54855	0.99547
3704.49164	0.99602
3702.43473	0.99633
3700.37782	0.99636
3698.32091	0.99623
3696.26400	0.99596
3694.20710	0.99600
3692.15019	0.99611
3690.09328	0.99562
3688.03637	0.99514
3685.97946	0.99495
3683.92256	0.99486
3681.86565	0.99554
3679.80874	0.99680
3677.75183	0.99768
3675.69492	0.99761
3673.63801	0.99643
3671.58111	0.99508
3669.52420	0.99393
3667.46729	0.99347
3665.41038	0.99365
3663.35347	0.99376
3661.29657	0.99346
3659.23966	0.99329
3657.18275	0.99383
3655.12584	0.99433
3653.06893	0.99447
3651.01202	0.99516
3648.95512	0.99620
3646.89821	0.99589
3644.84130	0.99468
3642.78439	0.99340
3640.72748	0.99237
3638.67058	0.99189
3636.61367	0.99197
3634.55676	0.99209
3632.49985	0.99189
3630.44294	0.99188
3628.38603	0.99226
3626.32913	0.99244
3624.27222	0.99229
3622.21531	0.99191
3620.15840	0.99163
3618.10149	0.99159
3616.04459	0.99169
3613.98768	0.99138
3611.93077	0.99029
3609.87386	0.98920
3607.81695	0.98831
3605.76004	0.98779
3603.70314	0.98852
3601.64623	0.99027
3599.58932	0.99088
3597.53241	0.98944
3595.47550	0.98822
3593.41860	0.98836
3591.36169	0.98868
3589.30478	0.98897
3587.24787	0.98930
3585.19096	0.98853
3583.13405	0.98729
3581.07715	0.98701
3579.02024	0.98754
3576.96333	0.98764
3574.90642	0.98679
3572.84951	0.98622
3570.79261	0.98662
3568.73570	0.98694
3566.67879	0.98653
3564.62188	0.98605
3562.56497	0.98565
3560.50806	0.98510
3558.45116	0.98459
3556.39425	0.98420
3554.33734	0.98367
3552.28043	0.98287
3550.22352	0.98205
3548.16662	0.98158
3546.10971	0.98140
3544.05280	0.98133
3541.99589	0.98108
3539.93898	0.98052
3537.88207	0.98024
3535.82517	0.98031
3533.76826	0.98003
3531.71135	0.97959
3529.65444	0.97951
3527.59753	0.97986
3525.54063	0.98019
3523.48372	0.97989
3521.42681	0.97899
3519.36990	0.97809
3517.31299	0.97762
3515.25608	0.97755
3513.19918	0.97750
3511.14227	0.97710
3509.08536	0.97647
3507.02845	0.97575
3504.97154	0.97514
3502.91464	0.97486
3500.85773	0.97482
3498.80082	0.97494
3496.74391	0.97533
3494.68700	0.97580
3492.63009	0.97593
3490.57319	0.97554
3488.51628	0.97476
3486.45937	0.97398
3484.40246	0.97371
3482.34555	0.97387
3480.28865	0.97411
3478.23174	0.97408
3476.17483	0.97379
3474.11792	0.97356
3472.06101	0.97326
3470.00410	0.97267
3467.94720	0.97228
3465.89029	0.97244
3463.83338	0.97256
3461.77647	0.97216
3459.71956	0.97156
3457.66266	0.97163
3455.60575	0.97231
3453.54884	0.97239
3451.49193	0.97198
3449.43502	0.97199
3447.37811	0.97201
3445.32121	0.97137
3443.26430	0.97083
3441.20739	0.97128
3439.15048	0.97186
3437.09357	0.97162
3435.03667	0.97117
3432.97976	0.97112
3430.92285	0.97141
3428.86594	0.97171
3426.80903	0.97159
3424.75212	0.97139
3422.69522	0.97185
3420.63831	0.97256
3418.58140	0.97248
3416.52449	0.97185
3414.46758	0.97170
3412.41068	0.97211
3410.35377	0.97233
3408.29686	0.97207
3406.23995	0.97167
3404.18304	0.97145
3402.12613	0.97131
3400.06923	0.97120
3398.01232	0.97099
3395.95541	0.97070
3393.89850	0.97083
3391.84159	0.97110
3389.78469	0.97110
3387.72778	0.97137
3385.67087	0.97210
3383.61396	0.97249
3381.55705	0.97246
3379.50014	0.97260
3377.44324	0.97302
3375.38633	0.97337
3373.32942	0.97332
3371.27251	0.97318
3369.21560	0.97369
3367.15870	0.97446
3365.10179	0.97421
3363.04488	0.97340
3360.98797	0.97322
3358.93106	0.97335
3356.87415	0.97352
3354.81725	0.97382
3352.76034	0.97415
3350.70343	0.97463
3348.64652	0.97500
3346.58961	0.97451
3344.53271	0.97367
3342.47580	0.97361
3340.41889	0.97397
3338.36198	0.97424
3336.30507	0.97470
3334.24816	0.97520
3332.19126	0.97521
3330.13435	0.97492
3328.07744	0.97493
3326.02053	0.97548
3323.96362	0.97620
3321.90672	0.97635
3319.84981	0.97634
3317.79290	0.97637
3315.73599	0.97621
3313.67908	0.97619
3311.62217	0.97631
3309.56527	0.97649
3307.50836	0.97671
3305.45145	0.97717
3303.39454	0.97756
3301.33763	0.97712
3299.28073	0.97672
3297.22382	0.97726
3295.16691	0.97797
3293.11000	0.97790
3291.05309	0.97745
3288.99618	0.97749
3286.93928	0.97808
3284.88237	0.97837
3282.82546	0.97808
3280.76855	0.97822
3278.71164	0.97879
3276.65474	0.97888
3274.59783	0.97862
3272.54092	0.97862
3270.48401	0.97911
3268.42710	0.97962
3266.37019	0.97947
3264.31329	0.97904
3262.25638	0.97903
3260.19947	0.97937
3258.14256	0.97989
3256.08565	0.98037
3254.02875	0.98047
3251.97184	0.98051
3249.91493	0.98070
3247.85802	0.98034
3245.80111	0.97963
3243.74420	0.97972
3241.68730	0.98061
3239.63039	0.98146
3237.57348	0.98194
3235.51657	0.98207
3233.45966	0.98211
3231.40276	0.98216
3229.34585	0.98225
3227.28894	0.98253
3225.23203	0.98257
3223.17512	0.98234
3221.11821	0.98259
3219.06131	0.98320
3217.00440	0.98345
3214.94749	0.98310
3212.89058	0.98284
3210.83367	0.98356
3208.77677	0.98448
3206.71986	0.98443
3204.66295	0.98398
3202.60604	0.98368
3200.54913	0.98356
3198.49222	0.98380
3196.43532	0.98400
3194.37841	0.98410
3192.32150	0.98460
3190.26459	0.98506
3188.20768	0.98493
3186.15078	0.98458
3184.09387	0.98433
3182.03696	0.98425
3179.98005	0.98459
3177.92314	0.98533
3175.86623	0.98598
3173.80933	0.98631
3171.75242	0.98631
3169.69551	0.98618
3167.63860	0.98617
3165.58169	0.98606
3163.52479	0.98597
3161.46788	0.98631
3159.41097	0.98648
3157.35406	0.98615
3155.29715	0.98593
3153.24024	0.98585
3151.18334	0.98602
3149.12643	0.98700
3147.06952	0.98806
3145.01261	0.98822
3142.95570	0.98785
3140.89880	0.98755
3138.84189	0.98745
3136.78498	0.98744
3134.72807	0.98746
3132.67116	0.98753
3130.61425	0.98772
3128.55735	0.98794
3126.50044	0.98801
3124.44353	0.98795
3122.38662	0.98821
3120.32971	0.98868
3118.27281	0.98863
3116.21590	0.98839
3114.15899	0.98847
3112.10208	0.98820
3110.04517	0.98764
3107.98826	0.98762
3105.93136	0.98825
3103.87445	0.98911
3101.81754	0.98922
3099.76063	0.98843
3097.70372	0.98818
3095.64682	0.98858
3093.58991	0.98863
3091.53300	0.98853
3089.47609	0.98864
3087.41918	0.98899
3085.36227	0.98944
3083.30537	0.98964
3081.24846	0.98965
3079.19155	0.98973
3077.13464	0.98976
3075.07773	0.98954
3073.02083	0.98932
3070.96392	0.98929
3068.90701	0.98936
3066.85010	0.98946
3064.79319	0.98947
3062.73628	0.98954
3060.67938	0.99000
3058.62247	0.99023
3056.56556	0.98968
3054.50865	0.98949
3052.45174	0.99031
3050.39484	0.99081
3048.33793	0.99056
3046.28102	0.99047
3044.22411	0.99064
3042.16720	0.99038
3040.11029	0.98999
3038.05339	0.99002
3035.99648	0.99030
3033.93957	0.99048
3031.88266	0.99036
3029.82575	0.99035
3027.76885	0.99049
3025.71194	0.99048
3023.65503	0.99052
3021.59812	0.99071
3019.54121	0.99053
3017.48430	0.98985
3015.42740	0.98949
3013.37049	0.98977
3011.31358	0.99033
3009.25667	0.99088
3007.19976	0.99095
3005.14286	0.99064
3003.08595	0.99043
3001.02904	0.99030
2998.97213	0.99040
2996.91522	0.99061
2994.85831	0.99042
2992.80141	0.99014
2990.74450	0.99005
2988.68759	0.98997
2986.63068	0.99001
2984.57377	0.98999
2982.51687	0.98990
2980.45996	0.98989
2978.40305	0.98976
2976.34614	0.98940
2974.28923	0.98888
2972.23232	0.98843
2970.17542	0.98848
2968.11851	0.98881
2966.06160	0.98903
2964.00469	0.98907
2961.94778	0.98886
2959.89088	0.98861
2957.83397	0.98876
2955.77706	0.98907
2953.72015	0.98879
2951.66324	0.98811
2949.60633	0.98796
2947.54943	0.98807
2945.49252	0.98788
2943.43561	0.98766
2941.37870	0.98736
2939.32179	0.98706
2937.26489	0.98701
2935.20798	0.98707
2933.15107	0.98725
2931.09416	0.98769
2929.03725	0.98829
2926.98034	0.98843
2924.92344	0.98802
2922.86653	0.98780
2920.80962	0.98791
2918.75271	0.98806
2916.69580	0.98806
2914.63890	0.98753
2912.58199	0.98640
2910.52508	0.98567
2908.46817	0.98569
2906.41126	0.98566
2904.35435	0.98559
2902.29745	0.98555
2900.24054	0.98514
2898.18363	0.98437
2896.12672	0.98379
2894.06981	0.98370
2892.01291	0.98377
2889.95600	0.98380
2887.89909	0.98391
2885.84218	0.98397
2883.78527	0.98401
2881.72836	0.98389
2879.67146	0.98355
2877.61455	0.98360
2875.55764	0.98393
2873.50073	0.98416
2871.44382	0.98431
2869.38692	0.98451
2867.33001	0.98503
2865.27310	0.98583
2863.21619	0.98630
2861.15928	0.98623
2859.10237	0.98656
2857.04547	0.98754
2854.98856	0.98849
2852.93165	0.98926
2850.87474	0.98971
2848.81783	0.98964
2846.76093	0.98933
2844.70402	0.98928
2842.64711	0.98935
2840.59020	0.98917
2838.53329	0.98893
2836.47638	0.98878
2834.41948	0.98854
2832.36257	0.98848
2830.30566	0.98866
2828.24875	0.98865
2826.19184	0.98874
2824.13494	0.98937
2822.07803	0.98984
2820.02112	0.98969
2817.96421	0.98956
2815.90730	0.98958
2813.85039	0.98951
2811.79349	0.98967
2809.73658	0.99001
2807.67967	0.99008
2805.62276	0.99005
2803.56585	0.99013
2801.50895	0.99020
2799.45204	0.99023
2797.39513	0.99018
2795.33822	0.99016
2793.28131	0.99008
2791.22440	0.98987
2789.16750	0.99006
2787.11059	0.99062
2785.05368	0.99094
2782.99677	0.99091
2780.93986	0.99054
2778.88296	0.98999
2776.82605	0.98995
2774.76914	0.99045
2772.71223	0.99082
2770.65532	0.99085
2768.59841	0.99087
2766.54151	0.99072
2764.48460	0.99028
2762.42769	0.99021
2760.37078	0.99070
2758.31387	0.99114
2756.25697	0.99129
2754.20006	0.99106
2752.14315	0.99060
2750.08624	0.99048
2748.02933	0.99079
2745.97242	0.99115
2743.91552	0.99124
2741.85861	0.99095
2739.80170	0.99057
2737.74479	0.99039
2735.68788	0.99036
2733.63098	0.99035
2731.57407	0.99018
2729.51716	0.98996
2727.46025	0.99012
2725.40334	0.99042
2723.34643	0.99027
2721.28953	0.99001
2719.23262	0.99010
2717.17571	0.99026
2715.11880	0.99043
2713.06189	0.99062
2711.00499	0.99081
2708.94808	0.99099
2706.89117	0.99071
2704.83426	0.99028
2702.77735	0.99034
2700.72044	0.99058
2698.66354	0.99063
2696.60663	0.99053
2694.54972	0.99061
2692.49281	0.99086
2690.43590	0.99114
2688.37900	0.99123
2686.32209	0.99111
2684.26518	0.99107
2682.20827	0.99128
2680.15136	0.99155
2678.09445	0.99148
2676.03755	0.99105
2673.98064	0.99070
2671.92373	0.99082
2669.86682	0.99118
2667.80991	0.99121
2665.75301	0.99106
2663.69610	0.99108
2661.63919	0.99103
2659.58228	0.99099
2657.52537	0.99105
2655.46846	0.99070
2653.41156	0.99032
2651.35465	0.99045
2649.29774	0.99068
2647.24083	0.99082
2645.18392	0.99093
2643.12702	0.99092
2641.07011	0.99088
2639.01320	0.99070
2636.95629	0.99048
2634.89938	0.99095
2632.84247	0.99179
2630.78557	0.99201
2628.72866	0.99163
2626.67175	0.99121
2624.61484	0.99131
2622.55793	0.99166
2620.50103	0.99120
2618.44412	0.99035
2616.38721	0.99045
2614.33030	0.99096
2612.27339	0.99104
2610.21648	0.99123
2608.15958	0.99176
2606.10267	0.99211
2604.04576	0.99209
2601.98885	0.99180
2599.93194	0.99118
2597.87504	0.99053
2595.81813	0.99021
2593.76122	0.99012
2591.70431	0.99046
2589.64740	0.99097
2587.59049	0.99113
2585.53359	0.99123
2583.47668	0.99130
2581.41977	0.99127
2579.36286	0.99141
2577.30595	0.99145
2575.24905	0.99159
2573.19214	0.99212
2571.13523	0.99274
2569.07832	0.99284
2567.02141	0.99231
2564.96450	0.99215
2562.90760	0.99249
2560.85069	0.99250
2558.79378	0.99212
2556.73687	0.99172
2554.67996	0.99134
2552.62306	0.99107
2550.56615	0.99141
2548.50924	0.99184
2546.45233	0.99135
2544.39542	0.99052
2542.33851	0.99039
2540.28161	0.99090
2538.22470	0.99178
2536.16779	0.99281
2534.11088	0.99336
2532.05397	0.99312
2529.99707	0.99255
2527.94016	0.99219
2525.88325	0.99208
2523.82634	0.99205
2521.76943	0.99215
2519.71252	0.99223
2517.65562	0.99199
2515.59871	0.99172
2513.54180	0.99167
2511.48489	0.99163
2509.42798	0.99155
2507.37108	0.99175
2505.31417	0.99209
2503.25726	0.99188
2501.20035	0.99138
2499.14344	0.99113
2497.08653	0.99116
2495.02963	0.99183
2492.97272	0.99282
2490.91581	0.99286
2488.85890	0.99187
2486.80199	0.99136
2484.74509	0.99182
2482.68818	0.99220
2480.63127	0.99205
2478.57436	0.99177
2476.51745	0.99195
2474.46054	0.99256
2472.40364	0.99259
2470.34673	0.99189
2468.28982	0.99148
2466.23291	0.99190
2464.17600	0.99234
2462.11910	0.99212
2460.06219	0.99207
2458.00528	0.99233
2455.94837	0.99223
2453.89146	0.99184
2451.83455	0.99163
2449.77765	0.99178
2447.72074	0.99195
2445.66383	0.99205
2443.60692	0.99242
2441.55001	0.99275
2439.49311	0.99265
2437.43620	0.99274
2435.37929	0.99323
2433.32238	0.99340
2431.26547	0.99301
2429.20856	0.99241
2427.15166	0.99200
2425.09475	0.99165
2423.03784	0.99163
2420.98093	0.99221
2418.92402	0.99255
2416.86712	0.99226
2414.81021	0.99216
2412.75330	0.99245
2410.69639	0.99259
2408.63948	0.99250
2406.58257	0.99215
2404.52567	0.99162
2402.46876	0.99144
2400.41185	0.99193
2398.35494	0.99269
2396.29803	0.99308
2394.24113	0.99316
2392.18422	0.99299
2390.12731	0.99263
2388.07040	0.99270
2386.01349	0.99314
2383.95658	0.99308
2381.89968	0.99236
2379.84277	0.99173
2377.78586	0.99173
2375.72895	0.99224
2373.67204	0.99272
2371.61514	0.99290
2369.55823	0.99285
2367.50132	0.99300
2365.44441	0.99359
2363.38750	0.99390
2361.33059	0.99402
2359.27369	0.99445
2357.21678	0.99399
2355.15987	0.99253
2353.10296	0.99174
2351.04605	0.99164
2348.98915	0.99138
2346.93224	0.99117
2344.87533	0.99140
2342.81842	0.99162
2340.76151	0.99176
2338.70460	0.99214
2336.64770	0.99242
2334.59079	0.99254
2332.53388	0.99234
2330.47697	0.99180
2328.42006	0.99117
2326.36316	0.99043
2324.30625	0.99027
2322.24934	0.99084
2320.19243	0.99095
2318.13552	0.99059
2316.07861	0.99043
2314.02171	0.99078
2311.96480	0.99144
2309.90789	0.99162
2307.85098	0.99168
2305.79407	0.99215
2303.73717	0.99249
2301.68026	0.99250
2299.62335	0.99233
2297.56644	0.99176
2295.50953	0.99094
2293.45262	0.99065
2291.39572	0.99109
2289.33881	0.99146
2287.28190	0.99136
2285.22499	0.99114
2283.16808	0.99083
2281.11117	0.99058
2279.05427	0.99049
2276.99736	0.99079
2274.94045	0.99148
2272.88354	0.99206
2270.82663	0.99256
2268.76973	0.99270
2266.71282	0.99236
2264.65591	0.99187
2262.59900	0.99141
2260.54209	0.99116
2258.48518	0.99134
2256.42828	0.99193
2254.37137	0.99241
2252.31446	0.99250
2250.25755	0.99214
2248.20064	0.99225
2246.14374	0.99311
2244.08683	0.99278
2242.02992	0.99158
2239.97301	0.99171
2237.91610	0.99225
2235.85919	0.99202
2233.80229	0.99202
2231.74538	0.99215
2229.68847	0.99204
2227.63156	0.99255
2225.57465	0.99323
2223.51775	0.99327
2221.46084	0.99339
2219.40393	0.99403
2217.34702	0.99504
2215.29011	0.99509
2213.23320	0.99370
2211.17630	0.99220
2209.11939	0.99120
2207.06248	0.99181
2205.00557	0.99308
2202.94866	0.99237
2200.89176	0.99019
2198.83485	0.98933
2196.77794	0.99048
2194.72103	0.99202
2192.66412	0.99324
2190.60721	0.99378
2188.55031	0.99307
2186.49340	0.99132
2184.43649	0.99057
2182.37958	0.99153
2180.32267	0.99271
2178.26577	0.99406
2176.20886	0.99465
2174.15195	0.99311
2172.09504	0.99088
2170.03813	0.98950
2167.98122	0.98903
2165.92432	0.98987
2163.86741	0.99069
2161.81050	0.99060
2159.75359	0.99338
2157.69668	0.99815
2155.63978	0.99885
2153.58287	0.99659
2151.52596	0.99504
2149.46905	0.99461
2147.41214	0.99368
2145.35523	0.99263
2143.29833	0.99272
2141.24142	0.99289
2139.18451	0.99239
2137.12760	0.99164
2135.07069	0.99220
2133.01379	0.99402
2130.95688	0.99434
2128.89997	0.99309
2126.84306	0.99268
2124.78615	0.99343
2122.72924	0.99394
2120.67234	0.99384
2118.61543	0.99382
2116.55852	0.99420
2114.50161	0.99407
2112.44470	0.99272
2110.38780	0.99079
2108.33089	0.98990
2106.27398	0.99129
2104.21707	0.99334
2102.16016	0.99380
2100.10325	0.99314
2098.04635	0.99291
2095.98944	0.99323
2093.93253	0.99312
2091.87562	0.99268
2089.81871	0.99247
2087.76181	0.99172
2085.70490	0.99053
2083.64799	0.99060
2081.59108	0.99171
2079.53417	0.99235
2077.47726	0.99194
2075.42036	0.99104
2073.36345	0.99084
2071.30654	0.99117
2069.24963	0.99115
2067.19272	0.99122
2065.13582	0.99195
2063.07891	0.99212
2061.02200	0.99148
2058.96509	0.99169
2056.90818	0.99268
2054.85127	0.99297
2052.79437	0.99249
2050.73746	0.99103
2048.68055	0.98959
2046.62364	0.99054
2044.56673	0.99212
2042.50983	0.99238
2040.45292	0.99241
2038.39601	0.99238
2036.33910	0.99200
2034.28219	0.99191
2032.22528	0.99283
2030.16838	0.99423
2028.11147	0.99488
2026.05456	0.99560
2023.99765	0.99694
2021.94074	0.99751
2019.88384	0.99726
2017.82693	0.99604
2015.77002	0.99369
2013.71311	0.99211
2011.65620	0.99185
2009.59929	0.99257
2007.54239	0.99420
2005.48548	0.99512
2003.42857	0.99427
2001.37166	0.99271
1999.31475	0.99134
1997.25785	0.99086
1995.20094	0.99158
1993.14403	0.99300
1991.08712	0.99493
1989.03021	0.99654
1986.97330	0.99608
1984.91640	0.99403
1982.85949	0.99255
1980.80258	0.99166
1978.74567	0.99230
1976.68876	0.99442
1974.63186	0.99388
1972.57495	0.99128
1970.51804	0.99145
1968.46113	0.99497
1966.40422	0.99687
1964.34731	0.99513
1962.29041	0.99355
1960.23350	0.99388
1958.17659	0.99479
1956.11968	0.99461
1954.06277	0.99316
1952.00587	0.99236
1949.94896	0.99341
1947.89205	0.99445
1945.83514	0.99384
1943.77823	0.99292
1941.72132	0.99276
1939.66442	0.99255
1937.60751	0.99254
1935.55060	0.99334
1933.49369	0.99361
1931.43678	0.99299
1929.37988	0.99340
1927.32297	0.99517
1925.26606	0.99620
1923.20915	0.99518
1921.15224	0.99334
1919.09533	0.99259
1917.03843	0.99297
1914.98152	0.99331
1912.92461	0.99342
1910.86770	0.99385
1908.81079	0.99464
1906.75389	0.99504
1904.69698	0.99491
1902.64007	0.99479
1900.58316	0.99461
1898.52625	0.99444
1896.46934	0.99461
1894.41244	0.99514
1892.35553	0.99528
1890.29862	0.99456
1888.24171	0.99388
1886.18480	0.99397
1884.12790	0.99412
1882.07099	0.99384
1880.01408	0.99380
1877.95717	0.99376
1875.90026	0.99350
1873.84335	0.99386
1871.78645	0.99463
1869.72954	0.99475
1867.67263	0.99392
1865.61572	0.99330
1863.55881	0.99336
1861.50191	0.99352
1859.44500	0.99338
1857.38809	0.99352
1855.33118	0.99424
1853.27427	0.99479
1851.21736	0.99482
1849.16046	0.99466
1847.10355	0.99449
1845.04664	0.99418
1842.98973	0.99368
1840.93282	0.99345
1838.87592	0.99350
1836.81901	0.99351
1834.76210	0.99396
1832.70519	0.99496
1830.64828	0.99553
1828.59137	0.99501
1826.53447	0.99414
1824.47756	0.99363
1822.42065	0.99354
1820.36374	0.99366
1818.30683	0.99384
1816.24993	0.99372
1814.19302	0.99327
1812.13611	0.99306
1810.07920	0.99315
1808.02229	0.99308
1805.96538	0.99294
1803.90848	0.99298
1801.85157	0.99309
1799.79466	0.99302
1797.73775	0.99270
1795.68084	0.99248
1793.62394	0.99254
1791.56703	0.99247
1789.51012	0.99223
1787.45321	0.99232
1785.39630	0.99260
1783.33939	0.99238
1781.28249	0.99165
1779.22558	0.99106
1777.16867	0.99085
1775.11176	0.99065
1773.05485	0.98987
1770.99795	0.98845
1768.94104	0.98661
1766.88413	0.98405
1764.82722	0.98115
1762.77031	0.97807
1760.71340	0.97442
1758.65650	0.97045
1756.59959	0.96597
1754.54268	0.96188
1752.48577	0.95859
1750.42886	0.95446
1748.37196	0.94948
1746.31505	0.94582
1744.25814	0.94345
1742.20123	0.94110
1740.14432	0.93850
1738.08741	0.93629
1736.03051	0.93474
1733.97360	0.93344
1731.91669	0.93217
1729.85978	0.93100
1727.80287	0.93033
1725.74597	0.93043
1723.68906	0.93122
1721.63215	0.93271
1719.57524	0.93493
1717.51833	0.93782
1715.46142	0.94085
1713.40452	0.94392
1711.34761	0.94734
1709.29070	0.95105
1707.23379	0.95500
1705.17688	0.95912
1703.11998	0.96246
1701.06307	0.96564
1699.00616	0.96928
1696.94925	0.97211
1694.89234	0.97449
1692.83543	0.97614
1690.77853	0.97729
1688.72162	0.97863
1686.66471	0.98033
1684.60780	0.98221
1682.55089	0.98291
1680.49399	0.98274
1678.43708	0.98296
1676.38017	0.98365
1674.32326	0.98390
1672.26635	0.98370
1670.20944	0.98388
1668.15254	0.98378
1666.09563	0.98334
1664.03872	0.98318
1661.98181	0.98312
1659.92490	0.98297
1657.86800	0.98286
1655.81109	0.98301
1653.75418	0.98344
1651.69727	0.98339
1649.64036	0.98308
1647.58345	0.98294
1645.52655	0.98277
1643.46964	0.98263
1641.41273	0.98271
1639.35582	0.98292
1637.29891	0.98316
1635.24201	0.98344
1633.18510	0.98352
1631.12819	0.98345
1629.07128	0.98347
1627.01437	0.98368
1624.95746	0.98421
1622.90056	0.98489
1620.84365	0.98525
1618.78674	0.98567
1616.72983	0.98632
1614.67292	0.98657
1612.61602	0.98682
1610.55911	0.98724
1608.50220	0.98755
1606.44529	0.98797
1604.38838	0.98859
1602.33147	0.98901
1600.27457	0.98910
1598.21766	0.98933
1596.16075	0.98988
1594.10384	0.99040
1592.04693	0.99055
1589.99003	0.99047
1587.93312	0.99055
1585.87621	0.99080
1583.81930	0.99085
1581.76239	0.99065
1579.70548	0.99054
1577.64858	0.99076
1575.59167	0.99101
1573.53476	0.99083
1571.47785	0.99046
1569.42094	0.99005
1567.36404	0.98987
1565.30713	0.99000
1563.25022	0.99017
1561.19331	0.99046
1559.13640	0.99109
1557.07949	0.99083
1555.02259	0.98982
1552.96568	0.98930
1550.90877	0.98938
1548.85186	0.98953
1546.79495	0.98973
1544.73805	0.99007
1542.68114	0.99016
1540.62423	0.99008
1538.56732	0.98991
1536.51041	0.98979
1534.45350	0.98990
1532.39660	0.98979
1530.33969	0.98960
1528.28278	0.98958
1526.22587	0.98938
1524.16896	0.98937
1522.11206	0.98986
1520.05515	0.99009
1517.99824	0.98971
1515.94133	0.98885
1513.88442	0.98815
1511.82751	0.98813
1509.77061	0.98838
1507.71370	0.98843
1505.65679	0.98797
1503.59988	0.98757
1501.54297	0.98759
1499.48607	0.98788
1497.42916	0.98798
1495.37225	0.98760
1493.31534	0.98751
1491.25843	0.98786
1489.20152	0.98778
1487.14462	0.98702
1485.08771	0.98613
1483.03080	0.98516
1480.97389	0.98417
1478.91698	0.98358
1476.86008	0.98370
1474.80317	0.98411
1472.74626	0.98367
1470.68935	0.98233
1468.63244	0.98137
1466.57553	0.98086
1464.51863	0.98017
1462.46172	0.97922
1460.40481	0.97858
1458.34790	0.97799
1456.29099	0.97660
1454.23409	0.97541
1452.17718	0.97473
1450.12027	0.97380
1448.06336	0.97260
1446.00645	0.97138
1443.94954	0.97032
1441.89264	0.96954
1439.83573	0.96897
1437.77882	0.96833
1435.72191	0.96711
1433.66500	0.96602
1431.60810	0.96582
1429.55119	0.96592
1427.49428	0.96574
1425.43737	0.96582
1423.38046	0.96626
1421.32355	0.96656
1419.26665	0.96663
1417.20974	0.96634
1415.15283	0.96595
1413.09592	0.96580
1411.03901	0.96580
1408.98211	0.96584
1406.92520	0.96590
1404.86829	0.96597
1402.81138	0.96618
1400.75447	0.96635
1398.69756	0.96610
1396.64066	0.96547
1394.58375	0.96441
1392.52684	0.96268
1390.46993	0.96071
1388.41302	0.95876
1386.35612	0.95651
1384.29921	0.95381
1382.24230	0.95112
1380.18539	0.94883
1378.12848	0.94664
1376.07157	0.94430
1374.01467	0.94189
1371.95776	0.94002
1369.90085	0.93940
1367.84394	0.94006
1365.78703	0.94156
1363.73013	0.94373
1361.67322	0.94692
1359.61631	0.95062
1357.55940	0.95404
1355.50249	0.95672
1353.44558	0.95860
1351.38868	0.96005
1349.33177	0.96137
1347.27486	0.96247
1345.21795	0.96329
1343.16104	0.96402
1341.10414	0.96462
1339.04723	0.96519
1336.99032	0.96566
1334.93341	0.96557
1332.87650	0.96528
1330.81959	0.96539
1328.76269	0.96563
1326.70578	0.96568
1324.64887	0.96565
1322.59196	0.96586
1320.53505	0.96627
1318.47815	0.96644
1316.42124	0.96644
1314.36433	0.96665
1312.30742	0.96697
1310.25051	0.96728
1308.19360	0.96757
1306.13670	0.96769
1304.07979	0.96777
1302.02288	0.96791
1299.96597	0.96790
1297.90906	0.96780
1295.85216	0.96771
1293.79525	0.96731
1291.73834	0.96646
1289.68143	0.96554
1287.62452	0.96459
1285.56761	0.96338
1283.51071	0.96212
1281.45380	0.96082
1279.39689	0.95929
1277.33998	0.95759
1275.28307	0.95571
1273.22617	0.95362
1271.16926	0.95132
1269.11235	0.94894
1267.05544	0.94665
1264.99853	0.94433
1262.94162	0.94161
1260.88472	0.93843
1258.82781	0.93514
1256.77090	0.93191
1254.71399	0.92874
1252.65708	0.92551
1250.60018	0.92223
1248.54327	0.91914
1246.48636	0.91624
1244.42945	0.91339
1242.37254	0.91058
1240.31563	0.90797
1238.25873	0.90558
1236.20182	0.90339
1234.14491	0.90135
1232.08800	0.89953
1230.03109	0.89808
1227.97419	0.89709
1225.91728	0.89656
1223.86037	0.89684
1221.80346	0.89838
1219.74655	0.90082
1217.68964	0.90394
1215.63274	0.90775
1213.57583	0.91187
1211.51892	0.91591
1209.46201	0.91979
1207.40510	0.92347
1205.34820	0.92682
1203.29129	0.92982
1201.23438	0.93267
1199.17747	0.93552
1197.12056	0.93806
1195.06365	0.94014
1193.00675	0.94201
1190.94984	0.94360
1188.89293	0.94466
1186.83602	0.94516
1184.77911	0.94510
1182.72221	0.94460
1180.66530	0.94382
1178.60839	0.94268
1176.55148	0.94119
1174.49457	0.93951
1172.43766	0.93765
1170.38076	0.93552
1168.32385	0.93330
1166.26694	0.93113
1164.21003	0.92918
1162.15312	0.92782
1160.09622	0.92698
1158.03931	0.92628
1155.98240	0.92574
1153.92549	0.92560
1151.86858	0.92592
1149.81167	0.92640
1147.75477	0.92688
1145.69786	0.92735
1143.64095	0.92732
1141.58404	0.92679
1139.52713	0.92629
1137.47023	0.92578
1135.41332	0.92475
1133.35641	0.92306
1131.29950	0.92106
1129.24259	0.91931
1127.18568	0.91773
1125.12878	0.91595
1123.07187	0.91418
1121.01496	0.91269
1118.95805	0.91144
1116.90114	0.91006
1114.84424	0.90841
1112.78733	0.90685
1110.73042	0.90555
1108.67351	0.90425
1106.61660	0.90309
1104.55969	0.90229
1102.50279	0.90124
1100.44588	0.89964
1098.38897	0.89792
1096.33206	0.89671
1094.27515	0.89579
1092.21825	0.89423
1090.16134	0.89224
1088.10443	0.89021
1086.04752	0.88778
1083.99061	0.88510
1081.93370	0.88275
1079.87680	0.88064
1077.81989	0.87820
1075.76298	0.87539
1073.70607	0.87276
1071.64916	0.87050
1069.59226	0.86864
1067.53535	0.86720
1065.47844	0.86569
1063.42153	0.86386
1061.36462	0.86190
1059.30771	0.86012
1057.25081	0.85874
1055.19390	0.85731
1053.13699	0.85546
1051.08008	0.85380
1049.02317	0.85238
1046.96627	0.85090
1044.90936	0.84931
1042.85245	0.84773
1040.79554	0.84631
1038.73863	0.84460
1036.68172	0.84267
1034.62482	0.84116
1032.56791	0.83977
1030.51100	0.83824
1028.45409	0.83689
1026.39718	0.83580
1024.34028	0.83525
1022.28337	0.83562
1020.22646	0.83632
1018.16955	0.83693
1016.11264	0.83785
1014.05573	0.83939
1011.99883	0.84129
1009.94192	0.84289
1007.88501	0.84421
1005.82810	0.84580
1003.77119	0.84751
1001.71429	0.84899
999.65738	0.85043
997.60047	0.85208
995.54356	0.85388
993.48665	0.85571
991.42974	0.85769
989.37284	0.85998
987.31593	0.86236
985.25902	0.86460
983.20211	0.86680
981.14520	0.86923
979.08830	0.87185
977.03139	0.87434
974.97448	0.87663
972.91757	0.87931
970.86066	0.88237
968.80375	0.88517
966.74685	0.88790
964.68994	0.89100
962.63303	0.89411
960.57612	0.89682
958.51921	0.89937
956.46231	0.90180
954.40540	0.90396
952.34849	0.90598
950.29158	0.90776
948.23467	0.90939
946.17776	0.91110
944.12086	0.91280
942.06395	0.91390
940.00704	0.91428
937.95013	0.91474
935.89322	0.91544
933.83632	0.91610
931.77941	0.91659
929.72250	0.91693
927.66559	0.91707
925.60868	0.91721
923.55177	0.91743
921.49487	0.91745
919.43796	0.91756
917.38105	0.91780
915.32414	0.91744
913.26723	0.91668
911.21033	0.91602
909.15342	0.91537
907.09651	0.91479
905.03960	0.91438
902.98269	0.91369
900.92578	0.91310
898.86888	0.91363
896.81197	0.91489
894.75506	0.91601
892.69815	0.91696
890.64124	0.91768
888.58434	0.91875
886.52743	0.92083
884.47052	0.92308
882.41361	0.92512
880.35670	0.92718
878.29979	0.92898
876.24289	0.93053
874.18598	0.93239
872.12907	0.93471
870.07216	0.93697
868.01525	0.93894
865.95835	0.94081
863.90144	0.94234
861.84453	0.94333
859.78762	0.94429
857.73071	0.94502
855.67380	0.94538
853.61690	0.94569
851.55999	0.94559
849.50308	0.94515
847.44617	0.94506
845.38926	0.94510
843.33236	0.94470
841.27545	0.94451
839.21854	0.94507
837.16163	0.94540
835.10472	0.94505
833.04781	0.94465
830.99091	0.94442
828.93400	0.94472
826.87709	0.94554
824.82018	0.94624
822.76327	0.94659
820.70637	0.94602
818.64946	0.94492
816.59255	0.94465
814.53564	0.94478
812.47873	0.94414
810.42182	0.94316
808.36492	0.94299
806.30801	0.94345
804.25110	0.94351
802.19419	0.94323
800.13728	0.94332
798.08038	0.94369
796.02347	0.94388
793.96656	0.94399
791.90965	0.94412
789.85274	0.94441
787.79583	0.94481
785.73893	0.94507
783.68202	0.94573
781.62511	0.94669
779.56820	0.94708
777.51129	0.94711
775.45439	0.94766
773.39748	0.94868
771.34057	0.94915
769.28366	0.94877
767.22675	0.94847
765.16984	0.94908
763.11294	0.95022
761.05603	0.95085
758.99912	0.95060
756.94221	0.95010
754.88530	0.94960
752.82839	0.94909
750.77149	0.94929
748.71458	0.94982
746.65767	0.94995
744.60076	0.95013
742.54385	0.95049
740.48695	0.95077
738.43004	0.95056
736.37313	0.94981
734.31622	0.94907
732.25931	0.94819
730.20240	0.94721
728.14550	0.94718
726.08859	0.94782
724.03168	0.94762
721.97477	0.94628
719.91786	0.94527
717.86096	0.94528
715.80405	0.94502
713.74714	0.94397
711.69023	0.94317
709.63332	0.94328
707.57641	0.94388
705.51951	0.94411
703.46260	0.94393
701.40569	0.94337
699.34878	0.94229
697.29187	0.94171
695.23497	0.94200
693.17806	0.94170
691.12115	0.93991
689.06424	0.93791
687.00733	0.93700
684.95042	0.93665
682.89352	0.93620
680.83661	0.93574
678.77970	0.93508
676.72279	0.93411
674.66588	0.93342
672.60898	0.93315
670.55207	0.93336
668.49516	0.93414
666.43825	0.93413
664.38134	0.93318
662.32443	0.93285
660.26753	0.93364
658.21062	0.93405
656.15371	0.93321
654.09680	0.93224
652.03989	0.93217
649.98299	0.93209
647.92608	0.93092
645.86917	0.92982
643.81226	0.92925
641.75535	0.92814
639.69844	0.92619
637.64154	0.92470
635.58463	0.92457
633.52772	0.92456
631.47081	0.92417
629.41390	0.92407
627.35700	0.92369
625.30009	0.92263
623.24318	0.92152
621.18627	0.92067
619.12936	0.92002
617.07245	0.91951
615.01555	0.91889
612.95864	0.91777
610.90173	0.91612
608.84482	0.91450
606.78791	0.91277
604.73101	0.91079
602.67410	0.90963
600.61719	0.90898
598.56028	0.90819
596.50337	0.90867
594.44646	0.91032
592.38956	0.91149
590.33265	0.91161
588.27574	0.91144
586.21883	0.91221
584.16192	0.91345
582.10502	0.91440
580.04811	0.91504
577.99120	0.91401
575.93429	0.91134
573.87738	0.90991
571.82047	0.91034
569.76357	0.91076
567.70666	0.91017
565.64975	0.90883
563.59284	0.90805
561.53593	0.90793
559.47903	0.90806
557.42212	0.90867
555.36521	0.90880
553.30830	0.90860
551.25139	0.90890
549.19448	0.90902
547.13758	0.90862
545.08067	0.90845
543.02376	0.90869
540.96685	0.90891
538.90994	0.90839
536.85304	0.90721
534.79613	0.90669
532.73922	0.90652
530.68231	0.90603
528.62540	0.90516
526.56849	0.90433
524.51159	0.90428
522.45468	0.90405
520.39777	0.90281
518.34086	0.90141
516.28395	0.90028
514.22705	0.89926
512.17014	0.89921
510.11323	0.89868
508.05632	0.89544
505.99941	0.89180
503.94250	0.89020
501.88560	0.88985
499.82869	0.88943
497.77178	0.88805
495.71487	0.88623
493.65796	0.88459
491.60106	0.88307
489.54415	0.88160
487.48724	0.87986
485.43033	0.87872
483.37342	0.87770
481.31651	0.87654
479.25961	0.87620
477.20270	0.87489
475.14579	0.87195
473.08888	0.86854
471.03197	0.86662
468.97507	0.86715
466.91816	0.86795
464.86125	0.86817
462.80434	0.86832
460.74743	0.86753
458.69052	0.86593
456.63362	0.86423
454.57671	0.86172
452.51980	0.85947
450.46289	0.85891
448.40598	0.85902
446.34908	0.86023
444.29217	0.86176
442.23526	0.86078
440.17835	0.85984
438.12144	0.86100
436.06453	0.86289
434.00763	0.86231
431.95072	0.85914
429.89381	0.85915
427.83690	0.85974
425.77999	0.85713
423.72309	0.85804
421.66618	0.86356
419.60927	0.86606
417.55236	0.86552
415.49545	0.86662
413.43854	0.86561
411.38164	0.86239
409.32473	0.86074
407.26782	0.86045
405.21091	0.86002
403.15400	0.86015
401.09710	0.86131
399.04019	0.86231
