3996.57260	0.99201
3994.51569	0.99184
3992.45878	0.99176
3990.40188	0.99157
3988.34497	0.99144
3986.28806	0.99148
3984.23115	0.99170
3982.17424	0.99221
3980.11733	0.99226
3978.06043	0.99154
3976.00352	0.99087
3973.94661	0.99073
3971.88970	0.99105
3969.83279	0.99181
3967.77589	0.99264
3965.71898	0.99299
3963.66207	0.99291
3961.60516	0.99272
3959.54825	0.99269
3957.49134	0.99291
3955.43444	0.99286
3953.37753	0.99243
3951.32062	0.99224
3949.26371	0.99254
3947.20680	0.99277
3945.14990	0.99232
3943.09299	0.99163
3941.03608	0.99130
3938.97917	0.99095
3936.92226	0.99069
3934.86535	0.99112
3932.80845	0.99163
3930.75154	0.99165
3928.69463	0.99164
3926.63772	0.99184
3924.58081	0.99215
3922.52391	0.99214
3920.46700	0.99206
3918.41009	0.99245
3916.35318	0.99270
3914.29627	0.99239
3912.23936	0.99208
3910.18246	0.99206
3908.12555	0.99212
3906.06864	0.99191
3904.01173	0.99123
3901.95482	0.99098
3899.89792	0.99198
3897.84101	0.99269
3895.78410	0.99249
3893.72719	0.99226
3891.67028	0.99213
3889.61337	0.99197
3887.55647	0.99198
3885.49956	0.99229
3883.44265	0.99280
3881.38574	0.99306
3879.32883	0.99277
3877.27193	0.99269
3875.21502	0.99300
3873.15811	0.99313
3871.10120	0.99283
3869.04429	0.99218
3866.98738	0.99171
3864.93048	0.99164
3862.87357	0.99186
3860.81666	0.99197
3858.75975	0.99204
3856.70284	0.99199
3854.64594	0.99127
3852.58903	0.99061
3850.53212	0.99072
3848.47521	0.99101
3846.41830	0.99172
3844.36139	0.99267
3842.30449	0.99319
3840.24758	0.99287
3838.19067	0.99207
3836.13376	0.99178
3834.07685	0.99180
3832.01995	0.99166
3829.96304	0.99175
3827.90613	0.99233
3825.84922	0.99259
3823.79231	0.99200
3821.73540	0.99146
3819.67850	0.99173
3817.62159	0.99208
3815.56468	0.99224
3813.50777	0.99235
3811.45086	0.99220
3809.39396	0.99194
3807.33705	0.99184
3805.28014	0.99207
3803.22323	0.99269
3801.16632	0.99337
3799.10941	0.99329
3797.05251	0.99265
3794.99560	0.99231
3792.93869	0.99227
3790.88178	0.99237
3788.82487	0.99286
3786.76796	0.99322
3784.71106	0.99299
3782.65415	0.99289
3780.59724	0.99316
3778.54033	0.99288
3776.48342	0.99196
3774.42652	0.99138
3772.36961	0.99156
3770.31270	0.99242
3768.25579	0.99296
3766.19888	0.99246
3764.14197	0.99203
3762.08507	0.99245
3760.02816	0.99318
3757.97125	0.99365
3755.91434	0.99360
3753.85743	0.99334
3751.80053	0.99372
3749.74362	0.99448
3747.68671	0.99388
3745.62980	0.99240
3743.57289	0.99221
3741.51598	0.99297
3739.45908	0.99303
3737.40217	0.99275
3735.34526	0.99234
3733.28835	0.99168
3731.23144	0.99123
3729.17454	0.99158
3727.11763	0.99243
3725.06072	0.99279
3723.00381	0.99265
3720.94690	0.99266
3718.88999	0.99270
3716.83309	0.99276
3714.77618	0.99297
3712.71927	0.99293
3710.66236	0.99302
3708.60545	0.99350
3706.54855	0.99350
3704.49164	0.99301
3702.43473	0.99233
3700.37782	0.99189
3698.32091	0.99209
3696.26400	0.99267
3694.20710	0.99317
3692.15019	0.99326
3690.09328	0.99261
3688.03637	0.99204
3685.97946	0.99227
3683.92256	0.99220
3681.86565	0.99186
3679.80874	0.99197
3677.75183	0.99198
3675.69492	0.99140
3673.63801	0.99128
3671.58111	0.99116
3669.52420	0.99079
3667.46729	0.99114
3665.41038	0.99184
3663.35347	0.99234
3661.29657	0.99240
3659.23966	0.99232
3657.18275	0.99267
3655.12584	0.99298
3653.06893	0.99244
3651.01202	0.99189
3648.95512	0.99240
3646.89821	0.99268
3644.84130	0.99251
3642.78439	0.99272
3640.72748	0.99289
3638.67058	0.99261
3636.61367	0.99213
3634.55676	0.99194
3632.49985	0.99207
3630.44294	0.99126
3628.38603	0.98955
3626.32913	0.98939
3624.27222	0.98987
3622.21531	0.99004
3620.15840	0.99043
3618.10149	0.99080
3616.04459	0.99055
3613.98768	0.98991
3611.93077	0.98908
3609.87386	0.98855
3607.81695	0.98885
3605.76004	0.98942
3603.70314	0.98954
3601.64623	0.98967
3599.58932	0.98993
3597.53241	0.98970
3595.47550	0.98935
3593.41860	0.98939
3591.36169	0.98920
3589.30478	0.98864
3587.24787	0.98841
3585.19096	0.98859
3583.13405	0.98872
3581.07715	0.98860
3579.02024	0.98821
3576.96333	0.98786
3574.90642	0.98774
3572.84951	0.98771
3570.79261	0.98739
3568.73570	0.98664
3566.67879	0.98568
3564.62188	0.98485
3562.56497	0.98470
3560.50806	0.98519
3558.45116	0.98506
3556.39425	0.98419
3554.33734	0.98377
3552.28043	0.98421
3550.22352	0.98525
3548.16662	0.98575
3546.10971	0.98509
3544.05280	0.98435
3541.99589	0.98425
3539.93898	0.98411
3537.88207	0.98349
3535.82517	0.98265
3533.76826	0.98232
3531.71135	0.98251
3529.65444	0.98220
3527.59753	0.98123
3525.54063	0.98060
3523.48372	0.98044
3521.42681	0.97991
3519.36990	0.97944
3517.31299	0.97959
3515.25608	0.97984
3513.19918	0.98006
3511.14227	0.98024
3509.08536	0.98000
3507.02845	0.97963
3504.97154	0.97936
3502.91464	0.97852
3500.85773	0.97760
3498.80082	0.97739
3496.74391	0.97728
3494.68700	0.97684
3492.63009	0.97622
3490.57319	0.97605
3488.51628	0.97644
3486.45937	0.97635
3484.40246	0.97588
3482.34555	0.97586
3480.28865	0.97625
3478.23174	0.97656
3476.17483	0.97657
3474.11792	0.97623
3472.06101	0.97601
3470.00410	0.97607
3467.94720	0.97582
3465.89029	0.97559
3463.83338	0.97562
3461.77647	0.97555
3459.71956	0.97556
3457.66266	0.97566
3455.60575	0.97563
3453.54884	0.97546
3451.49193	0.97526
3449.43502	0.97518
3447.37811	0.97516
3445.32121	0.97494
3443.26430	0.97483
3441.20739	0.97496
3439.15048	0.97496
3437.09357	0.97479
3435.03667	0.97442
3432.97976	0.97414
3430.92285	0.97444
3428.86594	0.97484
3426.80903	0.97498
3424.75212	0.97508
3422.69522	0.97506
3420.63831	0.97515
3418.58140	0.97549
3416.52449	0.97580
3414.46758	0.97595
3412.41068	0.97562
3410.35377	0.97508
3408.29686	0.97490
3406.23995	0.97483
3404.18304	0.97443
3402.12613	0.97399
3400.06923	0.97412
3398.01232	0.97473
3395.95541	0.97548
3393.89850	0.97617
3391.84159	0.97656
3389.78469	0.97632
3387.72778	0.97553
3385.67087	0.97538
3383.61396	0.97590
3381.55705	0.97594
3379.50014	0.97592
3377.44324	0.97603
3375.38633	0.97587
3373.32942	0.97599
3371.27251	0.97655
3369.21560	0.97710
3367.15870	0.97720
3365.10179	0.97663
3363.04488	0.97591
3360.98797	0.97574
3358.93106	0.97624
3356.87415	0.97686
3354.81725	0.97712
3352.76034	0.97728
3350.70343	0.97756
3348.64652	0.97779
3346.58961	0.97785
3344.53271	0.97796
3342.47580	0.97822
3340.41889	0.97840
3338.36198	0.97814
3336.30507	0.97779
3334.24816	0.97815
3332.19126	0.97877
3330.13435	0.97882
3328.07744	0.97840
3326.02053	0.97791
3323.96362	0.97785
3321.90672	0.97851
3319.84981	0.97907
3317.79290	0.97887
3315.73599	0.97875
3313.67908	0.97900
3311.62217	0.97877
3309.56527	0.97824
3307.50836	0.97845
3305.45145	0.97922
3303.39454	0.97986
3301.33763	0.98027
3299.28073	0.98054
3297.22382	0.98076
3295.16691	0.98077
3293.11000	0.98036
3291.05309	0.98000
3288.99618	0.97992
3286.93928	0.98004
3284.88237	0.98040
3282.82546	0.98054
3280.76855	0.98042
3278.71164	0.98026
3276.65474	0.97984
3274.59783	0.97968
3272.54092	0.98012
3270.48401	0.98061
3268.42710	0.98091
3266.37019	0.98092
3264.31329	0.98084
3262.25638	0.98115
3260.19947	0.98152
3258.14256	0.98159
3256.08565	0.98161
3254.02875	0.98196
3251.97184	0.98267
3249.91493	0.98302
3247.85802	0.98257
3245.80111	0.98194
3243.74420	0.98185
3241.68730	0.98242
3239.63039	0.98295
3237.57348	0.98301
3235.51657	0.98303
3233.45966	0.98302
3231.40276	0.98287
3229.34585	0.98283
3227.28894	0.98314
3225.23203	0.98360
3223.17512	0.98359
3221.11821	0.98318
3219.06131	0.98324
3217.00440	0.98377
3214.94749	0.98407
3212.89058	0.98401
3210.83367	0.98359
3208.77677	0.98324
3206.71986	0.98363
3204.66295	0.98419
3202.60604	0.98453
3200.54913	0.98510
3198.49222	0.98580
3196.43532	0.98613
3194.37841	0.98613
3192.32150	0.98595
3190.26459	0.98548
3188.20768	0.98513
3186.15078	0.98531
3184.09387	0.98565
3182.03696	0.98589
3179.98005	0.98590
3177.92314	0.98577
3175.86623	0.98576
3173.80933	0.98568
3171.75242	0.98541
3169.69551	0.98511
3167.63860	0.98524
3165.58169	0.98594
3163.52479	0.98667
3161.46788	0.98712
3159.41097	0.98715
3157.35406	0.98685
3155.29715	0.98664
3153.24024	0.98661
3151.18334	0.98659
3149.12643	0.98638
3147.06952	0.98607
3145.01261	0.98603
3142.95570	0.98627
3140.89880	0.98674
3138.84189	0.98731
3136.78498	0.98750
3134.72807	0.98775
3132.67116	0.98827
3130.61425	0.98826
3128.55735	0.98761
3126.50044	0.98694
3124.44353	0.98687
3122.38662	0.98730
3120.32971	0.98771
3118.27281	0.98801
3116.21590	0.98822
3114.15899	0.98811
3112.10208	0.98758
3110.04517	0.98719
3107.98826	0.98710
3105.93136	0.98694
3103.87445	0.98719
3101.81754	0.98799
3099.76063	0.98834
3097.70372	0.98826
3095.64682	0.98850
3093.58991	0.98882
3091.53300	0.98878
3089.47609	0.98847
3087.41918	0.98829
3085.36227	0.98834
3083.30537	0.98836
3081.24846	0.98811
3079.19155	0.98784
3077.13464	0.98799
3075.07773	0.98821
3073.02083	0.98805
3070.96392	0.98809
3068.90701	0.98852
3066.85010	0.98875
3064.79319	0.98871
3062.73628	0.98869
3060.67938	0.98868
3058.62247	0.98849
3056.56556	0.98812
3054.50865	0.98776
3052.45174	0.98764
3050.39484	0.98794
3048.33793	0.98837
3046.28102	0.98856
3044.22411	0.98863
3042.16720	0.98869
3040.11029	0.98868
3038.05339	0.98895
3035.99648	0.98953
3033.93957	0.98973
3031.88266	0.98963
3029.82575	0.98960
3027.76885	0.98940
3025.71194	0.98916
3023.65503	0.98925
3021.59812	0.98920
3019.54121	0.98886
3017.48430	0.98887
3015.42740	0.98928
3013.37049	0.98963
3011.31358	0.98965
3009.25667	0.98950
3007.19976	0.98925
3005.14286	0.98872
3003.08595	0.98842
3001.02904	0.98853
2998.97213	0.98847
2996.91522	0.98827
2994.85831	0.98826
2992.80141	0.98837
2990.74450	0.98829
2988.68759	0.98789
2986.63068	0.98755
2984.57377	0.98756
2982.51687	0.98767
2980.45996	0.98755
2978.40305	0.98719
2976.34614	0.98689
2974.28923	0.98684
2972.23232	0.98711
2970.17542	0.98730
2968.11851	0.98699
2966.06160	0.98642
2964.00469	0.98609
2961.94778	0.98616
2959.89088	0.98644
2957.83397	0.98679
2955.77706	0.98689
2953.72015	0.98647
2951.66324	0.98599
2949.60633	0.98575
2947.54943	0.98542
2945.49252	0.98494
2943.43561	0.98455
2941.37870	0.98422
2939.32179	0.98398
2937.26489	0.98406
2935.20798	0.98441
2933.15107	0.98472
2931.09416	0.98490
2929.03725	0.98512
2926.98034	0.98515
2924.92344	0.98473
2922.86653	0.98442
2920.80962	0.98452
2918.75271	0.98451
2916.69580	0.98425
2914.63890	0.98408
2912.58199	0.98398
2910.52508	0.98372
2908.46817	0.98332
2906.41126	0.98318
2904.35435	0.98335
2902.29745	0.98345
2900.24054	0.98319
2898.18363	0.98284
2896.12672	0.98297
2894.06981	0.98339
2892.01291	0.98330
2889.95600	0.98286
2887.89909	0.98279
2885.84218	0.98289
2883.78527	0.98269
2881.72836	0.98256
2879.67146	0.98293
2877.61455	0.98332
2875.55764	0.98315
2873.50073	0.98281
2871.44382	0.98298
2869.38692	0.98351
2867.33001	0.98386
2865.27310	0.98398
2863.21619	0.98438
2861.15928	0.98540
2859.10237	0.98619
2857.04547	0.98618
2854.98856	0.98596
2852.93165	0.98587
2850.87474	0.98589
2848.81783	0.98622
2846.76093	0.98662
2844.70402	0.98674
2842.64711	0.98671
2840.59020	0.98681
2838.53329	0.98722
2836.47638	0.98768
2834.41948	0.98785
2832.36257	0.98773
2830.30566	0.98762
2828.24875	0.98780
2826.19184	0.98804
2824.13494	0.98808
2822.07803	0.98796
2820.02112	0.98809
2817.96421	0.98859
2815.90730	0.98913
2813.85039	0.98939
2811.79349	0.98919
2809.73658	0.98878
2807.67967	0.98853
2805.62276	0.98852
2803.56585	0.98855
2801.50895	0.98825
2799.45204	0.98804
2797.39513	0.98829
2795.33822	0.98858
2793.28131	0.98896
2791.22440	0.98926
2789.16750	0.98926
2787.11059	0.98916
2785.05368	0.98894
2782.99677	0.98878
2780.93986	0.98908
2778.88296	0.98946
2776.82605	0.98939
2774.76914	0.98915
2772.71223	0.98898
2770.65532	0.98872
2768.59841	0.98824
2766.54151	0.98800
2764.48460	0.98843
2762.42769	0.98887
2760.37078	0.98899
2758.31387	0.98911
2756.25697	0.98912
2754.20006	0.98913
2752.14315	0.98933
2750.08624	0.98959
2748.02933	0.98949
2745.97242	0.98906
2743.91552	0.98893
2741.85861	0.98899
2739.80170	0.98899
2737.74479	0.98928
2735.68788	0.98987
2733.63098	0.99013
2731.57407	0.99000
2729.51716	0.98983
2727.46025	0.98954
2725.40334	0.98926
2723.34643	0.98917
2721.28953	0.98916
2719.23262	0.98922
2717.17571	0.98918
2715.11880	0.98896
2713.06189	0.98890
2711.00499	0.98902
2708.94808	0.98890
2706.89117	0.98894
2704.83426	0.98949
2702.77735	0.98984
2700.72044	0.98978
2698.66354	0.98993
2696.60663	0.98995
2694.54972	0.98960
2692.49281	0.98934
2690.43590	0.98927
2688.37900	0.98933
2686.32209	0.98949
2684.26518	0.98966
2682.20827	0.98950
2680.15136	0.98925
2678.09445	0.98952
2676.03755	0.98986
2673.98064	0.98963
2671.92373	0.98916
2669.86682	0.98916
2667.80991	0.98948
2665.75301	0.98939
2663.69610	0.98908
2661.63919	0.98908
2659.58228	0.98917
2657.52537	0.98920
2655.46846	0.98916
2653.41156	0.98898
2651.35465	0.98871
2649.29774	0.98866
2647.24083	0.98898
2645.18392	0.98923
2643.12702	0.98907
2641.07011	0.98883
2639.01320	0.98882
2636.95629	0.98892
2634.89938	0.98892
2632.84247	0.98901
2630.78557	0.98926
2628.72866	0.98932
2626.67175	0.98936
2624.61484	0.98958
2622.55793	0.98958
2620.50103	0.98945
2618.44412	0.98942
2616.38721	0.98953
2614.33030	0.98983
2612.27339	0.98991
2610.21648	0.98979
2608.15958	0.98984
2606.10267	0.98975
2604.04576	0.98937
2601.98885	0.98917
2599.93194	0.98910
2597.87504	0.98891
2595.81813	0.98904
2593.76122	0.98958
2591.70431	0.99016
2589.64740	0.99062
2587.59049	0.99064
2585.53359	0.99023
2583.47668	0.98995
2581.41977	0.99002
2579.36286	0.99032
2577.30595	0.99068
2575.24905	0.99099
2573.19214	0.99128
2571.13523	0.99160
2569.07832	0.99140
2567.02141	0.99039
2564.96450	0.98979
2562.90760	0.99028
2560.85069	0.99090
2558.79378	0.99115
2556.73687	0.99108
2554.67996	0.99075
2552.62306	0.99047
2550.56615	0.99027
2548.50924	0.99011
2546.45233	0.99011
2544.39542	0.99022
2542.33851	0.99038
2540.28161	0.99067
2538.22470	0.99100
2536.16779	0.99101
2534.11088	0.99045
2532.05397	0.98998
2529.99707	0.99029
2527.94016	0.99081
2525.88325	0.99108
2523.82634	0.99129
2521.76943	0.99104
2519.71252	0.99037
2517.65562	0.99008
2515.59871	0.99016
2513.54180	0.99044
2511.48489	0.99070
2509.42798	0.99054
2507.37108	0.99032
2505.31417	0.99042
2503.25726	0.99053
2501.20035	0.99045
2499.14344	0.99041
2497.08653	0.99051
2495.02963	0.99059
2492.97272	0.99024
2490.91581	0.98959
2488.85890	0.98947
2486.80199	0.98998
2484.74509	0.99062
2482.68818	0.99095
2480.63127	0.99127
2478.57436	0.99172
2476.51745	0.99151
2474.46054	0.99079
2472.40364	0.99053
2470.34673	0.99070
2468.28982	0.99059
2466.23291	0.99032
2464.17600	0.99041
2462.11910	0.99077
2460.06219	0.99118
2458.00528	0.99132
2455.94837	0.99134
2453.89146	0.99170
2451.83455	0.99172
2449.77765	0.99109
2447.72074	0.99060
2445.66383	0.99051
2443.60692	0.99038
2441.55001	0.99045
2439.49311	0.99103
2437.43620	0.99146
2435.37929	0.99146
2433.32238	0.99123
2431.26547	0.99109
2429.20856	0.99141
2427.15166	0.99177
2425.09475	0.99163
2423.03784	0.99131
2420.98093	0.99143
2418.92402	0.99172
2416.86712	0.99160
2414.81021	0.99137
2412.75330	0.99139
2410.69639	0.99158
2408.63948	0.99184
2406.58257	0.99193
2404.52567	0.99169
2402.46876	0.99112
2400.41185	0.99045
2398.35494	0.99021
2396.29803	0.99064
2394.24113	0.99111
2392.18422	0.99154
2390.12731	0.99199
2388.07040	0.99167
2386.01349	0.99095
2383.95658	0.99085
2381.89968	0.99123
2379.84277	0.99157
2377.78586	0.99139
2375.72895	0.99095
2373.67204	0.99107
2371.61514	0.99150
2369.55823	0.99158
2367.50132	0.99143
2365.44441	0.99124
2363.38750	0.99168
2361.33059	0.99245
2359.27369	0.99227
2357.21678	0.99187
2355.15987	0.99223
2353.10296	0.99311
2351.04605	0.99365
2348.98915	0.99301
2346.93224	0.99177
2344.87533	0.99126
2342.81842	0.99134
2340.76151	0.99152
2338.70460	0.99165
2336.64770	0.99108
2334.59079	0.99043
2332.53388	0.99075
2330.47697	0.99202
2328.42006	0.99241
2326.36316	0.99059
2324.30625	0.98862
2322.24934	0.98864
2320.19243	0.98947
2318.13552	0.98943
2316.07861	0.98897
2314.02171	0.98931
2311.96480	0.99015
2309.90789	0.99047
2307.85098	0.99055
2305.79407	0.99077
2303.73717	0.99104
2301.68026	0.99100
2299.62335	0.99023
2297.56644	0.98963
2295.50953	0.99012
2293.45262	0.99070
2291.39572	0.99058
2289.33881	0.99030
2287.28190	0.99030
2285.22499	0.99092
2283.16808	0.99186
2281.11117	0.99200
2279.05427	0.99136
2276.99736	0.99129
2274.94045	0.99163
2272.88354	0.99119
2270.82663	0.99047
2268.76973	0.99016
2266.71282	0.99039
2264.65591	0.99125
2262.59900	0.99176
2260.54209	0.99127
2258.48518	0.99036
2256.42828	0.98961
2254.37137	0.98964
2252.31446	0.99041
2250.25755	0.99098
2248.20064	0.99054
2246.14374	0.98992
2244.08683	0.99033
2242.02992	0.99087
2239.97301	0.99045
2237.91610	0.98935
2235.85919	0.98907
2233.80229	0.98975
2231.74538	0.98967
2229.68847	0.98936
2227.63156	0.99037
2225.57465	0.99204
2223.51775	0.99287
2221.46084	0.99275
2219.40393	0.99206
2217.34702	0.99130
2215.29011	0.99093
2213.23320	0.99018
2211.17630	0.98912
2209.11939	0.98867
2207.06248	0.98864
2205.00557	0.98948
2202.94866	0.99086
2200.89176	0.99072
2198.83485	0.98944
2196.77794	0.98987
2194.72103	0.99287
2192.66412	0.99552
2190.60721	0.99484
2188.55031	0.99244
2186.49340	0.99154
2184.43649	0.99136
2182.37958	0.99069
2180.32267	0.99090
2178.26577	0.99192
2176.20886	0.99212
2174.15195	0.99149
2172.09504	0.99167
2170.03813	0.99173
2167.98122	0.99038
2165.92432	0.98932
2163.86741	0.98835
2161.81050	0.98691
2159.75359	0.98837
2157.69668	0.99303
2155.63978	0.99692
2153.58287	0.99818
2151.52596	0.99594
2149.46905	0.99271
2147.41214	0.99304
2145.35523	0.99594
2143.29833	0.99796
2141.24142	0.99772
2139.18451	0.99533
2137.12760	0.99339
2135.07069	0.99381
2133.01379	0.99474
2130.95688	0.99501
2128.89997	0.99450
2126.84306	0.99285
2124.78615	0.99151
2122.72924	0.99142
2120.67234	0.99150
2118.61543	0.99138
2116.55852	0.99097
2114.50161	0.99015
2112.44470	0.98941
2110.38780	0.98920
2108.33089	0.98942
2106.27398	0.99029
2104.21707	0.99190
2102.16016	0.99279
2100.10325	0.99231
2098.04635	0.99202
2095.98944	0.99284
2093.93253	0.99357
2091.87562	0.99282
2089.81871	0.99122
2087.76181	0.99047
2085.70490	0.99161
2083.64799	0.99354
2081.59108	0.99339
2079.53417	0.99082
2077.47726	0.98863
2075.42036	0.98845
2073.36345	0.98945
2071.30654	0.99009
2069.24963	0.99045
2067.19272	0.99130
2065.13582	0.99238
2063.07891	0.99326
2061.02200	0.99346
2058.96509	0.99253
2056.90818	0.99088
2054.85127	0.98953
2052.79437	0.98854
2050.73746	0.98782
2048.68055	0.98819
2046.62364	0.98946
2044.56673	0.99095
2042.50983	0.99244
2040.45292	0.99390
2038.39601	0.99477
2036.33910	0.99291
2034.28219	0.98964
2032.22528	0.98853
2030.16838	0.98857
2028.11147	0.98985
2026.05456	0.99323
2023.99765	0.99567
2021.94074	0.99567
2019.88384	0.99425
2017.82693	0.99224
2015.77002	0.99103
2013.71311	0.99257
2011.65620	0.99501
2009.59929	0.99524
2007.54239	0.99560
2005.48548	0.99676
2003.42857	0.99592
2001.37166	0.99353
1999.31475	0.99192
1997.25785	0.99213
1995.20094	0.99368
1993.14403	0.99510
1991.08712	0.99486
1989.03021	0.99388
1986.97330	0.99335
1984.91640	0.99282
1982.85949	0.99240
1980.80258	0.99279
1978.74567	0.99428
1976.68876	0.99552
1974.63186	0.99507
1972.57495	0.99221
1970.51804	0.98850
1968.46113	0.98828
1966.40422	0.99166
1964.34731	0.99361
1962.29041	0.99234
1960.23350	0.99085
1958.17659	0.99054
1956.11968	0.99108
1954.06277	0.99327
1952.00587	0.99521
1949.94896	0.99433
1947.89205	0.99246
1945.83514	0.99233
1943.77823	0.99357
1941.72132	0.99448
1939.66442	0.99510
1937.60751	0.99581
1935.55060	0.99592
1933.49369	0.99523
1931.43678	0.99411
1929.37988	0.99340
1927.32297	0.99361
1925.26606	0.99359
1923.20915	0.99301
1921.15224	0.99241
1919.09533	0.99210
1917.03843	0.99252
1914.98152	0.99308
1912.92461	0.99331
1910.86770	0.99309
1908.81079	0.99277
1906.75389	0.99327
1904.69698	0.99369
1902.64007	0.99331
1900.58316	0.99319
1898.52625	0.99335
1896.46934	0.99335
1894.41244	0.99369
1892.35553	0.99369
1890.29862	0.99284
1888.24171	0.99248
1886.18480	0.99302
1884.12790	0.99351
1882.07099	0.99387
1880.01408	0.99428
1877.95717	0.99407
1875.90026	0.99323
1873.84335	0.99234
1871.78645	0.99175
1869.72954	0.99178
1867.67263	0.99233
1865.61572	0.99270
1863.55881	0.99266
1861.50191	0.99258
1859.44500	0.99267
1857.38809	0.99315
1855.33118	0.99389
1853.27427	0.99397
1851.21736	0.99360
1849.16046	0.99363
1847.10355	0.99332
1845.04664	0.99242
1842.98973	0.99229
1840.93282	0.99270
1838.87592	0.99303
1836.81901	0.99353
1834.76210	0.99393
1832.70519	0.99362
1830.64828	0.99265
1828.59137	0.99209
1826.53447	0.99222
1824.47756	0.99237
1822.42065	0.99273
1820.36374	0.99332
1818.30683	0.99372
1816.24993	0.99378
1814.19302	0.99342
1812.13611	0.99316
1810.07920	0.99320
1808.02229	0.99294
1805.96538	0.99242
1803.90848	0.99218
1801.85157	0.99223
1799.79466	0.99225
1797.73775	0.99219
1795.68084	0.99199
1793.62394	0.99170
1791.56703	0.99160
1789.51012	0.99170
1787.45321	0.99185
1785.39630	0.99198
1783.33939	0.99180
1781.28249	0.99150
1779.22558	0.99136
1777.16867	0.99094
1775.11176	0.99003
1773.05485	0.98908
1770.99795	0.98833
1768.94104	0.98728
1766.88413	0.98568
1764.82722	0.98348
1762.77031	0.98039
1760.71340	0.97678
1758.65650	0.97350
1756.59959	0.97013
1754.54268	0.96691
1752.48577	0.96391
1750.42886	0.96043
1748.37196	0.95706
1746.31505	0.95445
1744.25814	0.95213
1742.20123	0.94979
1740.14432	0.94765
1738.08741	0.94648
1736.03051	0.94610
1733.97360	0.94536
1731.91669	0.94454
1729.85978	0.94427
1727.80287	0.94417
1725.74597	0.94428
1723.68906	0.94477
1721.63215	0.94575
1719.57524	0.94730
1717.51833	0.94943
1715.46142	0.95156
1713.40452	0.95362
1711.34761	0.95596
1709.29070	0.95847
1707.23379	0.96123
1705.17688	0.96431
1703.11998	0.96698
1701.06307	0.96945
1699.00616	0.97213
1696.94925	0.97425
1694.89234	0.97595
1692.83543	0.97731
1690.77853	0.97853
1688.72162	0.97966
1686.66471	0.98050
1684.60780	0.98117
1682.55089	0.98157
1680.49399	0.98185
1678.43708	0.98225
1676.38017	0.98272
1674.32326	0.98320
1672.26635	0.98350
1670.20944	0.98364
1668.15254	0.98353
1666.09563	0.98316
1664.03872	0.98296
1661.98181	0.98316
1659.92490	0.98334
1657.86800	0.98329
1655.81109	0.98309
1653.75418	0.98266
1651.69727	0.98285
1649.64036	0.98358
1647.58345	0.98384
1645.52655	0.98357
1643.46964	0.98354
1641.41273	0.98380
1639.35582	0.98389
1637.29891	0.98366
1635.24201	0.98348
1633.18510	0.98368
1631.12819	0.98395
1629.07128	0.98411
1627.01437	0.98432
1624.95746	0.98451
1622.90056	0.98449
1620.84365	0.98449
1618.78674	0.98465
1616.72983	0.98478
1614.67292	0.98502
1612.61602	0.98557
1610.55911	0.98613
1608.50220	0.98640
1606.44529	0.98644
1604.38838	0.98658
1602.33147	0.98689
1600.27457	0.98707
1598.21766	0.98712
1596.16075	0.98720
1594.10384	0.98727
1592.04693	0.98745
1589.99003	0.98768
1587.93312	0.98772
1585.87621	0.98773
1583.81930	0.98794
1581.76239	0.98818
1579.70548	0.98835
1577.64858	0.98850
1575.59167	0.98854
1573.53476	0.98828
1571.47785	0.98797
1569.42094	0.98797
1567.36404	0.98829
1565.30713	0.98866
1563.25022	0.98899
1561.19331	0.98905
1559.13640	0.98861
1557.07949	0.98826
1555.02259	0.98825
1552.96568	0.98840
1550.90877	0.98863
1548.85186	0.98868
1546.79495	0.98849
1544.73805	0.98816
1542.68114	0.98801
1540.62423	0.98819
1538.56732	0.98813
1536.51041	0.98807
1534.45350	0.98837
1532.39660	0.98857
1530.33969	0.98836
1528.28278	0.98825
1526.22587	0.98832
1524.16896	0.98806
1522.11206	0.98756
1520.05515	0.98762
1517.99824	0.98802
1515.94133	0.98814
1513.88442	0.98779
1511.82751	0.98720
1509.77061	0.98656
1507.71370	0.98628
1505.65679	0.98707
1503.59988	0.98768
1501.54297	0.98772
1499.48607	0.98759
1497.42916	0.98732
1495.37225	0.98690
1493.31534	0.98636
1491.25843	0.98572
1489.20152	0.98527
1487.14462	0.98539
1485.08771	0.98574
1483.03080	0.98585
1480.97389	0.98561
1478.91698	0.98517
1476.86008	0.98453
1474.80317	0.98376
1472.74626	0.98286
1470.68935	0.98192
1468.63244	0.98138
1466.57553	0.98084
1464.51863	0.97995
1462.46172	0.97916
1460.40481	0.97854
1458.34790	0.97765
1456.29099	0.97674
1454.23409	0.97629
1452.17718	0.97585
1450.12027	0.97534
1448.06336	0.97480
1446.00645	0.97406
1443.94954	0.97330
1441.89264	0.97262
1439.83573	0.97182
1437.77882	0.97094
1435.72191	0.97005
1433.66500	0.96923
1431.60810	0.96858
1429.55119	0.96829
1427.49428	0.96836
1425.43737	0.96842
1423.38046	0.96854
1421.32355	0.96874
1419.26665	0.96872
1417.20974	0.96861
1415.15283	0.96864
1413.09592	0.96856
1411.03901	0.96845
1408.98211	0.96855
1406.92520	0.96868
1404.86829	0.96854
1402.81138	0.96822
1400.75447	0.96786
1398.69756	0.96749
1396.64066	0.96691
1394.58375	0.96589
1392.52684	0.96488
1390.46993	0.96399
1388.41302	0.96276
1386.35612	0.96106
1384.29921	0.95933
1382.24230	0.95755
1380.18539	0.95534
1378.12848	0.95293
1376.07157	0.95087
1374.01467	0.94920
1371.95776	0.94800
1369.90085	0.94754
1367.84394	0.94792
1365.78703	0.94909
1363.73013	0.95087
1361.67322	0.95326
1359.61631	0.95596
1357.55940	0.95860
1355.50249	0.96110
1353.44558	0.96317
1351.38868	0.96446
1349.33177	0.96523
1347.27486	0.96603
1345.21795	0.96691
1343.16104	0.96764
1341.10414	0.96802
1339.04723	0.96823
1336.99032	0.96857
1334.93341	0.96884
1332.87650	0.96898
1330.81959	0.96911
1328.76269	0.96912
1326.70578	0.96910
1324.64887	0.96933
1322.59196	0.96964
1320.53505	0.96969
1318.47815	0.96967
1316.42124	0.96968
1314.36433	0.96968
1312.30742	0.96991
1310.25051	0.97035
1308.19360	0.97060
1306.13670	0.97068
1304.07979	0.97097
1302.02288	0.97130
1299.96597	0.97117
1297.90906	0.97077
1295.85216	0.97057
1293.79525	0.97045
1291.73834	0.97013
1289.68143	0.96966
1287.62452	0.96902
1285.56761	0.96822
1283.51071	0.96731
1281.45380	0.96625
1279.39689	0.96498
1277.33998	0.96365
1275.28307	0.96216
1273.22617	0.96031
1271.16926	0.95835
1269.11235	0.95649
1267.05544	0.95451
1264.99853	0.95233
1262.94162	0.95019
1260.88472	0.94792
1258.82781	0.94523
1256.77090	0.94247
1254.71399	0.93993
1252.65708	0.93745
1250.60018	0.93480
1248.54327	0.93184
1246.48636	0.92882
1244.42945	0.92636
1242.37254	0.92431
1240.31563	0.92193
1238.25873	0.91916
1236.20182	0.91654
1234.14491	0.91437
1232.08800	0.91273
1230.03109	0.91170
1227.97419	0.91120
1225.91728	0.91088
1223.86037	0.91083
1221.80346	0.91178
1219.74655	0.91385
1217.68964	0.91636
1215.63274	0.91905
1213.57583	0.92205
1211.51892	0.92533
1209.46201	0.92857
1207.40510	0.93148
1205.34820	0.93402
1203.29129	0.93623
1201.23438	0.93830
1199.17747	0.94035
1197.12056	0.94230
1195.06365	0.94417
1193.00675	0.94570
1190.94984	0.94697
1188.89293	0.94817
1186.83602	0.94876
1184.77911	0.94866
1182.72221	0.94809
1180.66530	0.94698
1178.60839	0.94557
1176.55148	0.94431
1174.49457	0.94323
1172.43766	0.94207
1170.38076	0.94061
1168.32385	0.93885
1166.26694	0.93704
1164.21003	0.93525
1162.15312	0.93348
1160.09622	0.93202
1158.03931	0.93107
1155.98240	0.93073
1153.92549	0.93108
1151.86858	0.93163
1149.81167	0.93176
1147.75477	0.93169
1145.69786	0.93173
1143.64095	0.93170
1141.58404	0.93139
1139.52713	0.93041
1137.47023	0.92888
1135.41332	0.92739
1133.35641	0.92597
1131.29950	0.92442
1129.24259	0.92284
1127.18568	0.92125
1125.12878	0.91945
1123.07187	0.91738
1121.01496	0.91552
1118.95805	0.91418
1116.90114	0.91303
1114.84424	0.91201
1112.78733	0.91087
1110.73042	0.90925
1108.67351	0.90749
1106.61660	0.90598
1104.55969	0.90491
1102.50279	0.90413
1100.44588	0.90316
1098.38897	0.90193
1096.33206	0.90042
1094.27515	0.89859
1092.21825	0.89685
1090.16134	0.89556
1088.10443	0.89427
1086.04752	0.89266
1083.99061	0.89076
1081.93370	0.88838
1079.87680	0.88587
1077.81989	0.88363
1075.76298	0.88150
1073.70607	0.87963
1071.64916	0.87802
1069.59226	0.87646
1067.53535	0.87495
1065.47844	0.87344
1063.42153	0.87200
1061.36462	0.87069
1059.30771	0.86926
1057.25081	0.86785
1055.19390	0.86691
1053.13699	0.86605
1051.08008	0.86462
1049.02317	0.86292
1046.96627	0.86158
1044.90936	0.86063
1042.85245	0.85976
1040.79554	0.85874
1038.73863	0.85725
1036.68172	0.85566
1034.62482	0.85464
1032.56791	0.85424
1030.51100	0.85409
1028.45409	0.85392
1026.39718	0.85373
1024.34028	0.85376
1022.28337	0.85432
1020.22646	0.85530
1018.16955	0.85665
1016.11264	0.85841
1014.05573	0.86020
1011.99883	0.86169
1009.94192	0.86285
1007.88501	0.86389
1005.82810	0.86509
1003.77119	0.86665
1001.71429	0.86830
999.65738	0.86986
997.60047	0.87178
995.54356	0.87400
993.48665	0.87605
991.42974	0.87794
989.37284	0.87975
987.31593	0.88165
985.25902	0.88370
983.20211	0.88548
981.14520	0.88713
979.08830	0.88932
977.03139	0.89179
974.97448	0.89388
972.91757	0.89579
970.86066	0.89821
968.80375	0.90099
966.74685	0.90336
964.68994	0.90540
962.63303	0.90752
960.57612	0.90957
958.51921	0.91137
956.46231	0.91302
954.40540	0.91487
952.34849	0.91674
950.29158	0.91820
948.23467	0.91935
946.17776	0.92061
944.12086	0.92191
942.06395	0.92274
940.00704	0.92342
937.95013	0.92433
935.89322	0.92500
933.83632	0.92525
931.77941	0.92532
929.72250	0.92533
927.66559	0.92549
925.60868	0.92600
923.55177	0.92640
921.49487	0.92623
919.43796	0.92621
917.38105	0.92671
915.32414	0.92683
913.26723	0.92632
911.21033	0.92584
909.15342	0.92557
907.09651	0.92518
905.03960	0.92468
902.98269	0.92460
900.92578	0.92496
898.86888	0.92527
896.81197	0.92568
894.75506	0.92621
892.69815	0.92634
890.64124	0.92661
888.58434	0.92796
886.52743	0.92973
884.47052	0.93092
882.41361	0.93209
880.35670	0.93357
878.29979	0.93487
876.24289	0.93610
874.18598	0.93749
872.12907	0.93925
870.07216	0.94137
868.01525	0.94315
865.95835	0.94427
863.90144	0.94532
861.84453	0.94679
859.78762	0.94824
857.73071	0.94911
855.67380	0.94968
853.61690	0.94983
851.55999	0.94944
849.50308	0.94911
847.44617	0.94913
845.38926	0.94943
843.33236	0.94990
841.27545	0.94990
839.21854	0.94913
837.16163	0.94843
835.10472	0.94832
833.04781	0.94838
830.99091	0.94842
828.93400	0.94880
826.87709	0.94955
824.82018	0.94985
822.76327	0.94943
820.70637	0.94902
818.64946	0.94891
816.59255	0.94899
814.53564	0.94922
812.47873	0.94933
810.42182	0.94918
808.36492	0.94882
806.30801	0.94816
804.25110	0.94782
802.19419	0.94846
800.13728	0.94913
798.08038	0.94878
796.02347	0.94826
793.96656	0.94837
791.90965	0.94864
789.85274	0.94872
787.79583	0.94883
785.73893	0.94967
783.68202	0.95107
781.62511	0.95154
779.56820	0.95142
777.51129	0.95190
775.45439	0.95282
773.39748	0.95380
771.34057	0.95441
769.28366	0.95445
767.22675	0.95453
765.16984	0.95491
763.11294	0.95544
761.05603	0.95578
758.99912	0.95588
756.94221	0.95591
754.88530	0.95573
752.82839	0.95541
750.77149	0.95506
748.71458	0.95527
746.65767	0.95613
744.60076	0.95631
742.54385	0.95598
740.48695	0.95619
738.43004	0.95654
736.37313	0.95653
734.31622	0.95616
732.25931	0.95546
730.20240	0.95483
728.14550	0.95466
726.08859	0.95440
724.03168	0.95409
721.97477	0.95415
719.91786	0.95423
717.86096	0.95431
715.80405	0.95467
713.74714	0.95471
711.69023	0.95364
709.63332	0.95211
707.57641	0.95130
705.51951	0.95110
703.46260	0.95064
701.40569	0.95021
699.34878	0.95065
697.29187	0.95093
695.23497	0.94983
693.17806	0.94856
691.12115	0.94851
689.06424	0.94919
687.00733	0.94919
684.95042	0.94786
682.89352	0.94617
680.83661	0.94543
678.77970	0.94498
676.72279	0.94416
674.66588	0.94375
672.60898	0.94316
670.55207	0.94217
668.49516	0.94193
666.43825	0.94269
664.38134	0.94359
662.32443	0.94412
660.26753	0.94380
658.21062	0.94312
656.15371	0.94283
654.09680	0.94271
652.03989	0.94255
649.98299	0.94242
647.92608	0.94243
645.86917	0.94281
643.81226	0.94251
641.75535	0.94072
639.69844	0.93931
637.64154	0.93910
635.58463	0.93855
633.52772	0.93768
631.47081	0.93712
629.41390	0.93636
627.35700	0.93602
625.30009	0.93650
623.24318	0.93632
621.18627	0.93505
619.12936	0.93362
617.07245	0.93287
615.01555	0.93263
612.95864	0.93180
610.90173	0.93015
608.84482	0.92815
606.78791	0.92652
604.73101	0.92569
602.67410	0.92526
600.61719	0.92495
598.56028	0.92435
596.50337	0.92345
594.44646	0.92391
592.38956	0.92576
590.33265	0.92721
588.27574	0.92796
586.21883	0.92802
584.16192	0.92801
582.10502	0.92847
580.04811	0.92835
577.99120	0.92761
575.93429	0.92661
573.87738	0.92596
571.82047	0.92665
569.76357	0.92715
567.70666	0.92590
565.64975	0.92354
563.59284	0.92165
561.53593	0.92159
559.47903	0.92286
557.42212	0.92373
555.36521	0.92394
553.30830	0.92396
551.25139	0.92363
549.19448	0.92293
547.13758	0.92206
545.08067	0.92160
543.02376	0.92176
540.96685	0.92185
538.90994	0.92117
536.85304	0.92054
534.79613	0.92115
532.73922	0.92167
530.68231	0.92083
528.62540	0.91936
526.56849	0.91818
524.51159	0.91745
522.45468	0.91675
520.39777	0.91566
518.34086	0.91434
516.28395	0.91255
514.22705	0.91053
512.17014	0.90943
510.11323	0.90889
508.05632	0.90819
505.99941	0.90733
503.94250	0.90590
501.88560	0.90353
499.82869	0.90106
497.77178	0.89972
495.71487	0.89911
493.65796	0.89798
491.60106	0.89521
489.54415	0.89030
487.48724	0.88553
485.43033	0.88334
483.37342	0.88325
481.31651	0.88398
479.25961	0.88475
477.20270	0.88522
475.14579	0.88424
473.08888	0.88071
471.03197	0.87593
468.97507	0.87279
466.91816	0.87267
464.86125	0.87389
462.80434	0.87351
460.74743	0.87155
458.69052	0.87016
456.63362	0.87006
454.57671	0.87073
452.51980	0.87138
450.46289	0.87234
448.40598	0.87323
446.34908	0.87340
444.29217	0.87432
442.23526	0.87517
440.17835	0.87416
438.12144	0.87143
436.06453	0.86846
434.00763	0.86835
431.95072	0.87124
429.89381	0.87465
427.83690	0.87639
425.77999	0.87435
423.72309	0.86953
421.66618	0.86590
419.60927	0.86719
417.55236	0.87294
415.49545	0.87517
413.43854	0.87403
411.38164	0.87448
409.32473	0.87750
407.26782	0.87781
405.21091	0.87601
403.15400	0.87766
401.09710	0.88000
399.04019	0.88090
