3996.57260	0.99034
3994.51569	0.99028
3992.45878	0.99033
3990.40188	0.99051
3988.34497	0.99081
3986.28806	0.99095
3984.23115	0.99065
3982.17424	0.99007
3980.11733	0.98951
3978.06043	0.98933
3976.00352	0.98978
3973.94661	0.99069
3971.88970	0.99139
3969.83279	0.99131
3967.77589	0.99071
3965.71898	0.99061
3963.66207	0.99113
3961.60516	0.99118
3959.54825	0.99078
3957.49134	0.99062
3955.43444	0.99042
3953.37753	0.99033
3951.32062	0.99042
3949.26371	0.99051
3947.20680	0.99139
3945.14990	0.99184
3943.09299	0.99096
3941.03608	0.99075
3938.97917	0.99121
3936.92226	0.99120
3934.86535	0.99113
3932.80845	0.99121
3930.75154	0.99122
3928.69463	0.99128
3926.63772	0.99127
3924.58081	0.99079
3922.52391	0.99053
3920.46700	0.99086
3918.41009	0.99095
3916.35318	0.99092
3914.29627	0.99092
3912.23936	0.99063
3910.18246	0.99016
3908.12555	0.98985
3906.06864	0.99019
3904.01173	0.99094
3901.95482	0.99092
3899.89792	0.99061
3897.84101	0.99115
3895.78410	0.99156
3893.72719	0.99112
3891.67028	0.99060
3889.61337	0.99045
3887.55647	0.99038
3885.49956	0.99031
3883.44265	0.99003
3881.38574	0.98995
3879.32883	0.99088
3877.27193	0.99181
3875.21502	0.99159
3873.15811	0.99053
3871.10120	0.98982
3869.04429	0.99004
3866.98738	0.99050
3864.93048	0.99081
3862.87357	0.99091
3860.81666	0.99080
3858.75975	0.99087
3856.70284	0.99089
3854.64594	0.99007
3852.58903	0.98944
3850.53212	0.99067
3848.47521	0.99159
3846.41830	0.99134
3844.36139	0.99074
3842.30449	0.99035
3840.24758	0.99005
3838.19067	0.98981
3836.13376	0.99015
3834.07685	0.99078
3832.01995	0.99100
3829.96304	0.99100
3827.90613	0.99090
3825.84922	0.99027
3823.79231	0.98941
3821.73540	0.98922
3819.67850	0.98969
3817.62159	0.98988
3815.56468	0.98994
3813.50777	0.99031
3811.45086	0.99086
3809.39396	0.99104
3807.33705	0.99052
3805.28014	0.98980
3803.22323	0.98928
3801.16632	0.98886
3799.10941	0.98905
3797.05251	0.98997
3794.99560	0.99101
3792.93869	0.99147
3790.88178	0.99140
3788.82487	0.99127
3786.76796	0.99097
3784.71106	0.99055
3782.65415	0.99041
3780.59724	0.99025
3778.54033	0.99023
3776.48342	0.99080
3774.42652	0.99121
3772.36961	0.99102
3770.31270	0.99108
3768.25579	0.99161
3766.19888	0.99189
3764.14197	0.99174
3762.08507	0.99112
3760.02816	0.99010
3757.97125	0.98943
3755.91434	0.98986
3753.85743	0.99056
3751.80053	0.99046
3749.74362	0.98974
3747.68671	0.98899
3745.62980	0.98834
3743.57289	0.98898
3741.51598	0.99003
3739.45908	0.98983
3737.40217	0.98891
3735.34526	0.98881
3733.28835	0.99041
3731.23144	0.99169
3729.17454	0.99210
3727.11763	0.99223
3725.06072	0.99214
3723.00381	0.99271
3720.94690	0.99341
3718.88999	0.99276
3716.83309	0.99151
3714.77618	0.99089
3712.71927	0.99082
3710.66236	0.99123
3708.60545	0.99175
3706.54855	0.99175
3704.49164	0.99187
3702.43473	0.99223
3700.37782	0.99223
3698.32091	0.99223
3696.26400	0.99234
3694.20710	0.99223
3692.15019	0.99158
3690.09328	0.99059
3688.03637	0.99068
3685.97946	0.99132
3683.92256	0.99138
3681.86565	0.99140
3679.80874	0.99187
3677.75183	0.99257
3675.69492	0.99277
3673.63801	0.99183
3671.58111	0.99059
3669.52420	0.98986
3667.46729	0.99004
3665.41038	0.99059
3663.35347	0.99068
3661.29657	0.99054
3659.23966	0.99089
3657.18275	0.99115
3655.12584	0.99104
3653.06893	0.99162
3651.01202	0.99272
3648.95512	0.99299
3646.89821	0.99221
3644.84130	0.99137
3642.78439	0.99064
3640.72748	0.98998
3638.67058	0.98976
3636.61367	0.99009
3634.55676	0.99047
3632.49985	0.99034
3630.44294	0.98972
3628.38603	0.98903
3626.32913	0.98930
3624.27222	0.99061
3622.21531	0.99155
3620.15840	0.99099
3618.10149	0.98966
3616.04459	0.98894
3613.98768	0.98858
3611.93077	0.98809
3609.87386	0.98826
3607.81695	0.98938
3605.76004	0.99028
3603.70314	0.99027
3601.64623	0.98978
3599.58932	0.98944
3597.53241	0.98934
3595.47550	0.98892
3593.41860	0.98816
3591.36169	0.98816
3589.30478	0.98896
3587.24787	0.98898
3585.19096	0.98828
3583.13405	0.98843
3581.07715	0.98861
3579.02024	0.98776
3576.96333	0.98665
3574.90642	0.98613
3572.84951	0.98658
3570.79261	0.98764
3568.73570	0.98835
3566.67879	0.98829
3564.62188	0.98752
3562.56497	0.98656
3560.50806	0.98621
3558.45116	0.98650
3556.39425	0.98660
3554.33734	0.98594
3552.28043	0.98516
3550.22352	0.98517
3548.16662	0.98523
3546.10971	0.98467
3544.05280	0.98420
3541.99589	0.98406
3539.93898	0.98428
3537.88207	0.98468
3535.82517	0.98443
3533.76826	0.98349
3531.71135	0.98291
3529.65444	0.98275
3527.59753	0.98227
3525.54063	0.98184
3523.48372	0.98159
3521.42681	0.98105
3519.36990	0.98040
3517.31299	0.98006
3515.25608	0.98002
3513.19918	0.98008
3511.14227	0.98018
3509.08536	0.98021
3507.02845	0.98049
3504.97154	0.98108
3502.91464	0.98104
3500.85773	0.98022
3498.80082	0.97964
3496.74391	0.97940
3494.68700	0.97909
3492.63009	0.97892
3490.57319	0.97865
3488.51628	0.97798
3486.45937	0.97761
3484.40246	0.97785
3482.34555	0.97785
3480.28865	0.97750
3478.23174	0.97733
3476.17483	0.97704
3474.11792	0.97657
3472.06101	0.97628
3470.00410	0.97595
3467.94720	0.97559
3465.89029	0.97539
3463.83338	0.97527
3461.77647	0.97544
3459.71956	0.97600
3457.66266	0.97653
3455.60575	0.97664
3453.54884	0.97605
3451.49193	0.97494
3449.43502	0.97414
3447.37811	0.97407
3445.32121	0.97458
3443.26430	0.97501
3441.20739	0.97498
3439.15048	0.97458
3437.09357	0.97379
3435.03667	0.97334
3432.97976	0.97357
3430.92285	0.97343
3428.86594	0.97308
3426.80903	0.97342
3424.75212	0.97414
3422.69522	0.97451
3420.63831	0.97434
3418.58140	0.97423
3416.52449	0.97444
3414.46758	0.97456
3412.41068	0.97464
3410.35377	0.97461
3408.29686	0.97424
3406.23995	0.97394
3404.18304	0.97400
3402.12613	0.97412
3400.06923	0.97403
3398.01232	0.97359
3395.95541	0.97335
3393.89850	0.97369
3391.84159	0.97396
3389.78469	0.97390
3387.72778	0.97377
3385.67087	0.97362
3383.61396	0.97325
3381.55705	0.97257
3379.50014	0.97226
3377.44324	0.97279
3375.38633	0.97364
3373.32942	0.97416
3371.27251	0.97428
3369.21560	0.97425
3367.15870	0.97448
3365.10179	0.97486
3363.04488	0.97469
3360.98797	0.97410
3358.93106	0.97370
3356.87415	0.97395
3354.81725	0.97476
3352.76034	0.97516
3350.70343	0.97479
3348.64652	0.97433
3346.58961	0.97429
3344.53271	0.97464
3342.47580	0.97491
3340.41889	0.97492
3338.36198	0.97511
3336.30507	0.97564
3334.24816	0.97607
3332.19126	0.97620
3330.13435	0.97604
3328.07744	0.97535
3326.02053	0.97463
3323.96362	0.97440
3321.90672	0.97423
3319.84981	0.97448
3317.79290	0.97554
3315.73599	0.97598
3313.67908	0.97549
3311.62217	0.97521
3309.56527	0.97537
3307.50836	0.97572
3305.45145	0.97594
3303.39454	0.97587
3301.33763	0.97594
3299.28073	0.97651
3297.22382	0.97702
3295.16691	0.97680
3293.11000	0.97647
3291.05309	0.97677
3288.99618	0.97715
3286.93928	0.97711
3284.88237	0.97704
3282.82546	0.97721
3280.76855	0.97752
3278.71164	0.97795
3276.65474	0.97814
3274.59783	0.97776
3272.54092	0.97737
3270.48401	0.97726
3268.42710	0.97750
3266.37019	0.97821
3264.31329	0.97859
3262.25638	0.97843
3260.19947	0.97825
3258.14256	0.97827
3256.08565	0.97862
3254.02875	0.97875
3251.97184	0.97850
3249.91493	0.97837
3247.85802	0.97825
3245.80111	0.97811
3243.74420	0.97817
3241.68730	0.97839
3239.63039	0.97877
3237.57348	0.97909
3235.51657	0.97898
3233.45966	0.97865
3231.40276	0.97882
3229.34585	0.97944
3227.28894	0.97978
3225.23203	0.97976
3223.17512	0.97986
3221.11821	0.97985
3219.06131	0.97940
3217.00440	0.97922
3214.94749	0.97972
3212.89058	0.98032
3210.83367	0.98098
3208.77677	0.98154
3206.71986	0.98130
3204.66295	0.98081
3202.60604	0.98090
3200.54913	0.98150
3198.49222	0.98207
3196.43532	0.98192
3194.37841	0.98149
3192.32150	0.98169
3190.26459	0.98192
3188.20768	0.98150
3186.15078	0.98123
3184.09387	0.98149
3182.03696	0.98143
3179.98005	0.98101
3177.92314	0.98123
3175.86623	0.98190
3173.80933	0.98229
3171.75242	0.98273
3169.69551	0.98344
3167.63860	0.98371
3165.58169	0.98340
3163.52479	0.98307
3161.46788	0.98294
3159.41097	0.98298
3157.35406	0.98293
3155.29715	0.98289
3153.24024	0.98316
3151.18334	0.98356
3149.12643	0.98383
3147.06952	0.98366
3145.01261	0.98341
3142.95570	0.98348
3140.89880	0.98355
3138.84189	0.98357
3136.78498	0.98347
3134.72807	0.98323
3132.67116	0.98337
3130.61425	0.98393
3128.55735	0.98433
3126.50044	0.98465
3124.44353	0.98494
3122.38662	0.98484
3120.32971	0.98442
3118.27281	0.98441
3116.21590	0.98484
3114.15899	0.98528
3112.10208	0.98559
3110.04517	0.98544
3107.98826	0.98483
3105.93136	0.98461
3103.87445	0.98501
3101.81754	0.98519
3099.76063	0.98494
3097.70372	0.98486
3095.64682	0.98498
3093.58991	0.98494
3091.53300	0.98494
3089.47609	0.98540
3087.41918	0.98591
3085.36227	0.98588
3083.30537	0.98585
3081.24846	0.98642
3079.19155	0.98670
3077.13464	0.98626
3075.07773	0.98598
3073.02083	0.98609
3070.96392	0.98610
3068.90701	0.98597
3066.85010	0.98597
3064.79319	0.98597
3062.73628	0.98608
3060.67938	0.98624
3058.62247	0.98639
3056.56556	0.98679
3054.50865	0.98714
3052.45174	0.98715
3050.39484	0.98697
3048.33793	0.98694
3046.28102	0.98705
3044.22411	0.98687
3042.16720	0.98652
3040.11029	0.98646
3038.05339	0.98650
3035.99648	0.98632
3033.93957	0.98632
3031.88266	0.98662
3029.82575	0.98666
3027.76885	0.98666
3025.71194	0.98686
3023.65503	0.98668
3021.59812	0.98612
3019.54121	0.98603
3017.48430	0.98657
3015.42740	0.98714
3013.37049	0.98735
3011.31358	0.98723
3009.25667	0.98693
3007.19976	0.98670
3005.14286	0.98662
3003.08595	0.98641
3001.02904	0.98635
2998.97213	0.98677
2996.91522	0.98696
2994.85831	0.98659
2992.80141	0.98632
2990.74450	0.98626
2988.68759	0.98606
2986.63068	0.98595
2984.57377	0.98630
2982.51687	0.98666
2980.45996	0.98669
2978.40305	0.98689
2976.34614	0.98710
2974.28923	0.98659
2972.23232	0.98570
2970.17542	0.98523
2968.11851	0.98536
2966.06160	0.98576
2964.00469	0.98577
2961.94778	0.98521
2959.89088	0.98471
2957.83397	0.98444
2955.77706	0.98427
2953.72015	0.98432
2951.66324	0.98437
2949.60633	0.98409
2947.54943	0.98381
2945.49252	0.98377
2943.43561	0.98356
2941.37870	0.98305
2939.32179	0.98281
2937.26489	0.98287
2935.20798	0.98271
2933.15107	0.98253
2931.09416	0.98257
2929.03725	0.98255
2926.98034	0.98222
2924.92344	0.98142
2922.86653	0.98092
2920.80962	0.98125
2918.75271	0.98171
2916.69580	0.98198
2914.63890	0.98217
2912.58199	0.98206
2910.52508	0.98162
2908.46817	0.98132
2906.41126	0.98152
2904.35435	0.98169
2902.29745	0.98120
2900.24054	0.98066
2898.18363	0.98061
2896.12672	0.98071
2894.06981	0.98078
2892.01291	0.98083
2889.95600	0.98059
2887.89909	0.98028
2885.84218	0.98058
2883.78527	0.98105
2881.72836	0.98113
2879.67146	0.98118
2877.61455	0.98140
2875.55764	0.98164
2873.50073	0.98165
2871.44382	0.98170
2869.38692	0.98184
2867.33001	0.98176
2865.27310	0.98174
2863.21619	0.98194
2861.15928	0.98222
2859.10237	0.98240
2857.04547	0.98241
2854.98856	0.98238
2852.93165	0.98247
2850.87474	0.98263
2848.81783	0.98297
2846.76093	0.98342
2844.70402	0.98364
2842.64711	0.98382
2840.59020	0.98398
2838.53329	0.98395
2836.47638	0.98387
2834.41948	0.98387
2832.36257	0.98399
2830.30566	0.98432
2828.24875	0.98484
2826.19184	0.98516
2824.13494	0.98518
2822.07803	0.98521
2820.02112	0.98520
2817.96421	0.98501
2815.90730	0.98493
2813.85039	0.98517
2811.79349	0.98543
2809.73658	0.98558
2807.67967	0.98573
2805.62276	0.98555
2803.56585	0.98522
2801.50895	0.98551
2799.45204	0.98605
2797.39513	0.98591
2795.33822	0.98549
2793.28131	0.98539
2791.22440	0.98549
2789.16750	0.98591
2787.11059	0.98632
2785.05368	0.98627
2782.99677	0.98624
2780.93986	0.98641
2778.88296	0.98632
2776.82605	0.98600
2774.76914	0.98593
2772.71223	0.98612
2770.65532	0.98622
2768.59841	0.98612
2766.54151	0.98591
2764.48460	0.98572
2762.42769	0.98567
2760.37078	0.98586
2758.31387	0.98601
2756.25697	0.98599
2754.20006	0.98619
2752.14315	0.98658
2750.08624	0.98677
2748.02933	0.98689
2745.97242	0.98717
2743.91552	0.98732
2741.85861	0.98702
2739.80170	0.98666
2737.74479	0.98668
2735.68788	0.98675
2733.63098	0.98683
2731.57407	0.98714
2729.51716	0.98702
2727.46025	0.98639
2725.40334	0.98608
2723.34643	0.98618
2721.28953	0.98643
2719.23262	0.98671
2717.17571	0.98678
2715.11880	0.98673
2713.06189	0.98699
2711.00499	0.98728
2708.94808	0.98719
2706.89117	0.98689
2704.83426	0.98664
2702.77735	0.98666
2700.72044	0.98688
2698.66354	0.98679
2696.60663	0.98656
2694.54972	0.98678
2692.49281	0.98704
2690.43590	0.98680
2688.37900	0.98653
2686.32209	0.98661
2684.26518	0.98669
2682.20827	0.98665
2680.15136	0.98666
2678.09445	0.98680
2676.03755	0.98696
2673.98064	0.98693
2671.92373	0.98691
2669.86682	0.98711
2667.80991	0.98733
2665.75301	0.98725
2663.69610	0.98693
2661.63919	0.98655
2659.58228	0.98639
2657.52537	0.98662
2655.46846	0.98701
2653.41156	0.98709
2651.35465	0.98686
2649.29774	0.98678
2647.24083	0.98682
2645.18392	0.98689
2643.12702	0.98714
2641.07011	0.98752
2639.01320	0.98759
2636.95629	0.98721
2634.89938	0.98678
2632.84247	0.98638
2630.78557	0.98607
2628.72866	0.98638
2626.67175	0.98715
2624.61484	0.98753
2622.55793	0.98745
2620.50103	0.98739
2618.44412	0.98727
2616.38721	0.98679
2614.33030	0.98635
2612.27339	0.98653
2610.21648	0.98710
2608.15958	0.98734
2606.10267	0.98730
2604.04576	0.98733
2601.98885	0.98737
2599.93194	0.98763
2597.87504	0.98805
2595.81813	0.98790
2593.76122	0.98735
2591.70431	0.98725
2589.64740	0.98769
2587.59049	0.98801
2585.53359	0.98785
2583.47668	0.98757
2581.41977	0.98752
2579.36286	0.98742
2577.30595	0.98704
2575.24905	0.98684
2573.19214	0.98725
2571.13523	0.98786
2569.07832	0.98799
2567.02141	0.98760
2564.96450	0.98713
2562.90760	0.98700
2560.85069	0.98725
2558.79378	0.98743
2556.73687	0.98749
2554.67996	0.98768
2552.62306	0.98769
2550.56615	0.98740
2548.50924	0.98732
2546.45233	0.98809
2544.39542	0.98909
2542.33851	0.98902
2540.28161	0.98841
2538.22470	0.98822
2536.16779	0.98785
2534.11088	0.98744
2532.05397	0.98786
2529.99707	0.98816
2527.94016	0.98755
2525.88325	0.98706
2523.82634	0.98722
2521.76943	0.98726
2519.71252	0.98716
2517.65562	0.98763
2515.59871	0.98831
2513.54180	0.98841
2511.48489	0.98832
2509.42798	0.98855
2507.37108	0.98861
2505.31417	0.98817
2503.25726	0.98753
2501.20035	0.98722
2499.14344	0.98779
2497.08653	0.98875
2495.02963	0.98895
2492.97272	0.98829
2490.91581	0.98790
2488.85890	0.98809
2486.80199	0.98788
2484.74509	0.98765
2482.68818	0.98840
2480.63127	0.98920
2478.57436	0.98889
2476.51745	0.98814
2474.46054	0.98786
2472.40364	0.98812
2470.34673	0.98870
2468.28982	0.98886
2466.23291	0.98829
2464.17600	0.98789
2462.11910	0.98808
2460.06219	0.98829
2458.00528	0.98812
2455.94837	0.98782
2453.89146	0.98760
2451.83455	0.98763
2449.77765	0.98825
2447.72074	0.98896
2445.66383	0.98913
2443.60692	0.98903
2441.55001	0.98868
2439.49311	0.98803
2437.43620	0.98775
2435.37929	0.98819
2433.32238	0.98846
2431.26547	0.98814
2429.20856	0.98828
2427.15166	0.98922
2425.09475	0.98982
2423.03784	0.98963
2420.98093	0.98959
2418.92402	0.98967
2416.86712	0.98914
2414.81021	0.98860
2412.75330	0.98850
2410.69639	0.98869
2408.63948	0.98872
2406.58257	0.98851
2404.52567	0.98844
2402.46876	0.98846
2400.41185	0.98872
2398.35494	0.98947
2396.29803	0.99035
2394.24113	0.99073
2392.18422	0.99047
2390.12731	0.99000
2388.07040	0.98987
2386.01349	0.98980
2383.95658	0.98942
2381.89968	0.98940
2379.84277	0.98975
2377.78586	0.98964
2375.72895	0.98928
2373.67204	0.98953
2371.61514	0.98995
2369.55823	0.98908
2367.50132	0.98810
2365.44441	0.98903
2363.38750	0.99007
2361.33059	0.98993
2359.27369	0.98907
2357.21678	0.98762
2355.15987	0.98698
2353.10296	0.98791
2351.04605	0.98917
2348.98915	0.99006
2346.93224	0.99056
2344.87533	0.98997
2342.81842	0.98834
2340.76151	0.98771
2338.70460	0.98819
2336.64770	0.98817
2334.59079	0.98796
2332.53388	0.98844
2330.47697	0.98885
2328.42006	0.98818
2326.36316	0.98718
2324.30625	0.98702
2322.24934	0.98744
2320.19243	0.98770
2318.13552	0.98789
2316.07861	0.98813
2314.02171	0.98840
2311.96480	0.98875
2309.90789	0.98865
2307.85098	0.98796
2305.79407	0.98729
2303.73717	0.98671
2301.68026	0.98627
2299.62335	0.98686
2297.56644	0.98815
2295.50953	0.98857
2293.45262	0.98819
2291.39572	0.98814
2289.33881	0.98857
2287.28190	0.98835
2285.22499	0.98704
2283.16808	0.98604
2281.11117	0.98665
2279.05427	0.98813
2276.99736	0.98861
2274.94045	0.98793
2272.88354	0.98707
2270.82663	0.98644
2268.76973	0.98712
2266.71282	0.98915
2264.65591	0.99004
2262.59900	0.98918
2260.54209	0.98880
2258.48518	0.98965
2256.42828	0.99033
2254.37137	0.98989
2252.31446	0.98881
2250.25755	0.98815
2248.20064	0.98847
2246.14374	0.99008
2244.08683	0.99218
2242.02992	0.99217
2239.97301	0.99024
2237.91610	0.98922
2235.85919	0.98924
2233.80229	0.98929
2231.74538	0.98936
2229.68847	0.98924
2227.63156	0.98967
2225.57465	0.99134
2223.51775	0.99285
2221.46084	0.99306
2219.40393	0.99210
2217.34702	0.99014
2215.29011	0.98817
2213.23320	0.98766
2211.17630	0.98867
2209.11939	0.99050
2207.06248	0.99236
2205.00557	0.99376
2202.94866	0.99374
2200.89176	0.99180
2198.83485	0.99000
2196.77794	0.98917
2194.72103	0.98920
2192.66412	0.99023
2190.60721	0.99077
2188.55031	0.99077
2186.49340	0.99130
2184.43649	0.99145
2182.37958	0.99022
2180.32267	0.98818
2178.26577	0.98671
2176.20886	0.98741
2174.15195	0.98855
2172.09504	0.98815
2170.03813	0.98837
2167.98122	0.98920
2165.92432	0.98864
2163.86741	0.98796
2161.81050	0.98876
2159.75359	0.99086
2157.69668	0.99291
2155.63978	0.99399
2153.58287	0.99495
2151.52596	0.99505
2149.46905	0.99370
2147.41214	0.99259
2145.35523	0.99251
2143.29833	0.99358
2141.24142	0.99451
2139.18451	0.99371
2137.12760	0.99204
2135.07069	0.99116
2133.01379	0.99209
2130.95688	0.99354
2128.89997	0.99327
2126.84306	0.99181
2124.78615	0.99078
2122.72924	0.99071
2120.67234	0.99103
2118.61543	0.99053
2116.55852	0.99009
2114.50161	0.99109
2112.44470	0.99183
2110.38780	0.99142
2108.33089	0.99102
2106.27398	0.99090
2104.21707	0.99107
2102.16016	0.99097
2100.10325	0.98985
2098.04635	0.98878
2095.98944	0.98875
2093.93253	0.98918
2091.87562	0.98970
2089.81871	0.99025
2087.76181	0.99056
2085.70490	0.99027
2083.64799	0.98944
2081.59108	0.98918
2079.53417	0.98950
2077.47726	0.98970
2075.42036	0.98995
2073.36345	0.99025
2071.30654	0.99077
2069.24963	0.99094
2067.19272	0.99080
2065.13582	0.99124
2063.07891	0.99120
2061.02200	0.98979
2058.96509	0.98837
2056.90818	0.98868
2054.85127	0.99045
2052.79437	0.99148
2050.73746	0.99080
2048.68055	0.98946
2046.62364	0.98926
2044.56673	0.99107
2042.50983	0.99286
2040.45292	0.99211
2038.39601	0.98891
2036.33910	0.98669
2034.28219	0.98821
2032.22528	0.99138
2030.16838	0.99381
2028.11147	0.99468
2026.05456	0.99357
2023.99765	0.99181
2021.94074	0.99021
2019.88384	0.98869
2017.82693	0.98854
2015.77002	0.98989
2013.71311	0.99032
2011.65620	0.98871
2009.59929	0.98715
2007.54239	0.98810
2005.48548	0.99062
2003.42857	0.99283
2001.37166	0.99401
1999.31475	0.99342
1997.25785	0.99138
1995.20094	0.98895
1993.14403	0.98767
1991.08712	0.98927
1989.03021	0.99205
1986.97330	0.99257
1984.91640	0.99117
1982.85949	0.99083
1980.80258	0.99215
1978.74567	0.99375
1976.68876	0.99498
1974.63186	0.99527
1972.57495	0.99381
1970.51804	0.99127
1968.46113	0.98989
1966.40422	0.98997
1964.34731	0.99019
1962.29041	0.99010
1960.23350	0.99013
1958.17659	0.99064
1956.11968	0.99091
1954.06277	0.99154
1952.00587	0.99302
1949.94896	0.99342
1947.89205	0.99252
1945.83514	0.99178
1943.77823	0.99148
1941.72132	0.99180
1939.66442	0.99180
1937.60751	0.99107
1935.55060	0.99122
1933.49369	0.99172
1931.43678	0.99129
1929.37988	0.99135
1927.32297	0.99227
1925.26606	0.99217
1923.20915	0.99156
1921.15224	0.99168
1919.09533	0.99134
1917.03843	0.99032
1914.98152	0.98993
1912.92461	0.99020
1910.86770	0.99059
1908.81079	0.99128
1906.75389	0.99203
1904.69698	0.99191
1902.64007	0.99125
1900.58316	0.99088
1898.52625	0.99099
1896.46934	0.99129
1894.41244	0.99119
1892.35553	0.99094
1890.29862	0.99109
1888.24171	0.99118
1886.18480	0.99050
1884.12790	0.98960
1882.07099	0.98946
1880.01408	0.98973
1877.95717	0.98986
1875.90026	0.99031
1873.84335	0.99086
1871.78645	0.99068
1869.72954	0.99041
1867.67263	0.99088
1865.61572	0.99132
1863.55881	0.99115
1861.50191	0.99059
1859.44500	0.99013
1857.38809	0.99026
1855.33118	0.99096
1853.27427	0.99156
1851.21736	0.99158
1849.16046	0.99135
1847.10355	0.99112
1845.04664	0.99085
1842.98973	0.99079
1840.93282	0.99104
1838.87592	0.99130
1836.81901	0.99138
1834.76210	0.99139
1832.70519	0.99155
1830.64828	0.99151
1828.59137	0.99108
1826.53447	0.99114
1824.47756	0.99149
1822.42065	0.99125
1820.36374	0.99074
1818.30683	0.99071
1816.24993	0.99128
1814.19302	0.99194
1812.13611	0.99222
1810.07920	0.99203
1808.02229	0.99150
1805.96538	0.99083
1803.90848	0.99029
1801.85157	0.99031
1799.79466	0.99105
1797.73775	0.99175
1795.68084	0.99220
1793.62394	0.99243
1791.56703	0.99197
1789.51012	0.99132
1787.45321	0.99091
1785.39630	0.99061
1783.33939	0.99030
1781.28249	0.99001
1779.22558	0.98998
1777.16867	0.99030
1775.11176	0.99076
1773.05485	0.99084
1770.99795	0.99014
1768.94104	0.98938
1766.88413	0.98875
1764.82722	0.98776
1762.77031	0.98614
1760.71340	0.98392
1758.65650	0.98169
1756.59959	0.97971
1754.54268	0.97792
1752.48577	0.97571
1750.42886	0.97296
1748.37196	0.97077
1746.31505	0.96918
1744.25814	0.96767
1742.20123	0.96629
1740.14432	0.96495
1738.08741	0.96352
1736.03051	0.96198
1733.97360	0.96022
1731.91669	0.95923
1729.85978	0.95941
1727.80287	0.95995
1725.74597	0.96022
1723.68906	0.96041
1721.63215	0.96092
1719.57524	0.96163
1717.51833	0.96254
1715.46142	0.96387
1713.40452	0.96559
1711.34761	0.96756
1709.29070	0.96944
1707.23379	0.97099
1705.17688	0.97248
1703.11998	0.97373
1701.06307	0.97489
1699.00616	0.97653
1696.94925	0.97813
1694.89234	0.97943
1692.83543	0.98049
1690.77853	0.98139
1688.72162	0.98218
1686.66471	0.98263
1684.60780	0.98239
1682.55089	0.98236
1680.49399	0.98304
1678.43708	0.98377
1676.38017	0.98438
1674.32326	0.98463
1672.26635	0.98451
1670.20944	0.98419
1668.15254	0.98397
1666.09563	0.98394
1664.03872	0.98385
1661.98181	0.98378
1659.92490	0.98391
1657.86800	0.98410
1655.81109	0.98426
1653.75418	0.98457
1651.69727	0.98468
1649.64036	0.98444
1647.58345	0.98421
1645.52655	0.98429
1643.46964	0.98465
1641.41273	0.98485
1639.35582	0.98490
1637.29891	0.98496
1635.24201	0.98488
1633.18510	0.98474
1631.12819	0.98479
1629.07128	0.98487
1627.01437	0.98483
1624.95746	0.98471
1622.90056	0.98478
1620.84365	0.98525
1618.78674	0.98572
1616.72983	0.98583
1614.67292	0.98573
1612.61602	0.98565
1610.55911	0.98572
1608.50220	0.98593
1606.44529	0.98610
1604.38838	0.98625
1602.33147	0.98628
1600.27457	0.98629
1598.21766	0.98648
1596.16075	0.98652
1594.10384	0.98645
1592.04693	0.98663
1589.99003	0.98684
1587.93312	0.98673
1585.87621	0.98639
1583.81930	0.98620
1581.76239	0.98643
1579.70548	0.98683
1577.64858	0.98687
1575.59167	0.98670
1573.53476	0.98678
1571.47785	0.98693
1569.42094	0.98707
1567.36404	0.98710
1565.30713	0.98694
1563.25022	0.98676
1561.19331	0.98687
1559.13640	0.98721
1557.07949	0.98701
1555.02259	0.98666
1552.96568	0.98650
1550.90877	0.98661
1548.85186	0.98690
1546.79495	0.98708
1544.73805	0.98712
1542.68114	0.98729
1540.62423	0.98729
1538.56732	0.98676
1536.51041	0.98652
1534.45350	0.98675
1532.39660	0.98699
1530.33969	0.98679
1528.28278	0.98658
1526.22587	0.98684
1524.16896	0.98714
1522.11206	0.98698
1520.05515	0.98659
1517.99824	0.98628
1515.94133	0.98633
1513.88442	0.98663
1511.82751	0.98677
1509.77061	0.98680
1507.71370	0.98660
1505.65679	0.98591
1503.59988	0.98544
1501.54297	0.98545
1499.48607	0.98568
1497.42916	0.98571
1495.37225	0.98564
1493.31534	0.98553
1491.25843	0.98520
1489.20152	0.98468
1487.14462	0.98407
1485.08771	0.98354
1483.03080	0.98323
1480.97389	0.98298
1478.91698	0.98267
1476.86008	0.98232
1474.80317	0.98190
1472.74626	0.98108
1470.68935	0.98016
1468.63244	0.97971
1466.57553	0.97914
1464.51863	0.97811
1462.46172	0.97729
1460.40481	0.97696
1458.34790	0.97658
1456.29099	0.97576
1454.23409	0.97512
1452.17718	0.97453
1450.12027	0.97377
1448.06336	0.97318
1446.00645	0.97295
1443.94954	0.97275
1441.89264	0.97217
1439.83573	0.97129
1437.77882	0.97035
1435.72191	0.96944
1433.66500	0.96865
1431.60810	0.96808
1429.55119	0.96776
1427.49428	0.96758
1425.43737	0.96733
1423.38046	0.96701
1421.32355	0.96680
1419.26665	0.96671
1417.20974	0.96672
1415.15283	0.96659
1413.09592	0.96613
1411.03901	0.96565
1408.98211	0.96543
1406.92520	0.96530
1404.86829	0.96531
1402.81138	0.96545
1400.75447	0.96553
1398.69756	0.96551
1396.64066	0.96523
1394.58375	0.96454
1392.52684	0.96365
1390.46993	0.96291
1388.41302	0.96226
1386.35612	0.96118
1384.29921	0.95968
1382.24230	0.95818
1380.18539	0.95673
1378.12848	0.95539
1376.07157	0.95435
1374.01467	0.95336
1371.95776	0.95244
1369.90085	0.95205
1367.84394	0.95230
1365.78703	0.95310
1363.73013	0.95445
1361.67322	0.95619
1359.61631	0.95783
1357.55940	0.95938
1355.50249	0.96088
1353.44558	0.96190
1351.38868	0.96234
1349.33177	0.96263
1347.27486	0.96305
1345.21795	0.96360
1343.16104	0.96415
1341.10414	0.96456
1339.04723	0.96510
1336.99032	0.96575
1334.93341	0.96601
1332.87650	0.96597
1330.81959	0.96593
1328.76269	0.96601
1326.70578	0.96645
1324.64887	0.96701
1322.59196	0.96717
1320.53505	0.96714
1318.47815	0.96719
1316.42124	0.96729
1314.36433	0.96758
1312.30742	0.96805
1310.25051	0.96843
1308.19360	0.96865
1306.13670	0.96884
1304.07979	0.96901
1302.02288	0.96916
1299.96597	0.96938
1297.90906	0.96956
1295.85216	0.96950
1293.79525	0.96927
1291.73834	0.96892
1289.68143	0.96858
1287.62452	0.96837
1285.56761	0.96799
1283.51071	0.96734
1281.45380	0.96667
1279.39689	0.96596
1277.33998	0.96513
1275.28307	0.96405
1273.22617	0.96263
1271.16926	0.96122
1269.11235	0.96008
1267.05544	0.95899
1264.99853	0.95769
1262.94162	0.95605
1260.88472	0.95429
1258.82781	0.95263
1256.77090	0.95059
1254.71399	0.94802
1252.65708	0.94554
1250.60018	0.94334
1248.54327	0.94126
1246.48636	0.93934
1244.42945	0.93760
1242.37254	0.93597
1240.31563	0.93434
1238.25873	0.93265
1236.20182	0.93119
1234.14491	0.93008
1232.08800	0.92927
1230.03109	0.92891
1227.97419	0.92899
1225.91728	0.92934
1223.86037	0.93013
1221.80346	0.93140
1219.74655	0.93287
1217.68964	0.93473
1215.63274	0.93710
1213.57583	0.93919
1211.51892	0.94044
1209.46201	0.94139
1207.40510	0.94247
1205.34820	0.94333
1203.29129	0.94384
1201.23438	0.94437
1199.17747	0.94491
1197.12056	0.94537
1195.06365	0.94593
1193.00675	0.94657
1190.94984	0.94696
1188.89293	0.94703
1186.83602	0.94693
1184.77911	0.94659
1182.72221	0.94602
1180.66530	0.94516
1178.60839	0.94386
1176.55148	0.94223
1174.49457	0.94047
1172.43766	0.93869
1170.38076	0.93662
1168.32385	0.93427
1166.26694	0.93218
1164.21003	0.93022
1162.15312	0.92812
1160.09622	0.92620
1158.03931	0.92486
1155.98240	0.92424
1153.92549	0.92414
1151.86858	0.92416
1149.81167	0.92417
1147.75477	0.92401
1145.69786	0.92358
1143.64095	0.92316
1141.58404	0.92265
1139.52713	0.92167
1137.47023	0.92031
1135.41332	0.91876
1133.35641	0.91683
1131.29950	0.91463
1129.24259	0.91243
1127.18568	0.91018
1125.12878	0.90801
1123.07187	0.90613
1121.01496	0.90444
1118.95805	0.90277
1116.90114	0.90095
1114.84424	0.89898
1112.78733	0.89715
1110.73042	0.89554
1108.67351	0.89395
1106.61660	0.89243
1104.55969	0.89090
1102.50279	0.88898
1100.44588	0.88707
1098.38897	0.88568
1096.33206	0.88452
1094.27515	0.88326
1092.21825	0.88166
1090.16134	0.87988
1088.10443	0.87842
1086.04752	0.87711
1083.99061	0.87519
1081.93370	0.87291
1079.87680	0.87086
1077.81989	0.86876
1075.76298	0.86635
1073.70607	0.86412
1071.64916	0.86236
1069.59226	0.86068
1067.53535	0.85890
1065.47844	0.85730
1063.42153	0.85596
1061.36462	0.85487
1059.30771	0.85385
1057.25081	0.85273
1055.19390	0.85184
1053.13699	0.85112
1051.08008	0.85002
1049.02317	0.84872
1046.96627	0.84774
1044.90936	0.84709
1042.85245	0.84620
1040.79554	0.84493
1038.73863	0.84394
1036.68172	0.84313
1034.62482	0.84197
1032.56791	0.84066
1030.51100	0.83970
1028.45409	0.83930
1026.39718	0.83943
1024.34028	0.83972
1022.28337	0.84001
1020.22646	0.84071
1018.16955	0.84194
1016.11264	0.84343
1014.05573	0.84491
1011.99883	0.84639
1009.94192	0.84810
1007.88501	0.85004
1005.82810	0.85205
1003.77119	0.85378
1001.71429	0.85488
999.65738	0.85579
997.60047	0.85715
995.54356	0.85891
993.48665	0.86074
991.42974	0.86256
989.37284	0.86434
987.31593	0.86614
985.25902	0.86829
983.20211	0.87091
981.14520	0.87358
979.08830	0.87607
977.03139	0.87834
974.97448	0.88028
972.91757	0.88241
970.86066	0.88501
968.80375	0.88749
966.74685	0.88960
964.68994	0.89180
962.63303	0.89422
960.57612	0.89660
958.51921	0.89866
956.46231	0.90027
954.40540	0.90169
952.34849	0.90318
950.29158	0.90480
948.23467	0.90620
946.17776	0.90716
944.12086	0.90828
942.06395	0.90951
940.00704	0.91002
937.95013	0.91019
935.89322	0.91102
933.83632	0.91221
931.77941	0.91312
929.72250	0.91371
927.66559	0.91410
925.60868	0.91446
923.55177	0.91491
921.49487	0.91529
919.43796	0.91527
917.38105	0.91511
915.32414	0.91506
913.26723	0.91487
911.21033	0.91462
909.15342	0.91456
907.09651	0.91455
905.03960	0.91422
902.98269	0.91350
900.92578	0.91288
898.86888	0.91285
896.81197	0.91349
894.75506	0.91458
892.69815	0.91568
890.64124	0.91651
888.58434	0.91701
886.52743	0.91750
884.47052	0.91886
882.41361	0.92101
880.35670	0.92295
878.29979	0.92426
876.24289	0.92536
874.18598	0.92648
872.12907	0.92775
870.07216	0.92942
868.01525	0.93109
865.95835	0.93248
863.90144	0.93371
861.84453	0.93491
859.78762	0.93612
857.73071	0.93673
855.67380	0.93698
853.61690	0.93798
851.55999	0.93914
849.50308	0.93954
847.44617	0.93985
845.38926	0.94042
843.33236	0.94066
841.27545	0.94061
839.21854	0.94032
837.16163	0.93966
835.10472	0.93922
833.04781	0.93925
830.99091	0.93935
828.93400	0.93922
826.87709	0.93890
824.82018	0.93842
822.76327	0.93799
820.70637	0.93776
818.64946	0.93727
816.59255	0.93673
814.53564	0.93656
812.47873	0.93635
810.42182	0.93616
808.36492	0.93607
806.30801	0.93535
804.25110	0.93456
802.19419	0.93474
800.13728	0.93498
798.08038	0.93515
796.02347	0.93592
793.96656	0.93628
791.90965	0.93554
789.85274	0.93481
787.79583	0.93513
785.73893	0.93595
783.68202	0.93656
781.62511	0.93713
779.56820	0.93759
777.51129	0.93793
775.45439	0.93840
773.39748	0.93909
771.34057	0.93984
769.28366	0.94053
767.22675	0.94117
765.16984	0.94156
763.11294	0.94177
761.05603	0.94209
758.99912	0.94259
756.94221	0.94308
754.88530	0.94324
752.82839	0.94358
750.77149	0.94441
748.71458	0.94513
746.65767	0.94552
744.60076	0.94598
742.54385	0.94609
740.48695	0.94515
738.43004	0.94428
736.37313	0.94434
734.31622	0.94427
732.25931	0.94399
730.20240	0.94446
728.14550	0.94513
726.08859	0.94506
724.03168	0.94439
721.97477	0.94400
719.91786	0.94397
717.86096	0.94370
715.80405	0.94320
713.74714	0.94284
711.69023	0.94253
709.63332	0.94212
707.57641	0.94200
705.51951	0.94189
703.46260	0.94108
701.40569	0.94014
699.34878	0.93968
697.29187	0.93946
695.23497	0.93954
693.17806	0.93996
691.12115	0.94002
689.06424	0.93932
687.00733	0.93880
684.95042	0.93873
682.89352	0.93802
680.83661	0.93637
678.77970	0.93469
676.72279	0.93399
674.66588	0.93419
672.60898	0.93433
670.55207	0.93395
668.49516	0.93344
666.43825	0.93284
664.38134	0.93224
662.32443	0.93232
660.26753	0.93247
658.21062	0.93200
656.15371	0.93224
654.09680	0.93340
652.03989	0.93398
649.98299	0.93357
647.92608	0.93275
645.86917	0.93195
643.81226	0.93150
641.75535	0.93150
639.69844	0.93155
637.64154	0.93117
635.58463	0.93046
633.52772	0.92983
631.47081	0.92995
629.41390	0.93036
627.35700	0.92965
625.30009	0.92865
623.24318	0.92862
621.18627	0.92859
619.12936	0.92761
617.07245	0.92647
615.01555	0.92601
612.95864	0.92545
610.90173	0.92421
608.84482	0.92304
606.78791	0.92215
604.73101	0.92107
602.67410	0.92069
600.61719	0.92164
598.56028	0.92207
596.50337	0.92165
594.44646	0.92160
592.38956	0.92116
590.33265	0.92056
588.27574	0.92071
586.21883	0.92123
584.16192	0.92179
582.10502	0.92200
580.04811	0.92157
577.99120	0.92093
575.93429	0.92078
573.87738	0.92041
571.82047	0.91919
569.76357	0.91754
567.70666	0.91571
565.64975	0.91440
563.59284	0.91443
561.53593	0.91524
559.47903	0.91505
557.42212	0.91391
555.36521	0.91319
553.30830	0.91357
551.25139	0.91459
549.19448	0.91522
547.13758	0.91533
545.08067	0.91434
543.02376	0.91286
540.96685	0.91273
538.90994	0.91323
536.85304	0.91280
534.79613	0.91135
532.73922	0.90979
530.68231	0.90898
528.62540	0.90908
526.56849	0.90969
524.51159	0.90921
522.45468	0.90694
520.39777	0.90434
518.34086	0.90197
516.28395	0.89993
514.22705	0.89837
512.17014	0.89655
510.11323	0.89451
508.05632	0.89302
505.99941	0.89176
503.94250	0.88894
501.88560	0.88350
499.82869	0.87770
497.77178	0.87378
495.71487	0.87124
493.65796	0.86926
491.60106	0.86695
489.54415	0.86378
487.48724	0.86095
485.43033	0.86000
483.37342	0.86045
481.31651	0.85925
479.25961	0.85607
477.20270	0.85275
475.14579	0.84991
473.08888	0.84667
471.03197	0.84289
468.97507	0.84120
466.91816	0.84102
464.86125	0.84002
462.80434	0.83698
460.74743	0.83224
458.69052	0.82964
456.63362	0.83106
454.57671	0.83393
452.51980	0.83509
450.46289	0.83293
448.40598	0.83062
446.34908	0.83219
444.29217	0.83497
442.23526	0.83512
440.17835	0.83575
438.12144	0.83777
436.06453	0.83719
434.00763	0.83577
431.95072	0.83584
429.89381	0.83673
427.83690	0.83955
425.77999	0.84145
423.72309	0.84099
421.66618	0.84039
419.60927	0.83885
417.55236	0.83936
415.49545	0.84309
413.43854	0.84427
411.38164	0.84140
409.32473	0.83976
407.26782	0.84073
405.21091	0.84095
403.15400	0.84136
401.09710	0.84256
399.04019	0.84134
