3996.57260	0.97930
3994.51569	0.97941
3992.45878	0.97958
3990.40188	0.97968
3988.34497	0.97977
3986.28806	0.97950
3984.23115	0.97904
3982.17424	0.97926
3980.11733	0.98023
3978.06043	0.98111
3976.00352	0.98089
3973.94661	0.98000
3971.88970	0.97958
3969.83279	0.97968
3967.77589	0.98000
3965.71898	0.97967
3963.66207	0.97861
3961.60516	0.97823
3959.54825	0.97858
3957.49134	0.97846
3955.43444	0.97817
3953.37753	0.97841
3951.32062	0.97873
3949.26371	0.97883
3947.20680	0.97914
3945.14990	0.97937
3943.09299	0.97909
3941.03608	0.97894
3938.97917	0.97911
3936.92226	0.97930
3934.86535	0.97958
3932.80845	0.97974
3930.75154	0.97979
3928.69463	0.98000
3926.63772	0.98020
3924.58081	0.98036
3922.52391	0.98006
3920.46700	0.97915
3918.41009	0.97885
3916.35318	0.97965
3914.29627	0.98024
3912.23936	0.98033
3910.18246	0.98037
3908.12555	0.98059
3906.06864	0.98060
3904.01173	0.97937
3901.95482	0.97785
3899.89792	0.97815
3897.84101	0.97949
3895.78410	0.98000
3893.72719	0.97986
3891.67028	0.98013
3889.61337	0.98041
3887.55647	0.98015
3885.49956	0.97975
3883.44265	0.97998
3881.38574	0.98062
3879.32883	0.98045
3877.27193	0.97998
3875.21502	0.98021
3873.15811	0.98014
3871.10120	0.97907
3869.04429	0.97879
3866.98738	0.97970
3864.93048	0.98019
3862.87357	0.98028
3860.81666	0.98065
3858.75975	0.98128
3856.70284	0.98177
3854.64594	0.98199
3852.58903	0.98162
3850.53212	0.98075
3848.47521	0.98028
3846.41830	0.98028
3844.36139	0.98027
3842.30449	0.98051
3840.24758	0.98144
3838.19067	0.98174
3836.13376	0.98022
3834.07685	0.97867
3832.01995	0.97817
3829.96304	0.97839
3827.90613	0.97917
3825.84922	0.97968
3823.79231	0.97896
3821.73540	0.97773
3819.67850	0.97773
3817.62159	0.97889
3815.56468	0.97976
3813.50777	0.98003
3811.45086	0.98041
3809.39396	0.98066
3807.33705	0.98024
3805.28014	0.97961
3803.22323	0.97935
3801.16632	0.97960
3799.10941	0.98059
3797.05251	0.98144
3794.99560	0.98121
3792.93869	0.98023
3790.88178	0.97896
3788.82487	0.97791
3786.76796	0.97806
3784.71106	0.97908
3782.65415	0.97981
3780.59724	0.98002
3778.54033	0.97988
3776.48342	0.97966
3774.42652	0.98001
3772.36961	0.98066
3770.31270	0.98056
3768.25579	0.97993
3766.19888	0.97910
3764.14197	0.97829
3762.08507	0.97825
3760.02816	0.97887
3757.97125	0.97940
3755.91434	0.97980
3753.85743	0.98058
3751.80053	0.98074
3749.74362	0.97941
3747.68671	0.97880
3745.62980	0.97960
3743.57289	0.98067
3741.51598	0.98100
3739.45908	0.98086
3737.40217	0.98012
3735.34526	0.97907
3733.28835	0.97949
3731.23144	0.98087
3729.17454	0.98146
3727.11763	0.98131
3725.06072	0.98054
3723.00381	0.97975
3720.94690	0.97985
3718.88999	0.98019
3716.83309	0.98009
3714.77618	0.97983
3712.71927	0.98041
3710.66236	0.98163
3708.60545	0.98172
3706.54855	0.98147
3704.49164	0.98172
3702.43473	0.98151
3700.37782	0.98056
3698.32091	0.98001
3696.26400	0.98008
3694.20710	0.98019
3692.15019	0.97986
3690.09328	0.97958
3688.03637	0.98024
3685.97946	0.98078
3683.92256	0.98014
3681.86565	0.97926
3679.80874	0.97945
3677.75183	0.98068
3675.69492	0.98228
3673.63801	0.98246
3671.58111	0.98159
3669.52420	0.98096
3667.46729	0.98037
3665.41038	0.98002
3663.35347	0.97992
3661.29657	0.97935
3659.23966	0.97838
3657.18275	0.97807
3655.12584	0.97874
3653.06893	0.97940
3651.01202	0.97959
3648.95512	0.97911
3646.89821	0.97848
3644.84130	0.97862
3642.78439	0.97900
3640.72748	0.97909
3638.67058	0.97893
3636.61367	0.97867
3634.55676	0.97795
3632.49985	0.97706
3630.44294	0.97733
3628.38603	0.97814
3626.32913	0.97800
3624.27222	0.97793
3622.21531	0.97826
3620.15840	0.97836
3618.10149	0.97778
3616.04459	0.97741
3613.98768	0.97771
3611.93077	0.97779
3609.87386	0.97752
3607.81695	0.97775
3605.76004	0.97791
3603.70314	0.97741
3601.64623	0.97706
3599.58932	0.97709
3597.53241	0.97722
3595.47550	0.97755
3593.41860	0.97744
3591.36169	0.97659
3589.30478	0.97584
3587.24787	0.97597
3585.19096	0.97685
3583.13405	0.97740
3581.07715	0.97705
3579.02024	0.97644
3576.96333	0.97645
3574.90642	0.97639
3572.84951	0.97553
3570.79261	0.97425
3568.73570	0.97330
3566.67879	0.97363
3564.62188	0.97430
3562.56497	0.97376
3560.50806	0.97291
3558.45116	0.97287
3556.39425	0.97296
3554.33734	0.97239
3552.28043	0.97169
3550.22352	0.97158
3548.16662	0.97191
3546.10971	0.97206
3544.05280	0.97199
3541.99589	0.97183
3539.93898	0.97120
3537.88207	0.97052
3535.82517	0.97031
3533.76826	0.97010
3531.71135	0.96972
3529.65444	0.96942
3527.59753	0.96944
3525.54063	0.96979
3523.48372	0.96982
3521.42681	0.96897
3519.36990	0.96822
3517.31299	0.96848
3515.25608	0.96872
3513.19918	0.96857
3511.14227	0.96878
3509.08536	0.96874
3507.02845	0.96794
3504.97154	0.96727
3502.91464	0.96715
3500.85773	0.96727
3498.80082	0.96743
3496.74391	0.96743
3494.68700	0.96679
3492.63009	0.96585
3490.57319	0.96552
3488.51628	0.96581
3486.45937	0.96614
3484.40246	0.96596
3482.34555	0.96549
3480.28865	0.96536
3478.23174	0.96564
3476.17483	0.96582
3474.11792	0.96544
3472.06101	0.96511
3470.00410	0.96548
3467.94720	0.96571
3465.89029	0.96555
3463.83338	0.96616
3461.77647	0.96660
3459.71956	0.96595
3457.66266	0.96576
3455.60575	0.96622
3453.54884	0.96624
3451.49193	0.96623
3449.43502	0.96663
3447.37811	0.96716
3445.32121	0.96740
3443.26430	0.96730
3441.20739	0.96743
3439.15048	0.96778
3437.09357	0.96809
3435.03667	0.96848
3432.97976	0.96849
3430.92285	0.96807
3428.86594	0.96801
3426.80903	0.96824
3424.75212	0.96841
3422.69522	0.96883
3420.63831	0.96930
3418.58140	0.96953
3416.52449	0.96988
3414.46758	0.97033
3412.41068	0.97040
3410.35377	0.97032
3408.29686	0.97033
3406.23995	0.97049
3404.18304	0.97116
3402.12613	0.97164
3400.06923	0.97128
3398.01232	0.97132
3395.95541	0.97201
3393.89850	0.97230
3391.84159	0.97226
3389.78469	0.97234
3387.72778	0.97251
3385.67087	0.97297
3383.61396	0.97342
3381.55705	0.97289
3379.50014	0.97201
3377.44324	0.97222
3375.38633	0.97295
3373.32942	0.97322
3371.27251	0.97331
3369.21560	0.97348
3367.15870	0.97335
3365.10179	0.97333
3363.04488	0.97390
3360.98797	0.97408
3358.93106	0.97371
3356.87415	0.97372
3354.81725	0.97404
3352.76034	0.97409
3350.70343	0.97350
3348.64652	0.97250
3346.58961	0.97228
3344.53271	0.97303
3342.47580	0.97360
3340.41889	0.97383
3338.36198	0.97427
3336.30507	0.97462
3334.24816	0.97454
3332.19126	0.97431
3330.13435	0.97395
3328.07744	0.97367
3326.02053	0.97392
3323.96362	0.97432
3321.90672	0.97456
3319.84981	0.97499
3317.79290	0.97527
3315.73599	0.97494
3313.67908	0.97460
3311.62217	0.97470
3309.56527	0.97509
3307.50836	0.97567
3305.45145	0.97589
3303.39454	0.97543
3301.33763	0.97502
3299.28073	0.97510
3297.22382	0.97521
3295.16691	0.97485
3293.11000	0.97446
3291.05309	0.97477
3288.99618	0.97540
3286.93928	0.97585
3284.88237	0.97606
3282.82546	0.97635
3280.76855	0.97687
3278.71164	0.97713
3276.65474	0.97702
3274.59783	0.97645
3272.54092	0.97578
3270.48401	0.97583
3268.42710	0.97638
3266.37019	0.97668
3264.31329	0.97630
3262.25638	0.97578
3260.19947	0.97604
3258.14256	0.97654
3256.08565	0.97672
3254.02875	0.97670
3251.97184	0.97646
3249.91493	0.97635
3247.85802	0.97691
3245.80111	0.97788
3243.74420	0.97834
3241.68730	0.97802
3239.63039	0.97764
3237.57348	0.97713
3235.51657	0.97634
3233.45966	0.97644
3231.40276	0.97750
3229.34585	0.97805
3227.28894	0.97754
3225.23203	0.97670
3223.17512	0.97650
3221.11821	0.97707
3219.06131	0.97763
3217.00440	0.97736
3214.94749	0.97664
3212.89058	0.97627
3210.83367	0.97650
3208.77677	0.97705
3206.71986	0.97707
3204.66295	0.97639
3202.60604	0.97600
3200.54913	0.97634
3198.49222	0.97661
3196.43532	0.97661
3194.37841	0.97681
3192.32150	0.97703
3190.26459	0.97718
3188.20768	0.97738
3186.15078	0.97750
3184.09387	0.97705
3182.03696	0.97642
3179.98005	0.97674
3177.92314	0.97778
3175.86623	0.97813
3173.80933	0.97780
3171.75242	0.97783
3169.69551	0.97802
3167.63860	0.97807
3165.58169	0.97818
3163.52479	0.97807
3161.46788	0.97769
3159.41097	0.97746
3157.35406	0.97753
3155.29715	0.97759
3153.24024	0.97729
3151.18334	0.97667
3149.12643	0.97646
3147.06952	0.97722
3145.01261	0.97807
3142.95570	0.97803
3140.89880	0.97748
3138.84189	0.97726
3136.78498	0.97746
3134.72807	0.97773
3132.67116	0.97790
3130.61425	0.97784
3128.55735	0.97766
3126.50044	0.97768
3124.44353	0.97769
3122.38662	0.97750
3120.32971	0.97749
3118.27281	0.97775
3116.21590	0.97807
3114.15899	0.97792
3112.10208	0.97753
3110.04517	0.97759
3107.98826	0.97755
3105.93136	0.97725
3103.87445	0.97740
3101.81754	0.97791
3099.76063	0.97816
3097.70372	0.97806
3095.64682	0.97782
3093.58991	0.97757
3091.53300	0.97734
3089.47609	0.97724
3087.41918	0.97752
3085.36227	0.97810
3083.30537	0.97854
3081.24846	0.97856
3079.19155	0.97849
3077.13464	0.97856
3075.07773	0.97827
3073.02083	0.97779
3070.96392	0.97771
3068.90701	0.97768
3066.85010	0.97750
3064.79319	0.97762
3062.73628	0.97783
3060.67938	0.97777
3058.62247	0.97779
3056.56556	0.97808
3054.50865	0.97809
3052.45174	0.97762
3050.39484	0.97751
3048.33793	0.97778
3046.28102	0.97777
3044.22411	0.97769
3042.16720	0.97771
3040.11029	0.97753
3038.05339	0.97726
3035.99648	0.97739
3033.93957	0.97789
3031.88266	0.97796
3029.82575	0.97754
3027.76885	0.97742
3025.71194	0.97742
3023.65503	0.97724
3021.59812	0.97701
3019.54121	0.97652
3017.48430	0.97604
3015.42740	0.97594
3013.37049	0.97595
3011.31358	0.97613
3009.25667	0.97665
3007.19976	0.97709
3005.14286	0.97716
3003.08595	0.97720
3001.02904	0.97714
2998.97213	0.97670
2996.91522	0.97625
2994.85831	0.97604
2992.80141	0.97582
2990.74450	0.97535
2988.68759	0.97479
2986.63068	0.97437
2984.57377	0.97437
2982.51687	0.97479
2980.45996	0.97526
2978.40305	0.97538
2976.34614	0.97495
2974.28923	0.97440
2972.23232	0.97417
2970.17542	0.97395
2968.11851	0.97339
2966.06160	0.97318
2964.00469	0.97340
2961.94778	0.97295
2959.89088	0.97195
2957.83397	0.97157
2955.77706	0.97194
2953.72015	0.97213
2951.66324	0.97163
2949.60633	0.97102
2947.54943	0.97078
2945.49252	0.97070
2943.43561	0.97062
2941.37870	0.97062
2939.32179	0.97056
2937.26489	0.97046
2935.20798	0.97097
2933.15107	0.97184
2931.09416	0.97224
2929.03725	0.97265
2926.98034	0.97319
2924.92344	0.97319
2922.86653	0.97290
2920.80962	0.97263
2918.75271	0.97248
2916.69580	0.97275
2914.63890	0.97307
2912.58199	0.97302
2910.52508	0.97280
2908.46817	0.97247
2906.41126	0.97226
2904.35435	0.97223
2902.29745	0.97195
2900.24054	0.97168
2898.18363	0.97184
2896.12672	0.97197
2894.06981	0.97177
2892.01291	0.97150
2889.95600	0.97123
2887.89909	0.97115
2885.84218	0.97141
2883.78527	0.97153
2881.72836	0.97145
2879.67146	0.97174
2877.61455	0.97221
2875.55764	0.97247
2873.50073	0.97263
2871.44382	0.97265
2869.38692	0.97243
2867.33001	0.97245
2865.27310	0.97296
2863.21619	0.97357
2861.15928	0.97397
2859.10237	0.97419
2857.04547	0.97430
2854.98856	0.97430
2852.93165	0.97443
2850.87474	0.97472
2848.81783	0.97500
2846.76093	0.97534
2844.70402	0.97559
2842.64711	0.97564
2840.59020	0.97589
2838.53329	0.97620
2836.47638	0.97606
2834.41948	0.97597
2832.36257	0.97640
2830.30566	0.97684
2828.24875	0.97679
2826.19184	0.97667
2824.13494	0.97704
2822.07803	0.97724
2820.02112	0.97676
2817.96421	0.97618
2815.90730	0.97611
2813.85039	0.97636
2811.79349	0.97640
2809.73658	0.97641
2807.67967	0.97678
2805.62276	0.97722
2803.56585	0.97730
2801.50895	0.97702
2799.45204	0.97682
2797.39513	0.97693
2795.33822	0.97710
2793.28131	0.97714
2791.22440	0.97704
2789.16750	0.97687
2787.11059	0.97693
2785.05368	0.97718
2782.99677	0.97713
2780.93986	0.97680
2778.88296	0.97680
2776.82605	0.97728
2774.76914	0.97768
2772.71223	0.97773
2770.65532	0.97767
2768.59841	0.97762
2766.54151	0.97773
2764.48460	0.97805
2762.42769	0.97812
2760.37078	0.97773
2758.31387	0.97735
2756.25697	0.97725
2754.20006	0.97751
2752.14315	0.97779
2750.08624	0.97777
2748.02933	0.97773
2745.97242	0.97776
2743.91552	0.97776
2741.85861	0.97778
2739.80170	0.97782
2737.74479	0.97787
2735.68788	0.97766
2733.63098	0.97750
2731.57407	0.97748
2729.51716	0.97724
2727.46025	0.97705
2725.40334	0.97711
2723.34643	0.97716
2721.28953	0.97720
2719.23262	0.97725
2717.17571	0.97752
2715.11880	0.97793
2713.06189	0.97799
2711.00499	0.97755
2708.94808	0.97709
2706.89117	0.97723
2704.83426	0.97769
2702.77735	0.97775
2700.72044	0.97732
2698.66354	0.97694
2696.60663	0.97729
2694.54972	0.97789
2692.49281	0.97801
2690.43590	0.97815
2688.37900	0.97826
2686.32209	0.97802
2684.26518	0.97788
2682.20827	0.97787
2680.15136	0.97794
2678.09445	0.97817
2676.03755	0.97827
2673.98064	0.97805
2671.92373	0.97770
2669.86682	0.97747
2667.80991	0.97736
2665.75301	0.97742
2663.69610	0.97768
2661.63919	0.97774
2659.58228	0.97756
2657.52537	0.97745
2655.46846	0.97733
2653.41156	0.97730
2651.35465	0.97744
2649.29774	0.97747
2647.24083	0.97768
2645.18392	0.97805
2643.12702	0.97786
2641.07011	0.97725
2639.01320	0.97729
2636.95629	0.97793
2634.89938	0.97811
2632.84247	0.97787
2630.78557	0.97793
2628.72866	0.97818
2626.67175	0.97825
2624.61484	0.97838
2622.55793	0.97861
2620.50103	0.97846
2618.44412	0.97814
2616.38721	0.97801
2614.33030	0.97826
2612.27339	0.97886
2610.21648	0.97959
2608.15958	0.97997
2606.10267	0.97978
2604.04576	0.97935
2601.98885	0.97896
2599.93194	0.97882
2597.87504	0.97895
2595.81813	0.97881
2593.76122	0.97853
2591.70431	0.97884
2589.64740	0.97943
2587.59049	0.97971
2585.53359	0.97962
2583.47668	0.97928
2581.41977	0.97915
2579.36286	0.97929
2577.30595	0.97938
2575.24905	0.97932
2573.19214	0.97920
2571.13523	0.97924
2569.07832	0.97932
2567.02141	0.97872
2564.96450	0.97794
2562.90760	0.97812
2560.85069	0.97919
2558.79378	0.98019
2556.73687	0.98017
2554.67996	0.97933
2552.62306	0.97863
2550.56615	0.97858
2548.50924	0.97913
2546.45233	0.97971
2544.39542	0.97989
2542.33851	0.97992
2540.28161	0.97987
2538.22470	0.97949
2536.16779	0.97919
2534.11088	0.97920
2532.05397	0.97921
2529.99707	0.97933
2527.94016	0.97941
2525.88325	0.97919
2523.82634	0.97898
2521.76943	0.97933
2519.71252	0.98021
2517.65562	0.98083
2515.59871	0.98088
2513.54180	0.98064
2511.48489	0.98049
2509.42798	0.98023
2507.37108	0.97946
2505.31417	0.97922
2503.25726	0.97988
2501.20035	0.98034
2499.14344	0.98047
2497.08653	0.98056
2495.02963	0.98046
2492.97272	0.98021
2490.91581	0.97990
2488.85890	0.97972
2486.80199	0.97984
2484.74509	0.98008
2482.68818	0.98033
2480.63127	0.98046
2478.57436	0.98031
2476.51745	0.98018
2474.46054	0.98011
2472.40364	0.97978
2470.34673	0.97976
2468.28982	0.98032
2466.23291	0.98025
2464.17600	0.97970
2462.11910	0.97991
2460.06219	0.98063
2458.00528	0.98105
2455.94837	0.98090
2453.89146	0.98061
2451.83455	0.98040
2449.77765	0.98002
2447.72074	0.97976
2445.66383	0.97979
2443.60692	0.97978
2441.55001	0.97971
2439.49311	0.97978
2437.43620	0.97983
2435.37929	0.97961
2433.32238	0.97961
2431.26547	0.97983
2429.20856	0.97931
2427.15166	0.97856
2425.09475	0.97883
2423.03784	0.97974
2420.98093	0.98011
2418.92402	0.98011
2416.86712	0.98029
2414.81021	0.98033
2412.75330	0.97996
2410.69639	0.97950
2408.63948	0.97972
2406.58257	0.98041
2404.52567	0.98058
2402.46876	0.98046
2400.41185	0.98050
2398.35494	0.98074
2396.29803	0.98107
2394.24113	0.98106
2392.18422	0.98084
2390.12731	0.98075
2388.07040	0.98093
2386.01349	0.98099
2383.95658	0.98051
2381.89968	0.97996
2379.84277	0.97983
2377.78586	0.98018
2375.72895	0.98082
2373.67204	0.98120
2371.61514	0.98115
2369.55823	0.98188
2367.50132	0.98296
2365.44441	0.98164
2363.38750	0.97904
2361.33059	0.97784
2359.27369	0.97780
2357.21678	0.97842
2355.15987	0.97929
2353.10296	0.97979
2351.04605	0.97997
2348.98915	0.98020
2346.93224	0.98060
2344.87533	0.98092
2342.81842	0.98091
2340.76151	0.98051
2338.70460	0.97996
2336.64770	0.97982
2334.59079	0.98008
2332.53388	0.98025
2330.47697	0.98010
2328.42006	0.97985
2326.36316	0.97984
2324.30625	0.98014
2322.24934	0.98057
2320.19243	0.98043
2318.13552	0.97934
2316.07861	0.97864
2314.02171	0.97949
2311.96480	0.98031
2309.90789	0.97993
2307.85098	0.97986
2305.79407	0.98064
2303.73717	0.98078
2301.68026	0.98001
2299.62335	0.97979
2297.56644	0.98028
2295.50953	0.98074
2293.45262	0.98132
2291.39572	0.98151
2289.33881	0.98075
2287.28190	0.97984
2285.22499	0.97912
2283.16808	0.97844
2281.11117	0.97821
2279.05427	0.97836
2276.99736	0.97879
2274.94045	0.97942
2272.88354	0.97985
2270.82663	0.97987
2268.76973	0.97969
2266.71282	0.98002
2264.65591	0.98044
2262.59900	0.98011
2260.54209	0.98000
2258.48518	0.98071
2256.42828	0.98113
2254.37137	0.98084
2252.31446	0.98064
2250.25755	0.98082
2248.20064	0.98094
2246.14374	0.98080
2244.08683	0.98110
2242.02992	0.98194
2239.97301	0.98236
2237.91610	0.98275
2235.85919	0.98338
2233.80229	0.98302
2231.74538	0.98205
2229.68847	0.98196
2227.63156	0.98270
2225.57465	0.98277
2223.51775	0.98193
2221.46084	0.98088
2219.40393	0.98012
2217.34702	0.98086
2215.29011	0.98201
2213.23320	0.98226
2211.17630	0.98305
2209.11939	0.98433
2207.06248	0.98418
2205.00557	0.98268
2202.94866	0.98171
2200.89176	0.98076
2198.83485	0.97903
2196.77794	0.97868
2194.72103	0.98012
2192.66412	0.98136
2190.60721	0.98168
2188.55031	0.98147
2186.49340	0.98200
2184.43649	0.98314
2182.37958	0.98309
2180.32267	0.98210
2178.26577	0.98229
2176.20886	0.98297
2174.15195	0.98101
2172.09504	0.97958
2170.03813	0.98278
2167.98122	0.98652
2165.92432	0.98627
2163.86741	0.98221
2161.81050	0.97809
2159.75359	0.97906
2157.69668	0.98305
2155.63978	0.98298
2153.58287	0.97994
2151.52596	0.97891
2149.46905	0.97962
2147.41214	0.98065
2145.35523	0.98162
2143.29833	0.98123
2141.24142	0.98113
2139.18451	0.98245
2137.12760	0.98268
2135.07069	0.98109
2133.01379	0.98000
2130.95688	0.98029
2128.89997	0.98069
2126.84306	0.98059
2124.78615	0.98028
2122.72924	0.98021
2120.67234	0.98039
2118.61543	0.98013
2116.55852	0.97982
2114.50161	0.98053
2112.44470	0.98141
2110.38780	0.98126
2108.33089	0.98072
2106.27398	0.98114
2104.21707	0.98213
2102.16016	0.98242
2100.10325	0.98245
2098.04635	0.98244
2095.98944	0.98202
2093.93253	0.98158
2091.87562	0.98128
2089.81871	0.98084
2087.76181	0.98065
2085.70490	0.98087
2083.64799	0.98098
2081.59108	0.98131
2079.53417	0.98232
2077.47726	0.98334
2075.42036	0.98326
2073.36345	0.98266
2071.30654	0.98216
2069.24963	0.98158
2067.19272	0.98191
2065.13582	0.98308
2063.07891	0.98353
2061.02200	0.98358
2058.96509	0.98412
2056.90818	0.98476
2054.85127	0.98446
2052.79437	0.98260
2050.73746	0.98023
2048.68055	0.97947
2046.62364	0.98168
2044.56673	0.98432
2042.50983	0.98422
2040.45292	0.98262
2038.39601	0.98235
2036.33910	0.98392
2034.28219	0.98569
2032.22528	0.98756
2030.16838	0.98933
2028.11147	0.98928
2026.05456	0.98819
2023.99765	0.98744
2021.94074	0.98670
2019.88384	0.98652
2017.82693	0.98623
2015.77002	0.98447
2013.71311	0.98180
2011.65620	0.97998
2009.59929	0.98141
2007.54239	0.98463
2005.48548	0.98611
2003.42857	0.98564
2001.37166	0.98497
1999.31475	0.98421
1997.25785	0.98266
1995.20094	0.98136
1993.14403	0.98196
1991.08712	0.98467
1989.03021	0.98697
1986.97330	0.98675
1984.91640	0.98558
1982.85949	0.98459
1980.80258	0.98296
1978.74567	0.98261
1976.68876	0.98400
1974.63186	0.98346
1972.57495	0.98194
1970.51804	0.98266
1968.46113	0.98479
1966.40422	0.98587
1964.34731	0.98570
1962.29041	0.98575
1960.23350	0.98565
1958.17659	0.98452
1956.11968	0.98368
1954.06277	0.98404
1952.00587	0.98491
1949.94896	0.98465
1947.89205	0.98318
1945.83514	0.98248
1943.77823	0.98247
1941.72132	0.98301
1939.66442	0.98472
1937.60751	0.98614
1935.55060	0.98630
1933.49369	0.98561
1931.43678	0.98434
1929.37988	0.98310
1927.32297	0.98277
1925.26606	0.98324
1923.20915	0.98353
1921.15224	0.98288
1919.09533	0.98152
1917.03843	0.98086
1914.98152	0.98179
1912.92461	0.98305
1910.86770	0.98332
1908.81079	0.98298
1906.75389	0.98336
1904.69698	0.98396
1902.64007	0.98400
1900.58316	0.98429
1898.52625	0.98517
1896.46934	0.98547
1894.41244	0.98523
1892.35553	0.98567
1890.29862	0.98573
1888.24171	0.98487
1886.18480	0.98465
1884.12790	0.98527
1882.07099	0.98541
1880.01408	0.98439
1877.95717	0.98340
1875.90026	0.98367
1873.84335	0.98441
1871.78645	0.98471
1869.72954	0.98467
1867.67263	0.98495
1865.61572	0.98583
1863.55881	0.98614
1861.50191	0.98559
1859.44500	0.98495
1857.38809	0.98449
1855.33118	0.98427
1853.27427	0.98452
1851.21736	0.98495
1849.16046	0.98527
1847.10355	0.98551
1845.04664	0.98537
1842.98973	0.98521
1840.93282	0.98560
1838.87592	0.98631
1836.81901	0.98678
1834.76210	0.98669
1832.70519	0.98611
1830.64828	0.98558
1828.59137	0.98548
1826.53447	0.98544
1824.47756	0.98509
1822.42065	0.98481
1820.36374	0.98519
1818.30683	0.98550
1816.24993	0.98516
1814.19302	0.98471
1812.13611	0.98461
1810.07920	0.98462
1808.02229	0.98450
1805.96538	0.98424
1803.90848	0.98384
1801.85157	0.98324
1799.79466	0.98243
1797.73775	0.98187
1795.68084	0.98199
1793.62394	0.98248
1791.56703	0.98224
1789.51012	0.98129
1787.45321	0.98050
1785.39630	0.97995
1783.33939	0.97919
1781.28249	0.97788
1779.22558	0.97580
1777.16867	0.97313
1775.11176	0.97002
1773.05485	0.96556
1770.99795	0.95897
1768.94104	0.95095
1766.88413	0.94117
1764.82722	0.93003
1762.77031	0.91682
1760.71340	0.90154
1758.65650	0.88726
1756.59959	0.87305
1754.54268	0.86028
1752.48577	0.84964
1750.42886	0.83869
1748.37196	0.82834
1746.31505	0.82016
1744.25814	0.81353
1742.20123	0.80853
1740.14432	0.80562
1738.08741	0.80482
1736.03051	0.80615
1733.97360	0.81048
1731.91669	0.81711
1729.85978	0.82440
1727.80287	0.83297
1725.74597	0.84209
1723.68906	0.85168
1721.63215	0.86103
1719.57524	0.87033
1717.51833	0.88208
1715.46142	0.89437
1713.40452	0.90371
1711.34761	0.91125
1709.29070	0.91781
1707.23379	0.92409
1705.17688	0.93024
1703.11998	0.93505
1701.06307	0.93934
1699.00616	0.94378
1696.94925	0.94706
1694.89234	0.94986
1692.83543	0.95204
1690.77853	0.95376
1688.72162	0.95535
1686.66471	0.95658
1684.60780	0.95808
1682.55089	0.95962
1680.49399	0.96074
1678.43708	0.96178
1676.38017	0.96253
1674.32326	0.96308
1672.26635	0.96375
1670.20944	0.96446
1668.15254	0.96478
1666.09563	0.96495
1664.03872	0.96543
1661.98181	0.96589
1659.92490	0.96604
1657.86800	0.96604
1655.81109	0.96580
1653.75418	0.96580
1651.69727	0.96639
1649.64036	0.96638
1647.58345	0.96602
1645.52655	0.96614
1643.46964	0.96663
1641.41273	0.96684
1639.35582	0.96680
1637.29891	0.96696
1635.24201	0.96740
1633.18510	0.96755
1631.12819	0.96768
1629.07128	0.96807
1627.01437	0.96862
1624.95746	0.96919
1622.90056	0.96959
1620.84365	0.96982
1618.78674	0.97027
1616.72983	0.97120
1614.67292	0.97216
1612.61602	0.97267
1610.55911	0.97289
1608.50220	0.97323
1606.44529	0.97377
1604.38838	0.97389
1602.33147	0.97376
1600.27457	0.97398
1598.21766	0.97427
1596.16075	0.97452
1594.10384	0.97507
1592.04693	0.97564
1589.99003	0.97585
1587.93312	0.97596
1585.87621	0.97616
1583.81930	0.97633
1581.76239	0.97648
1579.70548	0.97657
1577.64858	0.97665
1575.59167	0.97686
1573.53476	0.97690
1571.47785	0.97679
1569.42094	0.97688
1567.36404	0.97704
1565.30713	0.97701
1563.25022	0.97691
1561.19331	0.97682
1559.13640	0.97715
1557.07949	0.97789
1555.02259	0.97816
1552.96568	0.97790
1550.90877	0.97749
1548.85186	0.97769
1546.79495	0.97840
1544.73805	0.97878
1542.68114	0.97832
1540.62423	0.97751
1538.56732	0.97752
1536.51041	0.97794
1534.45350	0.97822
1532.39660	0.97836
1530.33969	0.97826
1528.28278	0.97826
1526.22587	0.97858
1524.16896	0.97879
1522.11206	0.97870
1520.05515	0.97869
1517.99824	0.97884
1515.94133	0.97873
1513.88442	0.97840
1511.82751	0.97820
1509.77061	0.97824
1507.71370	0.97864
1505.65679	0.97911
1503.59988	0.97900
1501.54297	0.97880
1499.48607	0.97885
1497.42916	0.97927
1495.37225	0.97952
1493.31534	0.97932
1491.25843	0.97915
1489.20152	0.97910
1487.14462	0.97910
1485.08771	0.97919
1483.03080	0.97908
1480.97389	0.97867
1478.91698	0.97817
1476.86008	0.97759
1474.80317	0.97700
1472.74626	0.97653
1470.68935	0.97584
1468.63244	0.97486
1466.57553	0.97349
1464.51863	0.97150
1462.46172	0.96948
1460.40481	0.96802
1458.34790	0.96679
1456.29099	0.96548
1454.23409	0.96457
1452.17718	0.96373
1450.12027	0.96248
1448.06336	0.96082
1446.00645	0.95917
1443.94954	0.95787
1441.89264	0.95659
1439.83573	0.95522
1437.77882	0.95379
1435.72191	0.95244
1433.66500	0.95175
1431.60810	0.95152
1429.55119	0.95189
1427.49428	0.95294
1425.43737	0.95397
1423.38046	0.95475
1421.32355	0.95556
1419.26665	0.95662
1417.20974	0.95781
1415.15283	0.95895
1413.09592	0.95998
1411.03901	0.96059
1408.98211	0.96098
1406.92520	0.96147
1404.86829	0.96177
1402.81138	0.96188
1400.75447	0.96198
1398.69756	0.96158
1396.64066	0.95999
1394.58375	0.95710
1392.52684	0.95321
1390.46993	0.94865
1388.41302	0.94287
1386.35612	0.93575
1384.29921	0.92861
1382.24230	0.92147
1380.18539	0.91389
1378.12848	0.90633
1376.07157	0.89911
1374.01467	0.89210
1371.95776	0.88631
1369.90085	0.88290
1367.84394	0.88227
1365.78703	0.88501
1363.73013	0.89173
1361.67322	0.90247
1359.61631	0.91469
1357.55940	0.92626
1355.50249	0.93627
1353.44558	0.94406
1351.38868	0.94969
1349.33177	0.95364
1347.27486	0.95639
1345.21795	0.95833
1343.16104	0.95971
1341.10414	0.96058
1339.04723	0.96099
1336.99032	0.96132
1334.93341	0.96173
1332.87650	0.96202
1330.81959	0.96196
1328.76269	0.96159
1326.70578	0.96121
1324.64887	0.96086
1322.59196	0.96054
1320.53505	0.96043
1318.47815	0.96057
1316.42124	0.96080
1314.36433	0.96107
1312.30742	0.96134
1310.25051	0.96159
1308.19360	0.96193
1306.13670	0.96208
1304.07979	0.96178
1302.02288	0.96132
1299.96597	0.96093
1297.90906	0.96034
1295.85216	0.95930
1293.79525	0.95802
1291.73834	0.95655
1289.68143	0.95469
1287.62452	0.95241
1285.56761	0.94988
1283.51071	0.94720
1281.45380	0.94404
1279.39689	0.94032
1277.33998	0.93620
1275.28307	0.93145
1273.22617	0.92605
1271.16926	0.92039
1269.11235	0.91448
1267.05544	0.90796
1264.99853	0.90066
1262.94162	0.89280
1260.88472	0.88446
1258.82781	0.87554
1256.77090	0.86586
1254.71399	0.85548
1252.65708	0.84483
1250.60018	0.83402
1248.54327	0.82281
1246.48636	0.81123
1244.42945	0.79944
1242.37254	0.78759
1240.31563	0.77594
1238.25873	0.76457
1236.20182	0.75349
1234.14491	0.74306
1232.08800	0.73371
1230.03109	0.72573
1227.97419	0.71968
1225.91728	0.71580
1223.86037	0.71382
1221.80346	0.71376
1219.74655	0.71580
1217.68964	0.71990
1215.63274	0.72647
1213.57583	0.73607
1211.51892	0.74862
1209.46201	0.76374
1207.40510	0.78116
1205.34820	0.80016
1203.29129	0.81968
1201.23438	0.83862
1199.17747	0.85603
1197.12056	0.87119
1195.06365	0.88375
1193.00675	0.89395
1190.94984	0.90192
1188.89293	0.90760
1186.83602	0.91113
1184.77911	0.91291
1182.72221	0.91331
1180.66530	0.91244
1178.60839	0.91035
1176.55148	0.90763
1174.49457	0.90505
1172.43766	0.90276
1170.38076	0.90074
1168.32385	0.89906
1166.26694	0.89789
1164.21003	0.89748
1162.15312	0.89798
1160.09622	0.89937
1158.03931	0.90139
1155.98240	0.90368
1153.92549	0.90607
1151.86858	0.90869
1149.81167	0.91149
1147.75477	0.91369
1145.69786	0.91473
1143.64095	0.91499
1141.58404	0.91470
1139.52713	0.91354
1137.47023	0.91140
1135.41332	0.90870
1133.35641	0.90569
1131.29950	0.90252
1129.24259	0.89957
1127.18568	0.89704
1125.12878	0.89476
1123.07187	0.89291
1121.01496	0.89194
1118.95805	0.89184
1116.90114	0.89220
1114.84424	0.89229
1112.78733	0.89161
1110.73042	0.89070
1108.67351	0.88976
1106.61660	0.88871
1104.55969	0.88750
1102.50279	0.88551
1100.44588	0.88245
1098.38897	0.87874
1096.33206	0.87479
1094.27515	0.87053
1092.21825	0.86548
1090.16134	0.85956
1088.10443	0.85331
1086.04752	0.84687
1083.99061	0.83993
1081.93370	0.83290
1079.87680	0.82632
1077.81989	0.81992
1075.76298	0.81358
1073.70607	0.80757
1071.64916	0.80176
1069.59226	0.79613
1067.53535	0.79063
1065.47844	0.78496
1063.42153	0.77923
1061.36462	0.77346
1059.30771	0.76733
1057.25081	0.76078
1055.19390	0.75403
1053.13699	0.74709
1051.08008	0.74001
1049.02317	0.73338
1046.96627	0.72785
1044.90936	0.72314
1042.85245	0.71867
1040.79554	0.71417
1038.73863	0.70952
1036.68172	0.70518
1034.62482	0.70201
1032.56791	0.70092
1030.51100	0.70254
1028.45409	0.70712
1026.39718	0.71421
1024.34028	0.72306
1022.28337	0.73323
1020.22646	0.74413
1018.16955	0.75504
1016.11264	0.76571
1014.05573	0.77625
1011.99883	0.78653
1009.94192	0.79638
1007.88501	0.80581
1005.82810	0.81453
1003.77119	0.82236
1001.71429	0.82964
999.65738	0.83643
997.60047	0.84262
995.54356	0.84823
993.48665	0.85297
991.42974	0.85687
989.37284	0.86049
987.31593	0.86396
985.25902	0.86710
983.20211	0.86986
981.14520	0.87249
979.08830	0.87536
977.03139	0.87856
974.97448	0.88247
972.91757	0.88719
970.86066	0.89185
968.80375	0.89581
966.74685	0.89944
964.68994	0.90301
962.63303	0.90587
960.57612	0.90746
958.51921	0.90825
956.46231	0.90916
954.40540	0.91050
952.34849	0.91201
950.29158	0.91342
948.23467	0.91445
946.17776	0.91531
944.12086	0.91668
942.06395	0.91857
940.00704	0.92016
937.95013	0.92108
935.89322	0.92148
933.83632	0.92142
931.77941	0.92109
929.72250	0.92046
927.66559	0.91908
925.60868	0.91733
923.55177	0.91601
921.49487	0.91504
919.43796	0.91407
917.38105	0.91307
915.32414	0.91192
913.26723	0.91049
911.21033	0.90902
909.15342	0.90770
907.09651	0.90660
905.03960	0.90584
902.98269	0.90542
900.92578	0.90536
898.86888	0.90584
896.81197	0.90735
894.75506	0.90991
892.69815	0.91269
890.64124	0.91476
888.58434	0.91624
886.52743	0.91790
884.47052	0.91975
882.41361	0.92141
880.35670	0.92306
878.29979	0.92497
876.24289	0.92694
874.18598	0.92890
872.12907	0.93128
870.07216	0.93394
868.01525	0.93635
865.95835	0.93869
863.90144	0.94076
861.84453	0.94241
859.78762	0.94420
857.73071	0.94575
855.67380	0.94643
853.61690	0.94674
851.55999	0.94676
849.50308	0.94637
847.44617	0.94599
845.38926	0.94551
843.33236	0.94463
841.27545	0.94392
839.21854	0.94376
837.16163	0.94364
835.10472	0.94389
833.04781	0.94522
830.99091	0.94696
828.93400	0.94821
826.87709	0.94898
824.82018	0.94988
822.76327	0.95102
820.70637	0.95180
818.64946	0.95239
816.59255	0.95356
814.53564	0.95496
812.47873	0.95579
810.42182	0.95608
808.36492	0.95643
806.30801	0.95704
804.25110	0.95760
802.19419	0.95801
800.13728	0.95834
798.08038	0.95852
796.02347	0.95855
793.96656	0.95904
791.90965	0.95985
789.85274	0.96002
787.79583	0.95960
785.73893	0.95912
783.68202	0.95893
781.62511	0.95920
779.56820	0.95964
777.51129	0.95990
775.45439	0.96010
773.39748	0.96023
771.34057	0.96010
769.28366	0.95990
767.22675	0.95993
765.16984	0.96069
763.11294	0.96184
761.05603	0.96191
758.99912	0.96121
756.94221	0.96131
754.88530	0.96186
752.82839	0.96194
750.77149	0.96215
748.71458	0.96276
746.65767	0.96316
744.60076	0.96363
742.54385	0.96427
740.48695	0.96414
738.43004	0.96304
736.37313	0.96163
734.31622	0.96093
732.25931	0.96102
730.20240	0.96060
728.14550	0.95956
726.08859	0.95889
724.03168	0.95877
721.97477	0.95879
719.91786	0.95851
717.86096	0.95760
715.80405	0.95652
713.74714	0.95580
711.69023	0.95558
709.63332	0.95586
707.57641	0.95598
705.51951	0.95546
703.46260	0.95477
701.40569	0.95432
699.34878	0.95385
697.29187	0.95280
695.23497	0.95125
693.17806	0.95033
691.12115	0.95066
689.06424	0.95101
687.00733	0.95043
684.95042	0.94954
682.89352	0.94887
680.83661	0.94877
678.77970	0.94913
676.72279	0.94898
674.66588	0.94829
672.60898	0.94860
670.55207	0.95011
668.49516	0.95120
666.43825	0.95096
664.38134	0.95056
662.32443	0.95003
660.26753	0.94902
658.21062	0.94780
656.15371	0.94676
654.09680	0.94593
652.03989	0.94517
649.98299	0.94373
647.92608	0.94139
645.86917	0.93931
643.81226	0.93774
641.75535	0.93614
639.69844	0.93518
637.64154	0.93478
635.58463	0.93386
633.52772	0.93249
631.47081	0.93134
629.41390	0.93047
627.35700	0.92935
625.30009	0.92840
623.24318	0.92769
621.18627	0.92605
619.12936	0.92305
617.07245	0.91996
615.01555	0.91802
612.95864	0.91524
610.90173	0.90992
608.84482	0.90339
606.78791	0.89716
604.73101	0.89212
602.67410	0.88989
600.61719	0.89171
598.56028	0.89646
596.50337	0.90180
594.44646	0.90673
592.38956	0.91180
590.33265	0.91709
588.27574	0.92118
586.21883	0.92330
584.16192	0.92504
582.10502	0.92777
580.04811	0.92988
577.99120	0.93014
575.93429	0.92955
573.87738	0.92854
571.82047	0.92735
569.76357	0.92620
567.70666	0.92534
565.64975	0.92512
563.59284	0.92442
561.53593	0.92299
559.47903	0.92209
557.42212	0.92181
555.36521	0.92115
553.30830	0.92061
551.25139	0.92233
549.19448	0.92562
547.13758	0.92792
545.08067	0.92878
543.02376	0.92968
540.96685	0.93081
538.90994	0.93108
536.85304	0.93097
534.79613	0.93090
532.73922	0.93056
530.68231	0.92993
528.62540	0.92946
526.56849	0.92896
524.51159	0.92782
522.45468	0.92717
520.39777	0.92725
518.34086	0.92702
516.28395	0.92656
514.22705	0.92580
512.17014	0.92473
510.11323	0.92410
508.05632	0.92340
505.99941	0.92180
503.94250	0.92108
501.88560	0.92180
499.82869	0.92160
497.77178	0.92047
495.71487	0.91974
493.65796	0.91870
491.60106	0.91695
489.54415	0.91621
487.48724	0.91564
485.43033	0.91291
483.37342	0.91071
481.31651	0.91252
479.25961	0.91574
477.20270	0.91669
475.14579	0.91612
473.08888	0.91513
471.03197	0.91370
468.97507	0.91254
466.91816	0.91160
464.86125	0.91034
462.80434	0.90783
460.74743	0.90423
458.69052	0.90005
456.63362	0.89811
454.57671	0.90107
452.51980	0.90397
450.46289	0.90383
448.40598	0.90369
446.34908	0.90494
444.29217	0.90640
442.23526	0.90674
440.17835	0.90728
438.12144	0.90965
436.06453	0.91143
434.00763	0.91149
431.95072	0.91297
429.89381	0.91464
427.83690	0.91281
425.77999	0.91100
423.72309	0.91275
421.66618	0.91606
419.60927	0.91955
417.55236	0.91952
415.49545	0.91807
413.43854	0.91922
411.38164	0.92032
409.32473	0.91841
407.26782	0.91397
405.21091	0.91106
403.15400	0.91124
401.09710	0.91095
399.04019	0.90693
